SpectraSmart Spectrum 2.9.0.0
--------- Device Information -----------
Spectrum Name :  反射率_0
Saving Time :  2024/05/01 16:20:08
Spectro-Module Model Name : SE2030-DUVN
Spectro-Module Serial Number : OS361AC55029948
Wavelength Start : 200
Wavelength End : 1025
Wavelength Unit : Wavelength(nm)
Spectrum Unit : Reflectance(%)
-----------Spectrum Setting ------------
Integration Time : 20ms
Average : 10
Boxcar : 0
Background removal :  enabled
linearity correction :  enabled
SC :  disabled
Intensity correction :  disabled
DWT denoise :  enabled
savitzky-golay :  disabled
FFT :  disabled
Running average :  disabled
Kalman :  disabled
High pass :  disabled
---------------BEGIN--------------------
Wavelength(nm)             Reflectance(%)
200.29               0
200.75        131.6918
201.21         570.485
201.67       -233.6979
202.13       -77.57693
202.58       -24.70488
203.04        6.433385
203.50        26.51434
203.96        38.97426
204.42        49.04499
204.88        68.73191
205.34        499.7567
205.80       -22.60581
206.26       -0.435474
206.72        5.715983
207.18       -9.921583
207.64        86.20757
208.10        72.46113
208.55        79.91413
209.01        85.55354
209.47        83.71499
209.93        75.29144
210.39        61.93166
210.85        47.35798
211.31          36.004
211.77        26.04568
212.23        45.18466
212.69        32.23293
213.14        41.19175
213.60        83.48165
214.06       -380.6603
214.52       -56.81653
214.98       -30.91448
215.44       -16.21796
215.90        10.19298
216.36        342.6479
216.81       -147.6826
217.27       -129.1532
217.73         38.6903
218.19       -51.00324
218.65       -74.13647
219.11       -112.5325
219.57       -224.8088
220.02        -638.043
220.48       -284.1803
220.94       -67.14975
221.40       -14.51945
221.86        3.476958
222.32        10.58669
222.77        14.01674
223.23        15.63598
223.69        16.61171
224.15        18.40893
224.61        20.66944
225.06        22.29653
225.52        23.37441
225.98        24.07291
226.44        24.61418
226.90        24.95094
227.36        25.34622
227.81         26.0885
228.27        26.87291
228.73        27.57595
229.19        27.59276
229.65         26.3166
230.10        23.73374
230.56        19.96213
231.02        15.95943
231.48        14.92207
231.93        17.77316
232.39        22.49082
232.85         27.1317
233.31        30.15673
233.77        31.58278
234.22         32.1588
234.68        32.07301
235.14        31.58007
235.60        30.75686
236.05        29.26888
236.51        27.26538
236.97         25.9641
237.43        26.39994
237.88         28.7218
238.34        31.48827
238.80        32.85044
239.26        32.22703
239.71        29.48003
240.17        23.85148
240.63        16.53152
241.08        11.35062
241.54        10.06811
242.00        11.86406
242.46        15.45298
242.91        21.49683
243.37        31.50338
243.83        49.79924
244.28        71.91875
244.74        80.34186
245.20        77.77552
245.66        71.53626
246.11         64.2814
246.57        55.06054
247.03        40.40207
247.48         16.6021
247.94       -10.60103
248.40       -27.16087
248.85       -30.53921
249.31       -19.56493
249.77       -1.119952
250.22        16.81625
250.68        31.91236
251.14         41.9381
251.59        45.99521
252.05        44.77176
252.51        35.81949
252.96         11.0129
253.42       -22.28554
253.88       -12.17636
254.33        25.16656
254.79        44.98045
255.25        48.73549
255.70        45.88346
256.16        41.85718
256.62         39.3539
257.07         40.1921
257.53        43.28852
257.99        46.73433
258.44        49.14901
258.90        49.77417
259.35        48.67464
259.81        46.82264
260.27        44.84851
260.72        43.65391
261.18        43.52002
261.63        43.72299
262.09         44.0116
262.55        43.86221
263.00        43.16998
263.46        42.27491
263.91        41.17479
264.37        40.07379
264.83        38.99374
265.28        37.91091
265.74        36.91219
266.19        35.92611
266.65        35.03657
267.11        34.19227
267.56        33.48513
268.02        33.13419
268.47        33.10342
268.93        33.27934
269.38        33.41379
269.84        33.05141
270.30        32.13374
270.75        30.81149
271.21        29.37204
271.66          28.142
272.12        27.27863
272.57        26.63655
273.03        26.19553
273.48        25.87698
273.94        25.63651
274.39        25.46555
274.85        25.28129
275.31        24.91789
275.76        24.35424
276.22        23.67881
276.67        22.95008
277.13        22.33112
277.58        21.81228
278.04        21.37518
278.49        20.98064
278.95        20.66476
279.40        20.37442
279.86         20.1265
280.31        19.83642
280.77        19.44303
281.22        18.91974
281.68        18.35153
282.13        17.75344
282.59        17.20192
283.04        16.70689
283.50        16.27855
283.95        15.95738
284.41        15.84215
284.86        15.91404
285.32        16.12207
285.77        16.36138
286.22         16.4979
286.68        16.50623
287.13        16.41636
287.59        16.25254
288.04        16.02638
288.50         15.7897
288.95        15.51268
289.41        15.30246
289.86         15.2613
290.32        15.40495
290.77        15.70044
291.22        16.01476
291.68        16.13518
292.13        16.03386
292.59        15.80981
293.04        15.60482
293.50        15.68614
293.95        16.09577
294.40        16.75023
294.86        17.53111
295.31        18.26291
295.77        18.87619
296.22        19.42335
296.68        19.91838
297.13        20.37927
297.58        20.83617
298.04         21.2926
298.49        21.78805
298.95        22.42049
299.40        23.18447
299.85        24.05045
300.31        24.96777
300.76        25.86302
301.21        26.72364
301.67        27.59079
302.12         28.4452
302.58        29.27152
303.03        30.05634
303.48        30.82449
303.94        31.66976
304.39        32.68771
304.84        33.92893
305.30        35.35787
305.75        36.89879
306.20        38.43475
306.66        39.91806
307.11        41.34479
307.57        42.73441
308.02        44.06668
308.47        45.37469
308.93        46.66593
309.38        47.95198
309.83        49.31335
310.29        50.76946
310.74        52.29391
311.19         53.8466
311.65        55.34562
312.10        56.76121
312.55        58.11396
313.00        59.47244
313.46        60.95243
313.91        62.56125
314.36        64.25082
314.82        65.88945
315.27        67.27212
315.72        68.32592
316.18        69.12072
316.63        69.75613
317.08         70.4465
317.53        71.26251
317.99        72.15478
318.44        73.06682
318.89        73.88348
319.35         74.5659
319.80        75.17062
320.25        75.72647
320.70        76.27595
321.16        76.83234
321.61        77.39134
322.06        77.96838
322.51        78.60787
322.97        79.28767
323.42        80.01543
323.87        80.70905
324.32        81.24976
324.78        81.59801
325.23        81.81705
325.68         81.9452
326.13        82.07076
326.59        82.22033
327.04        82.41663
327.49        82.67887
327.94        83.05479
328.39        83.54327
328.85        84.10218
329.30        84.71952
329.75        85.24179
330.20        85.62429
330.66        85.86776
331.11        86.05453
331.56        86.22841
332.01        86.42914
332.46        86.65226
332.92        86.90047
333.37        87.26963
333.82        87.75112
334.27        88.34706
334.72        89.02744
335.17        89.72483
335.63        90.37259
336.08        90.99744
336.53        91.56623
336.98        92.09297
337.43        92.58797
337.88        93.05865
338.34        93.44762
338.79        93.73678
339.24        93.90413
339.69        93.96754
340.14         94.0691
340.59        94.42667
341.05        95.06408
341.50        95.93295
341.95        96.81642
342.40        97.35789
342.85        97.48906
343.30         97.3391
343.75        97.14544
344.20        97.28127
344.66        97.83436
345.11        98.66909
345.56        99.63963
346.01         100.491
346.46        101.1172
346.91        101.5974
347.36        101.9333
347.81        102.1288
348.26        102.2209
348.72         102.216
349.17        102.1924
349.62         102.349
350.07        102.7053
350.52        103.1846
350.97        103.6651
351.42        103.9304
351.87        103.9269
352.32         103.757
352.77        103.4254
353.22        102.9455
353.67        102.3664
354.13        101.7031
354.58        101.1209
355.03        100.9776
355.48        101.3103
355.93        102.0406
356.38        102.7896
356.83         102.913
357.28        102.2806
357.73        101.0968
358.18        99.83424
358.63        99.19846
359.08        99.32009
359.53        99.96484
359.98         100.724
360.43        100.9172
360.88        100.3607
361.33        99.29602
361.78        98.05193
362.23        97.08965
362.68        96.53103
363.13         96.2289
363.58        96.00826
364.03        95.61401
364.48        94.96634
364.93        94.13984
365.38        93.28517
365.83        92.60677
366.28        92.14101
366.73        91.83616
367.18        91.46954
367.63        90.70088
368.08        89.50827
368.53        88.03985
368.98        86.65872
369.43         85.8851
369.88        85.80032
370.33        86.23428
370.78        86.82752
371.23        86.94689
371.68        86.40615
372.13        85.40887
372.58        84.24893
373.03        83.36797
373.48        82.88153
373.93        82.63406
374.38        82.50294
374.83        82.30263
375.28        81.96517
375.72        81.56052
376.17        81.12625
376.62        80.65012
377.07        80.14592
377.52        79.59936
377.97        79.05947
378.42        78.61987
378.87         78.2942
379.32        78.05669
379.77        77.84568
380.22        77.55542
380.67        77.16621
381.11        76.72827
381.56        76.27543
382.01        75.88451
382.46        75.58601
382.91        75.34667
383.36        75.18012
383.81        75.10865
384.26        75.11035
384.71        75.16856
385.15        75.17665
385.60        75.01226
386.05        74.64658
386.50        74.13576
386.95        73.58767
387.40        73.17899
387.85        72.95088
388.29        72.79478
388.74        72.74214
389.19        72.66577
389.64        72.53291
390.09        72.36803
390.54        72.14793
390.98        71.84118
391.43        71.50953
391.88        71.09152
392.33        70.66026
392.78        70.48135
393.23        70.50222
393.67        70.28884
394.12        69.92542
394.57        69.85024
395.02        69.95657
395.47        69.59499
395.91        68.91415
396.36        68.65097
396.81        68.86524
397.26        69.20103
397.71        69.42677
398.15        69.39085
398.60        69.10458
399.05        68.33915
399.50        67.45592
399.95        67.38273
400.39         68.0534
400.84        68.44267
401.29        68.37489
401.74        68.32137
402.18         68.2354
402.63        67.73249
403.08        67.00154
403.53        66.52619
403.97           66.38
404.42        66.43806
404.87        66.58538
405.32        66.65571
405.76        66.59245
406.21        66.46788
406.66        66.33732
407.11        66.31879
407.55        66.45157
408.00        66.56982
408.45        66.61401
408.90        66.69304
409.34        66.67551
409.79        66.14474
410.24        65.31856
410.68        64.92393
411.13        65.04101
411.58        65.30515
412.03        65.60475
412.47        65.88523
412.92        66.04723
413.37        66.12024
413.81        66.10284
414.26        66.04758
414.71         65.9596
415.15        65.84295
415.60        65.70937
416.05        65.64079
416.49        65.66109
416.94        65.75079
417.39        65.88866
417.83        66.01752
418.28        66.12321
418.73        66.22665
419.17        66.31297
419.62        66.36412
420.07        66.37117
420.51        66.31565
420.96        66.28861
421.41        66.30657
421.85        66.35418
422.30        66.62519
422.74        66.97069
423.19        66.89445
423.64        66.50471
424.08        66.63293
424.53        67.23101
424.98          67.466
425.42         67.2573
425.87        67.39009
426.31        67.78802
426.76        67.25973
427.21        66.21731
427.65        66.71001
428.10        68.36092
428.54        68.97229
428.99        68.46503
429.44        67.58866
429.88        66.78478
430.33        67.29517
430.77        68.62998
431.22        68.67901
431.66         67.5266
432.11         66.9345
432.56        67.06538
433.00        67.49538
433.45        68.10211
433.89        68.42805
434.34        67.35091
434.78        69.58085
435.23        69.23617
435.67        69.26865
436.12        68.39015
436.57        68.76807
437.01        70.16833
437.46        70.98612
437.90        70.28856
438.35        70.01451
438.79        70.00987
439.24        69.75843
439.68         69.3872
440.13        69.53613
440.57        70.13139
441.02        70.47536
441.46        70.48413
441.91        70.71598
442.35        71.01032
442.80        70.94659
443.24        70.64359
443.69        70.54464
444.13        70.67857
444.58        70.75817
445.02        70.76936
445.47        70.91001
445.91        71.17281
446.36        71.46568
446.80        71.75638
447.24        72.07199
447.69        72.34485
448.13         72.4527
448.58        72.39904
449.02        72.19291
449.47         71.9666
449.91        71.88889
450.36        72.01324
450.80         72.2614
451.25        72.53209
451.69         72.6175
452.13        72.47945
452.58         72.1962
453.02        71.85248
453.47        71.57547
453.91        71.38535
454.36        71.33646
454.80        71.39845
455.24        71.07846
455.69        71.04735
456.13        70.82956
456.58        70.72452
457.02        70.42973
457.46        70.31889
457.91          70.675
458.35        71.34253
458.79        71.45045
459.24        70.94792
459.68        70.42416
460.13        70.16151
460.57        69.12039
461.01        69.35106
461.46        69.24728
461.90        69.38802
462.34        69.35897
462.79        68.69962
463.23        69.00842
463.68        69.86378
464.12        70.10906
464.56        69.68044
465.01        69.17255
465.45        68.72865
465.89        68.77171
466.34        69.15075
466.78        69.10018
467.22        68.38761
467.67         68.2644
468.11        68.41754
468.55        68.55373
468.99        68.52684
469.44        68.49849
469.88        68.46718
470.32        68.37949
470.77        68.27174
471.21         68.2233
471.65        68.23453
472.10        68.29852
472.54        68.36288
472.98        68.35647
473.42        68.26124
473.87        68.17136
474.31         68.0677
474.75         67.8558
475.20        67.61347
475.64        67.61569
476.08        67.81209
476.52        67.80228
476.97        67.53252
477.41        67.55624
477.85        67.15812
478.29        67.27605
478.74        67.20263
479.18        67.39392
479.62        66.96494
480.06        66.95007
480.50        67.13993
480.95        66.49445
481.39        67.34941
481.83        66.20267
482.27        66.76389
482.72        66.59044
483.16        66.59966
483.60        66.73686
484.04        66.93281
484.48        67.05696
484.93        67.35593
485.37        67.71354
485.81        67.50844
486.25        68.66148
486.69        68.60526
487.14        66.42626
487.58        65.22523
488.02        67.03367
488.46        66.58385
488.90        65.86096
489.34        67.08674
489.79        66.14136
490.23        66.38425
490.67        66.03503
491.11         65.9144
491.55        66.15121
491.99        66.60743
492.43        66.80814
492.88        66.67176
493.32        66.53011
493.76        66.43287
494.20        66.35116
494.64        66.29366
495.08        66.23943
495.52        66.24032
495.96         66.2709
496.41        66.27228
496.85        66.64648
497.29        66.79175
497.73        66.26105
498.17        65.70648
498.61        65.33109
499.05        65.42185
499.49        65.70164
499.93        66.02912
500.37        66.08646
500.82        65.89763
501.26         65.9254
501.70        66.17806
502.14         66.2982
502.58        66.23566
503.02        66.17199
503.46        66.12596
503.90        65.79041
504.34         65.6976
504.78        65.64056
505.22        65.77642
505.66        66.06125
506.10        66.36568
506.54        66.45821
506.98        66.28916
507.42        65.94185
507.86        65.56458
508.30        65.38686
508.74        65.46156
509.18        65.70969
509.62        66.02205
510.06        66.21982
510.50        66.24422
510.94        66.15278
511.38        65.99227
511.82         65.8377
512.26        65.72295
512.70        65.61063
513.14        65.50277
513.58        65.44294
514.02        65.43769
514.46        65.35119
514.90        65.40749
515.34        65.37346
515.78        65.31437
516.22        65.23633
516.66         65.1599
517.10        65.11312
517.54        65.10282
517.98        65.12238
518.42        65.16506
518.86        65.21963
519.30        65.27944
519.74        65.34422
520.18        65.40786
520.62        65.46355
521.06        65.50483
521.50        65.52347
521.93        65.52219
522.37        65.49788
522.81        65.45831
523.25        65.41508
523.69        65.35471
524.13        65.25335
524.57        65.11877
525.01        64.96423
525.45        64.84743
525.89        64.85698
526.32        64.99982
526.76        65.23823
527.20        65.48989
527.64        65.62489
528.08        65.60892
528.52        65.48656
528.96        65.30575
529.40        65.14382
529.83        65.02521
530.27        64.94528
530.71        64.91037
531.15        64.94505
531.59        65.04653
532.03        65.20737
532.46        65.37512
532.90        65.48297
533.34        65.51074
533.78        65.42079
534.22        65.26042
534.66        65.22028
535.09        65.25724
535.53        65.11913
535.97        64.82877
536.41        64.65617
536.85        64.61839
537.28        64.57062
537.72        64.51876
538.16        64.52864
538.60        64.59326
539.04        64.68951
539.47        64.77533
539.91        64.82327
540.35        64.80796
540.79         64.7647
541.22        64.71986
541.66        64.62601
542.10        64.65959
542.54        64.67635
542.97        64.70308
543.41        64.73744
543.85        64.76234
544.29        64.78335
544.72         64.7935
545.16        64.81043
545.60        64.82215
546.04        64.83555
546.47        64.84534
546.91        64.82021
547.35        64.78518
547.79        64.80311
548.22        64.81894
548.66         64.8204
549.10        64.80229
549.53        64.50458
549.97        64.53098
550.41        64.50923
550.84        64.61476
551.28         64.8298
551.72        65.07967
552.15        65.17617
552.59        65.12408
553.03        65.05991
553.46        64.99654
553.90         64.9903
554.34        65.05628
554.77        65.06709
555.21        64.96001
555.65        65.34863
556.08        64.98885
556.52         64.9209
556.96        64.79332
557.39        64.69453
557.83        64.66105
558.27        64.59597
558.70        64.49718
559.14         64.7052
559.57        64.63931
560.01        64.76553
560.45        64.85396
560.88        64.91254
561.32        64.96243
561.75        64.74908
562.19        64.43079
562.63        64.59641
563.06        65.10458
563.50        64.99394
563.93         64.3656
564.37        64.22388
564.80        64.54813
565.24        64.77157
565.68        64.81135
566.11        64.82604
566.55        64.84377
566.98         64.7753
567.42        64.70233
567.85        64.79977
568.29        65.03555
568.72        65.06169
569.16        64.99728
569.60        65.07101
570.03        65.16045
570.47        65.49014
570.90        65.62861
571.34        64.99291
571.77        65.49092
572.21        65.65299
572.64        65.75967
573.08         65.5873
573.51        65.63783
573.95        65.70934
574.38        65.62497
574.82         65.4522
575.25        66.21603
575.69        66.24267
576.12        65.95682
576.56        65.72164
576.99        65.67498
577.42        65.90956
577.86        65.96854
578.29        65.87363
578.73         66.9763
579.16        65.75312
579.60        65.13125
580.03        64.86235
580.47         65.7068
580.90        65.20016
581.33        66.25429
581.77        66.27396
582.20        66.56004
582.64         66.6204
583.07        66.38945
583.51        65.80463
583.94         65.1433
584.37        65.16306
584.81        65.91506
585.24        66.10564
585.68        66.05013
586.11        65.92535
586.54        65.83432
586.98         64.9699
587.41        64.84345
587.85        65.68713
588.28        65.83642
588.71        64.51501
589.15        65.57021
589.58         64.6022
590.01        64.76841
590.45        64.76612
590.88        65.08896
591.31        65.13371
591.75        64.87871
592.18        64.56374
592.61        64.35991
593.05        64.82764
593.48        65.09116
593.91        65.79053
594.35        65.06093
594.78        64.73444
595.21        64.58624
595.65         65.1478
596.08        65.30322
596.51        65.05415
596.94        64.60982
597.38        64.38906
597.81        64.61378
598.24        64.58247
598.68        64.89973
599.11        64.69677
599.54         65.3042
599.97        65.49925
600.41        64.99143
600.84        65.29324
601.27        65.16564
601.70        65.63831
602.14        65.81384
602.57        65.35712
603.00        64.79482
603.43        64.47243
603.87        64.93769
604.30        65.36227
604.73        64.85171
605.16        64.67516
605.60        64.56843
606.03        64.89253
606.46        65.37651
606.89        65.21905
607.32         64.6457
607.76        64.40635
608.19        64.62257
608.62        65.13016
609.05        64.94235
609.48        65.33571
609.92         64.6776
610.35        64.47927
610.78        65.29965
611.21        65.84731
611.64        65.24658
612.07        65.31653
612.50        65.80043
612.94        65.28394
613.37        64.87001
613.80        65.25007
614.23         64.5424
614.66        64.91373
615.09        64.68387
615.52        64.86144
615.96        65.00255
616.39        65.20208
616.82        64.93385
617.25        64.82313
617.68        65.09061
618.11         65.0731
618.54        64.85529
618.97        64.54636
619.40        64.31837
619.84        64.18703
620.27        64.14001
620.70        64.73337
621.13        65.82404
621.56        64.66575
621.99        63.99741
622.42        64.34219
622.85        64.51115
623.28        64.75128
623.71        64.20431
624.14        64.80976
624.57        64.86937
625.00        65.06881
625.43        64.91129
625.86        64.70868
626.29        64.54201
626.72        64.07378
627.15        64.09384
627.58        63.97113
628.01        63.91766
628.44        63.89647
628.87        63.89523
629.30         63.9225
629.73        63.97387
630.16        64.03925
630.59        64.10516
631.02        64.16638
631.45         64.2086
631.88         64.2119
632.31        64.17413
632.74        64.10398
633.17        64.02051
633.60        63.95416
634.03        63.91618
634.46        63.90063
634.89        63.90394
635.32        63.91837
635.75         63.9361
636.18        63.95503
636.61        63.96441
637.04        63.95042
637.47        63.91625
637.89        63.85869
638.32        63.76297
638.75        63.68531
639.18        63.64289
639.61        63.40784
640.04        63.49459
640.47        63.33231
640.90        63.44268
641.33        63.50479
641.76        63.58391
642.18        63.59386
642.61          63.656
643.04        63.52757
643.47        63.22361
643.90        63.60879
644.33        63.32783
644.76        63.36848
645.18        63.35821
645.61        63.59611
646.04        63.97011
646.47         63.9714
646.90        63.65838
647.33        63.55549
647.75        63.69071
648.18        63.74652
648.61        63.72276
649.04        63.72477
649.47        63.73307
649.89        63.83957
650.32         63.9776
650.75        63.76135
651.18        63.33323
651.61         63.4666
652.03        64.08399
652.46        64.18829
652.89        63.76547
653.32        63.62359
653.74        63.91436
654.17        63.65898
654.60        63.74657
655.03         64.1134
655.46        63.06532
655.88        63.91226
656.31        71.58547
656.74         71.1065
657.16        65.98798
657.59        64.02837
658.02        64.09651
658.45        64.29538
658.87        64.13219
659.30        63.25199
659.73        63.55245
660.15        64.68435
660.58        63.62383
661.01        63.47275
661.44        63.28775
661.86         63.3834
662.29        63.67839
662.72         63.9788
663.14        64.20766
663.57        64.17643
664.00        63.95879
664.42         63.8563
664.85        63.89998
665.27        63.86665
665.70        63.76611
666.13        63.73153
666.55        63.77539
666.98        63.84291
667.41        63.92284
667.83        64.00246
668.26        64.05679
668.69         64.0938
669.11        64.11229
669.54        64.13321
669.96        64.15177
670.39        64.10242
670.82        64.02475
671.24        64.02565
671.67        64.11526
672.09        64.23369
672.52         64.3448
672.94        64.36461
673.37        64.28193
673.80        64.11681
674.22        63.93417
674.65        63.81056
675.07        63.78949
675.50         63.8371
675.92        63.91536
676.35        63.96173
676.77         63.9635
677.20         63.9079
677.62        63.83547
678.05        63.86729
678.47        63.98085
678.90        64.00292
679.32         63.9354
679.75        63.94755
680.17        64.03319
680.60         64.0938
681.02        64.12603
681.45        64.13928
681.87        64.13805
682.30        64.15528
682.72        64.18029
683.15         64.0557
683.57        63.84393
684.00        63.80285
684.42         63.9311
684.85        64.02427
685.27        64.05628
685.70        64.15276
686.12        64.27812
686.54        64.33028
686.97        64.29098
687.39        64.24804
687.82        64.16669
688.24        64.00125
688.66        63.59394
689.09        63.55944
689.51        63.82644
689.94        63.98638
690.36        64.01991
690.78        64.19652
691.21        64.50394
691.63        64.67949
692.06        64.76284
692.48        65.08099
692.90        65.52261
693.33        65.64237
693.75        65.40782
694.17        64.97716
694.60        64.53296
695.02        64.31674
695.44        64.32272
695.87        64.45901
696.29        64.61785
696.71        64.33599
697.14        63.82082
697.56        64.10076
697.98        65.00984
698.41         65.3728
698.83         65.1154
699.25        64.89253
699.68         64.7835
700.10        64.68821
700.52        64.63883
700.94        64.62099
701.37        64.63549
701.79        64.80085
702.21        65.03598
702.64        65.15645
703.06        65.15381
703.48        65.08492
703.90         64.9374
704.33        65.08491
704.75        64.74348
705.17        64.70238
705.59        64.73835
706.01        64.82722
706.44        64.95351
706.86        65.11742
707.28        65.29079
707.70        65.49995
708.12        65.68562
708.55        65.66858
708.97        65.46931
709.39        65.29541
709.81        65.19759
710.23        65.11331
710.66        65.06532
711.08        65.14146
711.50        65.28343
711.92        65.36105
712.34        65.35114
712.76        65.29378
713.19        65.21213
713.61        65.19193
714.03        65.23212
714.45        65.30276
714.87        65.38996
715.29        65.47543
715.71        65.55173
716.13         65.6337
716.56        65.68281
716.98        65.71764
717.40        65.70791
717.82        65.64662
718.24        65.59052
718.66        65.62746
719.08        65.76403
719.50        65.99313
719.92        66.20531
720.34        66.17042
720.76        65.88271
721.19         65.5224
721.61        65.19884
722.03        64.97438
722.45        64.90101
722.87        65.00629
723.29        65.22388
723.71        65.40659
724.13        65.50752
724.55        65.55201
724.97        65.58962
725.39        65.70132
725.81        65.89502
726.23        66.13356
726.65        66.31541
727.07        66.28799
727.49        66.03388
727.91        65.61764
728.33        65.18572
728.75        64.96585
729.17        65.01201
729.59          65.255
730.01        65.58347
730.43        65.80002
730.85        65.84216
731.27        65.78008
731.69        65.65869
732.10        65.54617
732.52        65.47513
732.94        65.41072
733.36         65.3884
733.78        65.45388
734.20        65.59573
734.62        65.86668
735.04        66.18021
735.46        66.19475
735.88         65.9797
736.30        66.04119
736.72        66.30409
737.13        66.28521
737.55        65.95159
737.97        65.49268
738.39        65.10454
738.81        65.23262
739.23        65.81477
739.65        66.13767
740.06        66.16102
740.48        66.24707
740.90        66.37305
741.32        66.25133
741.74        65.93723
742.16        65.71124
742.57        65.62809
742.99        65.62827
743.41        65.71271
743.83        65.79144
744.25        65.88316
744.67        66.18959
745.08        66.60883
745.50        66.71222
745.92        66.46532
746.34        66.04594
746.75        65.59583
747.17        65.30152
747.59        65.20356
748.01        65.31637
748.42         65.5549
748.84        65.59921
749.26        65.48009
749.68        65.55347
750.09        65.78643
750.51        65.90575
750.93        65.87786
751.35        65.78212
751.76        65.68303
752.18        65.68282
752.60        65.80663
753.01        66.01451
753.43        66.22206
753.85        66.35545
754.27         66.3918
754.68        66.35213
755.10        66.30203
755.52        66.34303
755.93        66.48114
756.35        66.66902
756.77         66.8541
757.18        66.89787
757.60        66.78528
758.02        66.72473
758.43        66.67831
758.85        66.32556
759.26        65.83383
759.68        65.87796
760.10        66.41954
760.51        66.80878
760.93        66.89728
761.34        66.80704
761.76        66.87052
762.18        66.47295
762.59        65.94153
763.01        66.03922
763.42        66.73395
763.84        67.02617
764.26        66.85563
764.67        66.72482
765.09        66.70789
765.50        66.67133
765.92        66.60562
766.33        66.32436
766.75        65.86951
767.16        65.75476
767.58         65.9954
768.00        66.31445
768.41        66.68819
768.83        67.20702
769.24        67.75671
769.66        68.14571
770.07        68.28878
770.49        68.03536
770.90        67.53059
771.32        67.32682
771.73        67.43929
772.15        67.34603
772.56        67.06371
772.97        66.96943
773.39        67.03693
773.80        67.07416
774.22        67.03062
774.63        67.00101
775.05        66.99106
775.46        67.07822
775.88        67.24182
776.29        67.47358
776.70        67.69207
777.12        67.79508
777.53        67.77118
777.95        67.62785
778.36         67.4446
778.77        67.29888
779.19        67.21857
779.60        67.27429
780.02        67.40082
780.43         67.2942
780.84        67.04951
781.26        67.12316
781.67        67.47044
782.09        67.71255
782.50        67.73508
782.91        67.42439
783.33        66.95466
783.74        66.88379
784.15        67.28205
784.57        67.80788
784.98        68.36047
785.39        68.86502
785.81        69.24412
786.22        69.29128
786.63        69.41557
787.04        69.31755
787.46        69.17404
787.87        68.93692
788.28        68.70886
788.70        68.62064
789.11        68.66995
789.52        68.84814
789.93        69.06462
790.35        69.15504
790.76        69.10127
791.17        68.93541
791.58        68.72181
792.00        68.57712
792.41        68.55025
792.82        68.52012
793.23        68.47369
793.65        68.62211
794.06        68.86558
794.47        68.68531
794.88        68.23428
795.29        68.15363
795.71        68.41299
796.12        68.76805
796.53        69.08363
796.94        69.26572
797.35        69.23685
797.76          69.037
798.18        68.77351
798.59         68.5778
799.00        68.50667
799.41        68.51949
799.82        68.60485
800.23        68.74258
800.64        68.91144
801.06        69.10076
801.47        69.29668
801.88        69.37231
802.29        69.30684
802.70        69.12723
803.11        68.91232
803.52        68.79918
803.93        68.83075
804.34        68.96313
804.75        69.15455
805.17        69.36425
805.58        69.60339
805.99         69.7094
806.40        69.67206
806.81        69.83781
807.22        70.04677
807.63        69.49562
808.04        68.42311
808.45        67.97557
808.86        68.28024
809.27        68.75513
809.68         69.2252
810.09        69.61948
810.50         69.8386
810.91        69.91063
811.32        69.85239
811.73        69.69829
812.14        69.48696
812.55        69.20244
812.96        68.96067
813.37        68.96498
813.78        69.24935
814.19        69.75845
814.60        70.31826
815.01        70.65165
815.42        70.69132
815.83        70.50377
816.24         70.2002
816.65         70.0058
817.05        70.00574
817.46        70.10245
817.87        70.24557
818.28        70.32209
818.69         70.2946
819.10        70.20178
819.51        70.06866
819.92         69.9344
820.33         69.8194
820.74        69.71035
821.14        69.58974
821.55        69.45742
821.96         69.3081
822.37        69.17841
822.78        69.09744
823.19        69.10543
823.60         69.2236
824.00        69.45187
824.41         69.7653
824.82        70.23141
825.23        70.81662
825.64        71.45447
826.04        72.03952
826.45        72.32852
826.86        72.28882
827.27         71.9992
827.68          71.504
828.08        70.90761
828.49        70.25727
828.90        69.56184
829.31        69.00548
829.72        68.86026
830.12        69.19936
830.53        69.93628
830.94        70.77567
831.35        71.12048
831.75        70.83145
832.16        70.02853
832.57        69.14774
832.97        68.86008
833.38         69.2923
833.79        70.22164
834.20        71.28233
834.60        71.85112
835.01        71.71758
835.42        71.12238
835.82         70.3056
836.23        69.62203
836.64        69.20816
837.04        68.96746
837.45        68.87982
837.86          68.982
838.26         69.2591
838.67        69.68371
839.08        70.14981
839.48        70.43495
839.89        70.47005
840.29        70.30527
840.70        70.04486
841.11        69.83752
841.51        69.74968
841.92        69.71194
842.33        69.75295
842.73        69.92298
843.14        70.16955
843.54        70.54514
843.95        70.91291
844.35        71.10814
844.76        71.06229
845.17         70.8095
845.57        70.51662
845.98         70.4445
846.38        70.66309
846.79        71.07819
847.19        71.50024
847.60         71.5231
848.00        71.08387
848.41        70.30499
848.81        69.46853
849.22        68.97491
849.62        68.94228
850.03        69.23831
850.43        69.68565
850.84        69.83234
851.24        69.62885
851.65        69.19017
852.05        68.78915
852.46        68.82361
852.86        69.34265
853.27        70.15067
853.67        71.00596
854.07        71.79521
854.48         72.4053
854.88        72.98283
855.29        73.27508
855.69        73.08887
856.10        72.31261
856.50        71.13625
856.90        69.92933
857.31        69.22834
857.71        69.13863
858.12        69.46765
858.52        70.08021
858.92        70.48611
859.33        70.49003
859.73        70.27886
860.13        69.83875
860.54        69.18382
860.94        68.37975
861.34        67.40474
861.75        66.50565
862.15        66.17063
862.55        66.48363
862.96        67.30163
863.36        68.30276
863.76        68.85566
864.17        68.79226
864.57        68.30425
864.97        67.64112
865.38        67.23455
865.78        67.23923
866.18        67.47776
866.58        67.82863
866.99        68.08647
867.39        68.19424
867.79        68.23937
868.19        68.17353
868.60        67.87283
869.00        67.34297
869.40        66.60703
869.80         65.9194
870.21        65.76083
870.61        66.27847
871.01        67.25051
871.41        68.27316
871.81        68.73219
872.22        68.48557
872.62        67.73766
873.02        66.74857
873.42        65.95721
873.82        65.54275
874.22         65.3981
874.63        65.49008
875.03        65.75844
875.43        66.15485
875.83        66.70434
876.23        67.33652
876.63        67.92517
877.03        68.41273
877.44        68.75578
877.84        68.97939
878.24        69.10356
878.64        69.13023
879.04        69.05531
879.44        68.86199
879.84        68.52354
880.24        68.06479
880.64        67.53586
881.04        67.03673
881.44        66.70529
881.84        66.58303
882.24        66.64286
882.65         66.7986
883.05         66.9866
883.45        67.12001
883.85        67.21552
884.25        67.30032
884.65        67.42279
885.05        67.60258
885.45        67.82629
885.85        68.05289
886.25        68.22385
886.65        68.31279
887.05        68.30936
887.45        68.29352
887.85        68.39188
888.25        68.61665
888.65        68.93602
889.04        69.17211
889.44        69.01701
889.84        68.44966
890.24        67.58419
890.64         66.7095
891.04         66.2338
891.44        66.24239
891.84        66.64129
892.24        67.16582
892.64        67.35606
893.04         67.1021
893.44        66.54555
893.83        65.99306
894.23        65.92654
894.63        66.41554
895.03        67.29726
895.43        68.24414
895.83        68.67206
896.23        68.41865
896.63         67.7002
897.02        66.80097
897.42        66.23218
897.82        66.06626
898.22        66.22066
898.62        66.54896
899.01        66.82985
899.41        66.94299
899.81        66.96931
900.21        67.11514
900.61        67.71295
901.00        68.77863
901.40        70.12077
901.80        71.32198
902.20        71.76734
902.59        71.34611
902.99        70.26653
903.39         68.9288
903.79        67.99046
904.18        67.64005
904.58        67.70988
904.98        67.99289
905.38        68.16798
905.77        68.12856
906.17        68.02419
906.57        67.85239
906.96        67.60535
907.36        67.29668
907.76         66.9122
908.15        66.61249
908.55        66.63242
908.95        67.02315
909.34        67.72792
909.74        68.48797
910.14        68.94469
910.53        68.99184
910.93        68.72998
911.33        68.34391
911.72        68.13503
912.12        68.20074
912.52        68.42523
912.91        68.67472
913.31         68.7265
913.70        68.53662
914.10        68.21878
914.49        67.86991
914.89        67.60623
915.29        67.47908
915.68        67.43059
916.08        67.50037
916.47         67.7742
916.87        68.22231
917.26        68.80428
917.66        69.32797
918.05        69.49926
918.45        69.26274
918.84        68.73798
919.24        68.11009
919.64        67.79588
920.03        67.93412
920.42        68.37877
920.82        68.97068
921.21        69.49609
921.61        69.84328
922.00        70.07886
922.40        70.16843
922.79        70.11897
923.19        69.93015
923.58        69.60465
923.98        69.17546
924.37        68.63844
924.77        68.05371
925.16         67.4512
925.55        66.94883
925.95        66.70178
926.34        66.77779
926.74        67.09372
927.13        67.65146
927.52        68.34651
927.92         69.0894
928.31        69.88055
928.70        70.55804
929.10        70.90069
929.49        70.87804
929.89        70.52409
930.28        70.00433
930.67        69.57369
931.07        69.30515
931.46         69.1273
931.85        69.01279
932.24        68.90211
932.64        68.77287
933.03        68.73385
933.42        68.64228
933.82        68.27869
934.21        67.63941
934.60        66.75863
934.99        66.03141
935.39        66.04069
935.78        66.91067
936.17        68.52245
936.56        70.25445
936.96        70.94321
937.35        70.32323
937.74        68.70992
938.13        66.94577
938.53        66.18045
938.92        66.58884
939.31        67.86922
939.70        69.40266
940.09        70.05025
940.49        69.49547
940.88        68.16818
941.27        66.66747
941.66        65.86576
942.05        65.98605
942.44        66.74287
942.84        67.81058
943.23        68.67216
943.62        69.05571
944.01        69.15466
944.40        69.05794
944.79        68.89798
945.18        68.74764
945.57        68.51277
945.97        68.28219
946.36        68.32644
946.75        68.64474
947.14        69.20447
947.53        69.77355
947.92        69.91036
948.31           69.52
948.70        68.76366
949.09        67.94112
949.48        67.50137
949.87        67.56813
950.26        68.02317
950.65        68.70432
951.04        69.31976
951.43        69.72915
951.82        69.96378
952.21         70.0919
952.60        70.23752
952.99        70.40392
953.38        70.51764
953.77        70.42838
954.16        69.89641
954.55        68.95148
954.94        67.81351
955.33        66.71366
955.72        65.97489
956.11        65.68324
956.50        65.67506
956.89        66.02177
957.28        66.84084
957.66        68.09729
958.05        69.64573
958.44        70.91276
958.83        70.82371
959.22        69.23363
959.61        66.61462
960.00        63.89133
960.39        62.36495
960.78        62.31939
961.16        63.40281
961.55        65.14043
961.94        66.81418
962.33        68.07787
962.72        69.09731
963.11        69.74253
963.49        69.80761
963.88        69.25926
964.27        68.18639
964.66        66.88987
965.04        65.81332
965.43        65.06326
965.82        64.56569
966.21        64.34434
966.60        64.38906
966.98        64.67569
967.37        65.20829
967.76        65.79146
968.15        66.07191
968.53         65.9603
968.92        65.48502
969.31        64.88857
969.69        64.59496
970.08        64.66599
970.47        65.00356
970.86        65.35207
971.24        65.26563
971.63         64.6031
972.02         63.5901
972.40        62.53966
972.79         61.9288
973.17        61.88941
973.56        62.25745
973.95        62.83749
974.33         63.3486
974.72         63.6381
975.11        63.72904
975.49        63.79464
975.88        64.12727
976.26        64.84162
976.65         65.7917
977.04        66.51479
977.42        66.26102
977.81        64.94619
978.19        62.82508
978.58        60.96433
978.96           60.73
979.35        62.34552
979.74        65.47838
980.12        69.22237
980.51        71.15215
980.89        70.65491
981.28        68.31114
981.66        65.24744
982.05        63.39527
982.43        63.29197
982.82        64.33521
983.20        66.27391
983.59        68.48765
983.97         70.6851
984.35        72.96766
984.74         74.7104
985.12         75.0391
985.51         73.8265
985.89        71.27109
986.28        68.35821
986.66         66.5718
987.04        66.43988
987.43        67.60201
987.81        69.37803
988.20        70.34669
988.58        70.12714
988.96        69.00421
989.35        67.70929
989.73        67.37605
990.12        68.19614
990.50        69.80811
990.88        71.27401
991.27        71.13443
991.65        69.21102
992.03        66.11018
992.42        62.92802
992.80        61.06392
993.18        60.98707
993.56        62.19516
993.95        64.11029
994.33        65.99764
994.71        67.30254
995.10        68.30016
995.48        68.76057
995.86        68.31064
996.24        67.03514
996.63        65.01691
997.01        62.98601
997.39        62.05293
997.77        62.42342
998.15        63.86747
998.54        65.72243
998.92        66.72206
999.30         66.4258
999.68        65.12048
1000.06        63.41312
1000.45        62.33633
1000.83        62.36912
1001.21        63.22984
1001.59        64.33102
1001.97        64.66978
1002.35        63.98003
1002.73        62.55183
1003.12        61.23598
1003.50        61.31837
1003.88        63.01809
1004.26        65.82115
1004.64        68.59282
1005.02        69.70901
1005.40        68.89076
1005.78         66.6467
1006.16        64.01848
1006.54        62.87663
1006.92        63.75658
1007.30        66.01096
1007.69        68.66611
1008.07        70.35686
1008.45        70.54766
1008.83        69.78659
1009.21        68.38308
1009.59        66.82234
1009.97        65.41132
1010.35        63.96486
1010.73        62.95213
1011.11        63.22657
1011.49        65.00539
1011.86        68.40575
1012.24        72.37472
1012.62        75.22318
1013.00        76.27797
1013.38        75.67526
1013.76        74.44763
1014.14        74.70719
1014.52         77.0249
1014.90        80.73112
1015.28        84.30423
1015.66        85.03159
1016.04        82.55393
1016.41        78.37339
1016.79        74.14981
1017.17        71.13681
1017.55        69.28387
1017.93         67.8902
1018.31        66.91138
1018.69        66.56331
1019.06        66.86041
1019.44        67.85155
1019.82        68.56821
1020.20        67.98878
1020.58        66.08648
1020.95        62.75777
1021.33        58.97853
1021.71        57.54358
1022.09        59.85975
1022.46        65.01157
1022.84         70.8502
1023.22        74.51603
1023.60        75.29033
1023.97        74.15273
1024.35        71.45251
1024.73        68.00566
