SpectraSmart Spectrum 2.9.0.0
--------- Device Information -----------
Spectrum Name :  反射率_0
Saving Time :  2024/05/01 16:26:36
Spectro-Module Model Name : SE2030-DUVN
Spectro-Module Serial Number : OS361AC55029948
Wavelength Start : 200
Wavelength End : 1025
Wavelength Unit : Wavelength(nm)
Spectrum Unit : Reflectance(%)
-----------Spectrum Setting ------------
Integration Time : 20ms
Average : 10
Boxcar : 0
Background removal :  enabled
linearity correction :  enabled
SC :  disabled
Intensity correction :  disabled
DWT denoise :  enabled
savitzky-golay :  disabled
FFT :  disabled
Running average :  disabled
Kalman :  disabled
High pass :  disabled
---------------BEGIN--------------------
Wavelength(nm)             Reflectance(%)
200.29               0
200.75        88.92361
201.21        540.5091
201.67       -246.1351
202.13       -77.23754
202.58       -13.03931
203.04        28.91841
203.50        56.05233
203.96        68.41523
204.42        68.89194
204.88        50.79189
205.34       -491.8199
205.80        159.5271
206.26        117.3836
206.72         85.5098
207.18       -24.32331
207.64        263.0239
208.10        153.3958
208.55        124.1321
209.01        107.5493
209.47         95.9197
209.93        86.62411
210.39         76.2604
210.85        66.70786
211.31        61.76051
211.77        66.29691
212.23       -20.07337
212.69        30.21165
213.14        39.85368
213.60        64.81452
214.06       -186.5579
214.52       -10.16244
214.98        3.992417
215.44         11.8231
215.90        24.86851
216.36        190.8984
216.81       -61.66498
217.27       -70.48395
217.73        137.4268
218.19        21.40538
218.65      -0.7720097
219.11       -30.97596
219.57       -117.5304
220.02       -460.6718
220.48       -221.3121
220.94       -40.82078
221.40        5.533947
221.86        21.96269
222.32        28.35902
222.77        31.18434
223.23        32.71344
223.69        33.36932
224.15        33.28542
224.61        32.87302
225.06        31.92594
225.52        31.84019
225.98        33.29834
226.44        36.36007
226.90        41.37912
227.36        47.24851
227.81        48.84379
228.27        44.88449
228.73        39.09677
229.19        34.43002
229.65        32.16209
230.10        31.83187
230.56        33.03052
231.02         35.4666
231.48        37.97162
231.93        39.52478
232.39        40.51193
232.85        41.20363
233.31        42.01695
233.77        43.02307
234.22        44.00345
234.68        44.95938
235.14        46.10762
235.60        47.61789
236.05        49.85592
236.51        52.88244
236.97        55.88308
237.43        57.65269
237.88        57.72804
238.34        56.59385
238.80        56.16647
239.26        57.17102
239.71        60.15744
240.17        64.63087
240.63        66.83041
241.08        63.65564
241.54        57.12268
242.00        52.56168
242.46        54.65394
242.91        65.30638
243.37        87.01843
243.83        122.8948
244.28        147.9443
244.74        136.7274
245.20        112.3956
245.66         92.5136
246.11        80.50454
246.57        72.91055
247.03        65.30322
247.48        55.31426
247.94        43.62994
248.40        34.84877
248.85        32.09964
249.31        36.14918
249.77         42.5206
250.22        48.47065
250.68        53.25478
251.14        57.06452
251.59        61.00967
252.05        66.57355
252.51        76.98911
252.96        100.6371
253.42        141.5074
253.88        151.9987
254.33        124.0545
254.79        102.9904
255.25        93.20587
255.70        88.37827
256.16        86.00819
256.62        84.37209
257.07        82.54295
257.53        81.22597
257.99           80.23
258.44        79.26969
258.90         78.7123
259.35        78.02878
259.81        77.42611
260.27        76.75549
260.72         75.9771
261.18        75.38235
261.63        74.60118
262.09        73.75018
262.55        72.42952
263.00        70.57663
263.46        68.56952
263.91        66.47757
264.37        64.80488
264.83        63.50589
265.28        62.44398
265.74        61.51125
266.19        60.23766
266.65        58.71331
267.11        56.99845
267.56         55.4287
268.02        54.62755
268.47        54.62411
268.93        55.16367
269.38        55.76994
269.84        55.63821
270.30        54.59658
270.75        52.88573
271.21        50.92624
271.66        49.22021
272.12        47.98332
272.57        46.99051
273.03        46.16771
273.48        45.33273
273.94        44.47107
274.39        43.64071
274.85        42.86356
275.31        42.05463
275.76        41.19953
276.22        40.36524
276.67         39.5579
277.13        38.93452
277.58        38.42788
278.04        38.02311
278.49        37.61323
278.95        37.17739
279.40        36.64293
279.86        36.08514
280.31        35.44189
280.77        34.74191
281.22        33.95394
281.68        33.16388
282.13        32.38301
282.59        31.72724
283.04        31.18402
283.50        30.78277
283.95        30.48827
284.41        30.30601
284.86        30.20613
285.32        30.19456
285.77        30.25764
286.22        30.42978
286.68        30.69634
287.13        31.00412
287.59        31.27792
288.04        31.35303
288.50        31.23744
288.95        30.95859
289.41        30.66368
289.86        30.47187
290.32        30.45775
290.77        30.57937
291.22         30.8109
291.68        31.09555
292.13        31.41466
292.59        31.82527
293.04        32.33943
293.50        33.02353
293.95        33.86726
294.40        34.85447
294.86        35.94842
295.31        37.10215
295.77        38.29122
296.22        39.50963
296.68        40.76586
297.13         42.0568
297.58        43.40923
298.04        44.84621
298.49        46.35458
298.95        47.95105
299.40        49.59586
299.85         51.2663
300.31         52.9986
300.76        54.83635
301.21        56.80071
301.67        58.89092
302.12          60.952
302.58        62.76798
303.03        64.25155
303.48        65.49516
303.94        66.74979
304.39        68.28333
304.84        70.21291
305.30         72.4371
305.75        74.75237
306.20        76.86989
306.66        78.70407
307.11         80.2859
307.57        81.73306
308.02        83.10768
308.47        84.48469
308.93        85.83501
309.38        87.11534
309.83        88.36021
310.29        89.58573
310.74        90.78589
311.19        91.94242
311.65        92.99494
312.10        93.91251
312.55        94.70683
313.00        95.47719
313.46        96.38564
313.91        97.44018
314.36        98.58968
314.82        99.63374
315.27        100.2643
315.72        100.4111
316.18        100.2167
316.63         99.8852
317.08        99.79788
317.53        100.0548
317.99        100.5528
318.44        101.1613
318.89        101.6322
319.35        101.8932
319.80         102.051
320.25        102.1744
320.70        102.3736
321.16          102.67
321.61        103.0156
322.06        103.4176
322.51        103.9194
322.97        104.4765
323.42        105.1115
323.87        105.6604
324.32        105.8766
324.78        105.7102
325.23        105.2782
325.68        104.7641
326.13        104.4932
326.59        104.5437
327.04        104.8853
327.49        105.3951
327.94        105.8807
328.39        106.2595
328.85         106.532
329.30        106.8044
329.75        107.0935
330.20        107.4141
330.66        107.7185
331.11        107.9975
331.56        108.1193
332.01        108.0877
332.46        107.9518
332.92        107.8696
333.37        108.2066
333.82        109.0069
334.27        110.1998
334.72        111.5387
335.17        112.5782
335.63        113.1405
336.08        113.3689
336.53        113.4485
336.98         113.766
337.43        114.4286
337.88        115.3201
338.34         116.209
338.79        116.8049
339.24        116.9863
339.69        116.8703
340.14        116.6843
340.59        116.7713
341.05        117.2132
341.50        117.9312
341.95        118.7153
342.40        119.2289
342.85        119.3987
343.30        119.3473
343.75         119.299
344.20        119.5978
344.66        120.3052
345.11        121.2791
345.56        122.3242
346.01        123.1122
346.46         123.539
346.91        123.7287
347.36        123.7612
347.81        123.7563
348.26         123.784
348.72        123.8149
349.17        123.9089
349.62        124.2389
350.07        124.7869
350.52        125.4602
350.97        126.0738
351.42        126.3109
351.87         126.106
352.32        125.6113
352.77         124.878
353.22        123.9952
353.67        123.0548
354.13        122.0629
354.58        121.2453
355.03        121.0634
355.48         121.552
355.93         122.601
356.38        123.6815
356.83        123.8933
357.28        123.0496
357.73        121.4323
358.18        119.6746
358.63        118.7277
359.08        118.7733
359.53        119.4944
359.98        120.3767
360.43        120.5671
360.88        119.8273
361.33        118.4624
361.78        116.8578
362.23        115.5447
362.68        114.6728
363.13        114.0798
363.58        113.5806
364.03        112.9131
364.48        112.0023
364.93        110.9302
365.38        109.8842
365.83        109.1171
366.28        108.6585
366.73        108.4289
367.18        108.1215
367.63        107.2646
368.08        105.8128
368.53        103.9622
368.98        102.1611
369.43        101.0545
369.88        100.7544
370.33        101.0532
370.78        101.5592
371.23        101.5832
371.68        100.9202
372.13        99.79996
372.58        98.51305
373.03        97.48989
373.48        96.84081
373.93        96.39559
374.38         96.0563
374.83        95.68723
375.28        95.23046
375.72        94.74717
376.17        94.22197
376.62        93.54972
377.07        92.73395
377.52        91.79119
377.97        90.86754
378.42        90.20503
378.87        89.84606
379.32        89.72162
379.77        89.65314
380.22        89.35637
380.67        88.77208
381.11        87.99609
381.56        87.18551
382.01         86.6227
382.46        86.38293
382.91        86.36646
383.36          86.434
383.81        86.37577
384.26        86.12353
384.71        85.73618
385.15        85.26429
385.60        84.83617
386.05        84.47303
386.50        84.14191
386.95        83.80119
387.40         83.4015
387.85        82.94037
388.29        82.39657
388.74        81.92634
389.19        81.55405
389.64        81.28243
390.09         81.0751
390.54        80.86024
390.98        80.54096
391.43        80.16453
391.88         79.6715
392.33        79.14088
392.78        78.90612
393.23        78.88652
393.67        78.49057
394.12        77.87719
394.57        77.71753
395.02        77.91063
395.47        77.66298
395.91        77.05441
396.36        76.78751
396.81        76.89262
397.26        77.02728
397.71        77.05201
398.15        76.87288
398.60        76.55165
399.05        76.03114
399.50        75.49434
399.95        75.31633
400.39        75.48667
400.84        75.58421
401.29        75.51348
401.74        75.37849
402.18        75.15196
402.63        74.71078
403.08        74.16895
403.53        73.74818
403.97         73.4816
404.42        73.31767
404.87        73.22974
405.32        73.14601
405.76        73.02737
406.21        73.03589
406.66        73.11398
407.11        72.88304
407.55        72.48982
408.00        72.57756
408.45         73.0585
408.90        73.18945
409.34        72.86483
409.79        72.38247
410.24        71.90214
410.68        71.62314
411.13        71.60164
411.58        71.70998
412.03         71.8567
412.47        71.94237
412.92        71.89584
413.37        71.77175
413.81        71.59895
414.26        71.47819
414.71        71.41589
415.15        71.39391
415.60        71.39791
416.05        71.46801
416.49        71.59917
416.94          71.768
417.39        71.92438
417.83        71.97275
418.28        71.90012
418.73        71.74429
419.17        71.54266
419.62        71.36421
420.07        71.22677
420.51        71.09441
420.96        71.03953
421.41        71.03072
421.85        71.03405
422.30        71.28538
422.74        71.62952
423.19        71.50314
423.64         71.0511
424.08        71.24794
424.53        72.01025
424.98        72.36344
425.42        72.20529
425.87        72.27178
426.31        72.55918
426.76        72.19572
427.21        71.48682
427.65        71.94669
428.10        73.17989
428.54        73.42529
428.99        72.74217
429.44         71.6693
429.88        70.68449
430.33        71.49754
430.77        73.41939
431.22        73.15399
431.66        71.33817
432.11        70.76542
432.56          71.645
433.00        72.17683
433.45        72.17051
433.89         71.9902
434.34        71.42856
434.78        72.99885
435.23        72.78991
435.67         72.9221
436.12        72.44511
436.57        72.79321
437.01        73.84109
437.46          74.243
437.90        73.94519
438.35        73.77662
438.79         73.7677
439.24        73.45962
439.68        72.97079
440.13        72.97852
440.57        73.46275
441.02        73.71454
441.46        73.62261
441.91        74.19118
442.35        74.29572
442.80        74.35757
443.24        74.31149
443.69        74.24063
444.13        74.22593
444.58        74.20006
445.02        74.12858
445.47        74.20501
445.91        74.46155
446.36        74.52684
446.80        74.29488
447.24        75.38856
447.69        74.98997
448.13         75.2348
448.58        75.30011
449.02        75.25002
449.47        75.13606
449.91        75.04874
450.36        75.05673
450.80        75.09306
451.25        75.13656
451.69        75.10046
452.13        74.97404
452.58        74.79747
453.02        74.63066
453.47        74.50389
453.91         74.3998
454.36        74.50521
454.80        74.78426
455.24        74.20483
455.69        74.25494
456.13        73.88253
456.58        73.67553
457.02        73.34284
457.46        73.23191
457.91        73.76809
458.35        74.67284
458.79        74.83808
459.24         74.1918
459.68        73.43362
460.13        72.93963
460.57        71.84656
461.01        72.33598
461.46        72.48722
461.90        72.60262
462.34        73.39589
462.79        72.46297
463.23        72.50489
463.68        72.77023
464.12        72.76941
464.56        72.49812
465.01        72.38104
465.45        72.35708
465.89        72.36086
466.34        72.35099
466.78        72.14383
467.22        71.79503
467.67        71.70573
468.11        71.71165
468.55        71.81896
468.99        71.90513
469.44        71.94204
469.88         71.9164
470.32        71.83096
470.77        71.72734
471.21        71.69292
471.65        71.72617
472.10        71.80605
472.54        71.86835
472.98        71.82188
473.42        71.64536
473.87        71.48043
474.31        71.31871
474.75         70.9916
475.20        70.62725
475.64        70.72461
476.08        71.17952
476.52        71.29874
476.97        70.98885
477.41        71.19683
477.85        70.54974
478.29        71.07039
478.74        71.12312
479.18        71.56556
479.62         70.6442
480.06        70.57324
480.50        70.94643
480.95        70.33107
481.39         71.1621
481.83        70.19559
482.27        70.39565
482.72        70.63815
483.16          70.334
483.60        70.51043
484.04        70.70567
484.48        70.79642
484.93        71.08634
485.37        71.46105
485.81        71.19808
486.25        72.43436
486.69        72.39966
487.14         69.6407
487.58        68.62353
488.02        71.05034
488.46        70.34975
488.90        69.93941
489.34        71.11026
489.79        70.34857
490.23        70.48433
490.67        70.03913
491.11        69.77528
491.55        69.95431
491.99        70.42838
492.43        70.57639
492.88        70.31578
493.32        70.06397
493.76        69.90405
494.20        69.81982
494.64        69.83416
495.08        69.90112
495.52         70.0176
495.96        70.15736
496.41        70.25558
496.85        70.39577
497.29        70.51082
497.73        70.00514
498.17        69.74903
498.61        69.44782
499.05        69.43604
499.49        69.71918
499.93        70.13987
500.37        70.29147
500.82        70.19987
501.26        70.05825
501.70        70.19776
502.14        70.51984
502.58        70.18853
503.02        70.07965
503.46        69.93955
503.90        69.73943
504.34        69.55322
504.78        69.53503
505.22        69.71048
505.66        70.03153
506.10        70.36507
506.54        70.48082
506.98        70.32915
507.42          69.992
507.86        69.60253
508.30        69.35594
508.74        69.30718
509.18        69.41375
509.62        69.62267
510.06        69.73829
510.50        69.89048
510.94        69.97255
511.38        70.02863
511.82        70.04227
512.26        70.01582
512.70        69.92814
513.14        69.78824
513.58        69.70611
514.02         69.7101
514.46        69.63958
514.90        69.41788
515.34        69.71896
515.78        69.26485
516.22        69.10917
516.66        68.94003
517.10        68.88842
517.54        68.96459
517.98        69.14394
518.42        69.37642
518.86        69.54369
519.30        69.61365
519.74        69.61468
520.18        69.57217
520.62        69.53185
521.06        69.50799
521.50        69.47761
521.93        69.44663
522.37        69.41763
522.81        69.39554
523.25        69.39243
523.69        69.37975
524.13        69.30562
524.57        69.17149
525.01        68.99883
525.45        68.85293
525.89        68.83628
526.32        68.96297
526.76        69.19215
527.20        69.44853
527.64        69.61459
528.08        69.65314
528.52        69.59909
528.96        69.48508
529.40        69.36465
529.83        69.25453
530.27        69.15916
530.71        69.08314
531.15        69.05073
531.59        69.06608
532.03        69.12544
532.46         69.2022
532.90        69.27116
533.34         69.3204
533.78        69.29966
534.22        69.22482
534.66        69.24321
535.09        69.29671
535.53        69.13184
535.97        68.79931
536.41        68.62813
536.85        68.64165
537.28        68.66853
537.72        68.69049
538.16        68.72081
538.60        68.74043
539.04        68.80207
539.47        68.87325
539.91        68.80991
540.35        68.65749
540.79        68.73933
541.22        69.01176
541.66        69.04826
542.10        69.00645
542.54        68.93438
542.97        68.89748
543.41        68.87151
543.85        68.85101
544.29        68.84035
544.72        68.83804
545.16        68.85092
545.60        68.85619
546.04        68.93178
546.47        69.03046
546.91        68.88158
547.35        68.58735
547.79        68.61301
548.22        68.85072
548.66        68.89516
549.10        68.73351
549.53        68.31393
549.97        68.31329
550.41        68.31485
550.84        68.51237
551.28        68.84206
551.72        69.21039
552.15        69.48528
552.59          69.598
553.03        69.54365
553.46        69.21005
553.90        69.10479
554.34        69.21946
554.77         69.2047
555.21        69.01001
555.65        69.49443
556.08        69.26116
556.52        69.15389
556.96        68.85065
557.39        68.53327
557.83        68.53564
558.27        68.58344
558.70        68.69476
559.14        68.91795
559.57        68.66556
560.01        68.89447
560.45        69.27431
560.88        69.21738
561.32        68.84432
561.75        68.51181
562.19        68.38708
562.63        68.68927
563.06        69.24374
563.50        69.18916
563.93        68.60149
564.37        68.48659
564.80        68.80486
565.24        68.88458
565.68        68.70123
566.11         68.6329
566.55         68.7168
566.98        68.70001
567.42        68.65781
567.85        68.84001
568.29         69.1851
568.72        69.28867
569.16        69.24841
569.60        69.21653
570.03        69.13164
570.47        69.37827
570.90        69.63766
571.34        68.85353
571.77        69.22583
572.21        69.08778
572.64        69.23885
573.08        68.85056
573.51        69.27119
573.95        70.00056
574.38        69.09331
574.82        69.34083
575.25        69.69642
575.69        69.75179
576.12        69.53517
576.56        69.07058
576.99        69.71562
577.42        69.71893
577.86        69.92014
578.29        69.90499
578.73        70.68583
579.16        69.42624
579.60        68.86391
580.03        68.72888
580.47         69.5815
580.90        68.65031
581.33        69.72003
581.77        69.59724
582.20        70.34812
582.64        69.86063
583.07        69.66834
583.51        69.20296
583.94        69.11768
584.37        69.43548
584.81        70.06529
585.24        70.06498
585.68        69.42018
586.11        69.66388
586.54        69.55941
586.98        68.94273
587.41        68.60063
587.85        69.72822
588.28        69.81991
588.71          68.536
589.15          69.686
589.58        68.89883
590.01        68.63638
590.45        68.62251
590.88        69.14613
591.31        69.28228
591.75        68.90479
592.18        68.73264
592.61         68.4106
593.05         68.5355
593.48         69.1213
593.91        69.28603
594.35        69.01727
594.78        68.78871
595.21         68.4994
595.65        69.25635
596.08        69.14862
596.51        68.77568
596.94        68.53951
597.38        68.45061
597.81        68.86532
598.24        68.38628
598.68        68.96214
599.11        68.55803
599.54        69.68299
599.97        69.62759
600.41        68.71527
600.84        69.34188
601.27        69.05546
601.70        69.48606
602.14        69.57254
602.57        69.42349
603.00        69.10443
603.43        68.80784
603.87        69.01719
604.30        69.40064
604.73        69.16441
605.16        68.61933
605.60        68.68733
606.03        68.98317
606.46        69.56352
606.89        69.40313
607.32        68.75605
607.76        68.50938
608.19        68.78873
608.62        69.22188
609.05        69.22317
609.48        69.35722
609.92        68.97133
610.35         68.5737
610.78        69.76091
611.21        69.84087
611.64        69.33267
612.07        69.56764
612.50        69.86691
612.94        69.59167
613.37        69.19791
613.80        69.31217
614.23        68.84367
614.66        69.21407
615.09        68.94353
615.52        69.07291
615.96        69.21558
616.39        69.31972
616.82        69.36703
617.25        69.31019
617.68        69.37975
618.11        69.22198
618.54         68.9517
618.97        68.93369
619.40        69.20241
619.84        68.82021
620.27        69.00841
620.70        69.00289
621.13         69.1631
621.56        68.95682
621.99        68.60975
622.42        68.67336
622.85        69.05913
623.28        68.53651
623.71        68.59929
624.14        69.18238
624.57        69.05142
625.00        69.25584
625.43        69.29411
625.86        69.04996
626.29        69.12597
626.72        68.74406
627.15        68.83847
627.58        68.71867
628.01        68.61077
628.44        68.69637
628.87        68.94708
629.30        68.70684
629.73        68.76637
630.16         68.7365
630.59        68.83407
631.02        68.94653
631.45        69.04562
631.88        69.00427
632.31        68.77725
632.74        68.89346
633.17        68.52149
633.60        68.45451
634.03        68.45342
634.46        68.52187
634.89        68.61269
635.32          68.663
635.75         68.6588
636.18        68.60658
636.61        68.53751
637.04         68.5034
637.47        68.52184
637.89         68.5644
638.32        68.56864
638.75        68.54572
639.18        68.50191
639.61        68.16452
640.04        68.10519
640.47        68.00202
640.90        68.02776
641.33        68.13071
641.76        68.24185
642.18        68.34038
642.61        68.39964
643.04        68.28385
643.47        67.97436
643.90        68.40425
644.33        68.11734
644.76        68.17712
645.18        68.17334
645.61        68.40993
646.04        68.76688
646.47        68.70293
646.90        68.30964
647.33        68.19652
647.75        68.39783
648.18        68.54898
648.61         68.6116
649.04        68.64253
649.47        68.59878
649.89        68.60287
650.32        68.61536
650.75        68.22585
651.18        67.63792
651.61        67.83148
652.03        68.70532
652.46         68.8792
652.89        68.31688
653.32        68.35252
653.74        69.13741
654.17        68.61863
654.60        68.47452
655.03        69.16663
655.46        68.20423
655.88        68.46384
656.31        76.79975
656.74        75.05029
657.16        68.61002
657.59        66.84807
658.02        68.37831
658.45        68.73315
658.87        68.79967
659.30        68.01719
659.73        68.44865
660.15        69.36891
660.58        68.46423
661.01        68.17147
661.44        67.82962
661.86        67.95058
662.29        68.43121
662.72        68.72038
663.14        68.77631
663.57        68.83524
664.00        68.92171
664.42        68.93899
664.85        68.89751
665.27        68.77583
665.70        68.62776
666.13        68.57156
666.55        68.63638
666.98        68.77358
667.41        68.93757
667.83         69.0581
668.26        69.09541
668.69        69.07103
669.11        69.02436
669.54        69.04372
669.96          69.136
670.39        69.20783
670.82        69.24851
671.24        69.29051
671.67        69.32776
672.09        69.32328
672.52        69.29523
672.94        69.24028
673.37        69.16786
673.80        69.07626
674.22        68.98763
674.65        68.90379
675.07        68.85001
675.50        68.81738
675.92        68.81196
676.35        68.82942
676.77        68.86914
677.20        68.92087
677.62        68.98355
678.05        69.04292
678.47           69.09
678.90        69.12949
679.32        69.14498
679.75        69.13633
680.17        69.10014
680.60        69.04388
681.02        68.98521
681.45        68.93868
681.87        68.92361
682.30        68.92356
682.72        68.94977
683.15        68.98254
683.57        69.02433
684.00        69.07491
684.42        69.12022
684.85        69.15149
685.27        69.14857
685.70         69.1199
686.12        69.06651
686.54         68.9988
686.97        68.91915
687.39        68.89669
687.82        68.88696
688.24        68.72082
688.66         68.5014
689.09        68.40872
689.51        68.88377
689.94        69.04966
690.36        69.02378
690.78         69.0596
691.21        69.21598
691.63        69.41292
692.06        69.67197
692.48        70.12718
692.90        70.62591
693.33        70.80361
693.75        70.61026
694.17        70.12247
694.60        69.57011
695.02        69.31104
695.44         69.3521
695.87        69.58607
696.29        69.85223
696.71        69.53482
697.14        68.86852
697.56        69.09477
697.98        70.06796
698.41        70.47584
698.83        70.24746
699.25        70.13093
699.68        70.17036
700.10        70.16248
700.52        70.11741
700.94        70.03734
701.37        69.96432
701.79        70.09418
702.21        70.35576
702.64        70.53204
703.06        70.55982
703.48        70.41454
703.90        70.07463
704.33        69.98134
704.75         69.3729
705.17        69.22675
705.59        69.33147
706.01        69.61519
706.44         69.9913
706.86        70.34198
707.28        70.59525
707.70        70.81414
708.12        70.95674
708.55        70.86482
708.97        70.57973
709.39        70.31333
709.81        70.14214
710.23        70.04063
710.66        70.03978
711.08          70.224
711.50        70.49806
711.92        70.66586
712.34        70.68404
712.76        70.60638
713.19        70.46719
713.61        70.37891
714.03        70.35278
714.45        70.35516
714.87        70.37541
715.29        70.40088
715.71        70.42442
716.13        70.45982
716.56        70.47601
716.98        70.50636
717.40        70.52071
717.82        70.51245
718.24        70.50862
718.66        70.55627
719.08        70.65971
719.50        70.80493
719.92        70.93491
720.34        70.95913
720.76        70.86015
721.19        70.66389
721.61        70.45112
722.03        70.34126
722.45        70.37177
722.87        70.52518
723.29        70.72121
723.71        70.82449
724.13        70.79822
724.55         70.6648
724.97        70.54038
725.39        70.61346
725.81        70.90966
726.23        71.36359
726.65        71.78282
727.07        71.86185
727.49        71.54645
727.91        70.94645
728.33        70.29059
728.75        69.93906
729.17        69.98315
729.59        70.31486
730.01        70.76804
730.43         71.0542
730.85        71.08329
731.27        70.95628
731.69        70.75811
732.10        70.61675
732.52        70.57605
732.94        70.57304
733.36         70.6122
733.78        70.68826
734.20        70.78387
734.62         70.9903
735.04        71.23475
735.46        71.19876
735.88        70.97175
736.30        71.01612
736.72        71.29552
737.13        71.48746
737.55        71.48856
737.97        71.21301
738.39        70.81294
738.81        70.87112
739.23        71.33875
739.65        71.51257
740.06        71.33385
740.48        71.35021
740.90        71.53171
741.32        71.60635
741.74        71.54096
742.16        71.45035
742.57        71.34929
742.99        71.16763
743.41        71.00136
743.83        71.05682
744.25        71.31237
744.67        71.57003
745.08        71.75097
745.50        71.79346
745.92        71.68278
746.34        71.38867
746.75        71.00505
747.17         70.7603
747.59        70.68732
748.01        70.73057
748.42        70.85658
748.84        70.97481
749.26        71.06811
749.68        71.15183
750.09        71.22084
750.51        71.31774
750.93        71.42028
751.35         71.4365
751.76        71.41114
752.18        71.48185
752.60        71.66394
753.01        71.91366
753.43        72.13276
753.85        72.22469
754.27        72.17184
754.68        72.01398
755.10        71.85344
755.52        71.84759
755.93        72.01434
756.35        72.28072
756.77        72.56331
757.18        72.71594
757.60        72.71564
758.02        72.69789
758.43        72.57649
758.85        72.41507
759.26          71.637
759.68        71.56318
760.10        71.98705
760.51        72.34735
760.93        72.44704
761.34         72.4455
761.76        72.34344
762.18        71.84525
762.59        71.22131
763.01        71.33168
763.42        72.12904
763.84        72.44595
764.26         72.2097
764.67        72.06689
765.09        72.11432
765.50        72.07281
765.92        72.00152
766.33        72.01348
766.75        72.03473
767.16        72.13876
767.58        72.29402
768.00        72.33189
768.41        72.36772
768.83        73.01312
769.24        74.01584
769.66        74.19058
770.07        73.59282
770.49        73.22703
770.90        73.21625
771.32         73.2149
771.73        73.19229
772.15        73.11907
772.56        73.00726
772.97        72.97134
773.39        73.00976
773.80        73.08557
774.22        73.15875
774.63        73.29626
775.05        73.43107
775.46        73.52623
775.88        73.53667
776.29        73.49417
776.70        73.43681
777.12        73.45242
777.53        73.57672
777.95        73.76538
778.36        73.94315
778.77        73.96068
779.19        73.79224
779.60        73.49209
780.02         73.1702
780.43        73.00088
780.84        73.04313
781.26        73.23423
781.67        73.47854
782.09        73.65308
782.50        73.67036
782.91        73.37861
783.33        72.95752
783.74        72.90425
784.15        73.28635
784.57         73.8738
784.98        74.57871
785.39        75.01228
785.81         75.5355
786.22        75.58627
786.63        75.74392
787.04        75.66471
787.46         75.5423
787.87        75.31655
788.28        75.09608
788.70        75.03046
789.11        75.11671
789.52        75.34743
789.93        75.61103
790.35        75.70716
790.76        75.60973
791.17        75.35654
791.58         75.0515
792.00        74.85587
792.41        74.82985
792.82        74.89015
793.23          74.964
793.65         75.0511
794.06        75.08564
794.47        74.82585
794.88        74.44275
795.29         74.3941
795.71        74.64923
796.12        75.10251
796.53        75.56486
796.94         75.7623
797.35        75.58887
797.76        75.14288
798.18        74.65737
798.59        74.45266
799.00        74.61588
799.41        75.03351
799.82        75.56422
800.23        75.96726
800.64        76.15141
801.06        76.17273
801.47        76.08609
801.88        75.88255
802.29        75.59705
802.70        75.21366
803.11        74.85937
803.52        74.74696
803.93         74.9314
804.34        75.37504
804.75        75.90051
805.17        76.27183
805.58        76.46041
805.99        76.18238
806.40        75.64494
806.81        75.94703
807.22        76.81477
807.63        76.45443
808.04        75.06445
808.45        74.52374
808.86        74.96889
809.27        75.35394
809.68        75.53896
810.09         75.7752
810.50        76.00259
810.91        76.14725
811.32        76.20142
811.73        76.16067
812.14        76.04049
812.55        75.85658
812.96         75.6868
813.37        75.65816
813.78        75.80315
814.19        76.08931
814.60        76.43961
815.01         76.7302
815.42        76.92133
815.83        77.03616
816.24        77.08339
816.65        77.08278
817.05        77.04904
817.46        76.95186
817.87        76.82396
818.28        76.67007
818.69        76.49741
819.10        76.31168
819.51        76.15924
819.92        76.11696
820.33        76.19671
820.74        76.36834
821.14        76.54282
821.55        76.61478
821.96        76.54736
822.37        76.38795
822.78        76.19528
823.19        76.07664
823.60        76.08196
824.00         76.2047
824.41        76.40038
824.82        76.70927
825.23        77.10088
825.64        77.53732
826.04        77.96391
826.45        78.20364
826.86        78.23904
827.27        78.11673
827.68        77.82836
828.08        77.39473
828.49        76.82531
828.90        76.14386
829.31        75.54099
829.72        75.30485
830.12        75.52612
830.53        76.11491
830.94        76.80328
831.35         77.0411
831.75        76.71375
832.16         75.9418
832.57        75.15901
832.97        75.02243
833.38        75.64767
833.79        76.80723
834.20         78.1145
834.60        78.91213
835.01        78.96134
835.42         78.4921
835.82        77.74325
836.23        77.07933
836.64        76.64276
837.04        76.34395
837.45        76.15347
837.86        76.10062
838.26        76.18262
838.67        76.38195
839.08         76.6438
839.48        76.82221
839.89        76.85622
840.29         76.7678
840.70        76.59798
841.11        76.38906
841.51        76.18679
841.92        75.96737
842.33        75.79313
842.73         75.7728
843.14        75.88049
843.54        76.14626
843.95        76.47861
844.35        76.79929
844.76        77.02933
845.17        77.16566
845.57        77.24198
845.98         77.3078
846.38         77.3959
846.79        77.48215
847.19        77.49797
847.60        77.24723
848.00        76.75381
848.41        76.08069
848.81        75.48385
849.22        75.32848
849.62        75.69258
850.03        76.42928
850.43         77.2888
850.84         77.6716
851.24        77.48414
851.65        76.86427
852.05        76.10683
852.46        75.67058
852.86        75.67879
853.27        75.97008
853.67        76.39775
854.07         76.9665
854.48        77.56043
854.88         78.3111
855.29         78.8637
855.69        78.82571
856.10        77.99807
856.50        76.62706
856.90        75.17496
857.31        74.32101
857.71        74.20837
858.12        74.60135
858.52        75.33533
858.92        75.85213
859.33         75.9288
859.73        75.77706
860.13        75.40963
860.54        74.88117
860.94        74.26251
861.34        73.50609
861.75        72.81153
862.15        72.60037
862.55        72.93507
862.96        73.69651
863.36        74.59695
863.76        75.06121
864.17        74.93616
864.57        74.38885
864.97        73.67421
865.38        73.22677
865.78         73.2049
866.18        73.45688
866.58         73.8024
866.99        73.92918
867.39        73.78374
867.79        73.48887
868.19        73.15763
868.60        72.90477
869.00        72.76489
869.40        72.68554
869.80        72.71916
870.21        72.96434
870.61        73.45631
871.01        74.09345
871.41        74.65052
871.81        74.79111
872.22        74.45779
872.62        73.76454
873.02        72.94523
873.42        72.39307
873.82        72.24627
874.22        72.42194
874.63         72.7979
875.03        73.16302
875.43        73.44293
875.83        73.68522
876.23        73.95241
876.63        74.34212
877.03        74.84967
877.44        75.38123
877.84         75.8213
878.24        75.94413
878.64        75.70412
879.04        75.18952
879.44        74.55966
879.84         74.0452
880.24        73.72179
880.64        73.55402
881.04        73.48612
881.44        73.40979
881.84         73.3008
882.24        73.20423
882.65        73.15417
883.05         73.3115
883.45        73.64394
883.85        74.07636
884.25         74.5265
884.65        74.89854
885.05        75.17626
885.45        75.39668
885.85        75.55554
886.25        75.65421
886.65        75.68745
887.05        75.61468
887.45         75.5193
887.85        75.53454
888.25        75.67768
888.65         75.9439
889.04        76.12213
889.44        75.84528
889.84        75.09356
890.24        73.99474
890.64         72.9433
891.04        72.50142
891.44        72.77258
891.84         73.6251
892.24        74.62304
892.64        75.01329
893.04        74.61665
893.44        73.65091
893.83        72.65108
894.23        72.45203
894.63         73.1834
895.03        74.57844
895.43        76.06761
895.83        76.62576
896.23        76.00337
896.63        74.62387
897.02        73.02237
897.42        72.05384
897.82        71.85259
898.22        72.19392
898.62        72.87973
899.01        73.60376
899.41        74.16585
899.81        74.69016
900.21        75.20361
900.61        75.73473
901.00        76.26633
901.40        76.68944
901.80        76.94484
902.20        76.98506
902.59        76.82603
902.99        76.53049
903.39        76.15637
903.79        75.78425
904.18        75.44733
904.58        75.14801
904.98        74.96617
905.38        75.02695
905.77        75.32018
906.17        75.83439
906.57        76.31746
906.96        76.36767
907.36        75.90219
907.76        75.05945
908.15        74.21358
908.55        73.93481
908.95        74.36237
909.34        75.29998
909.74        76.37413
910.14        77.04835
910.53        77.14263
910.93         76.8412
911.33        76.27623
911.72        75.65199
912.12        75.09542
912.52        74.53007
912.91        74.05267
913.31        73.83068
913.70        73.89433
914.10        74.22456
914.49        74.66397
914.89        74.91622
915.29        74.92087
915.68        74.75645
916.08        74.55479
916.47        74.57483
916.87        74.87134
917.26        75.33183
917.66         75.8524
918.05         76.2867
918.45        76.57272
918.84        76.79715
919.24        76.91912
919.64        76.94576
920.03        76.91447
920.42        76.80658
920.82        76.69997
921.21        76.74081
921.61        76.90883
922.00        77.15715
922.40        77.38273
922.79        77.47195
923.19        77.36486
923.58         77.1388
923.98         76.7505
924.37        76.05413
924.77        75.11438
925.16        73.97047
925.55        72.95998
925.95        72.64037
926.34        73.16603
926.74        74.32576
927.13        75.78665
927.52        76.90004
927.92        77.44568
928.31        77.58604
928.70        77.45607
929.10        77.33341
929.49         77.3421
929.89        77.37087
930.28        77.39333
930.67         77.3376
931.07        77.17918
931.46        76.97186
931.85        76.79945
932.24        76.77476
932.64        76.91422
933.03        77.21628
933.42         77.4842
933.82        77.43894
934.21        77.03657
934.60        76.34489
934.99        75.70029
935.39        75.57934
935.78        76.10936
936.17        77.19517
936.56        78.36802
936.96        78.77328
937.35         78.2385
937.74        76.97755
938.13        75.64487
938.53        75.11752
938.92        75.50655
939.31        76.60238
939.70        77.85847
940.09        78.27778
940.49        77.61169
940.88        76.23581
941.27         74.7573
941.66        74.07244
942.05        74.39522
942.44         75.4491
942.84        76.82542
943.23        77.85992
943.62        78.22732
944.01        78.16129
944.40        77.84924
944.79        77.59389
945.18        77.50765
945.57        77.43112
945.97        77.40188
946.36        77.60915
946.75        78.02023
947.14        78.63969
947.53        79.19733
947.92        79.18422
948.31        78.51244
948.70        77.36716
949.09        76.17588
949.48        75.57866
949.87        75.73781
950.26        76.49746
950.65        77.55742
951.04        78.37449
951.43        78.73251
951.82        78.72139
952.21        78.56179
952.60         78.6136
952.99        78.92789
953.38        79.35966
953.77         79.5889
954.16        79.08963
954.55        77.82225
954.94        76.10724
955.33        74.39102
955.72        73.31277
956.11        73.04134
956.50        73.34595
956.89        74.10636
957.28        75.12428
957.66        76.29387
958.05        77.54041
958.44        78.52674
958.83        78.59399
959.22        77.65228
959.61        75.95545
960.00        74.09685
960.39        72.93398
960.78        72.65975
961.16        73.08272
961.55        73.89995
961.94        74.68447
962.33        75.24343
962.72        75.71611
963.11        76.02388
963.49        76.03883
963.88        75.71915
964.27        75.10741
964.66        74.44147
965.04        74.08832
965.43        74.10411
965.82        74.39439
966.21        74.79843
966.60        74.98594
966.98        74.86035
967.37        74.51243
967.76        74.04128
968.15        73.58517
968.53        73.21944
968.92        72.88105
969.31        72.64633
969.69        72.64994
970.08        72.85805
970.47        73.25346
970.86        73.65283
971.24        73.73489
971.63        73.36023
972.02        72.66239
972.40         71.8466
972.79        71.26708
973.17        71.04318
973.56        71.10052
973.95        71.32244
974.33        71.53861
974.72        71.63684
975.11        71.61194
975.49        71.68922
975.88        72.22372
976.26        73.32189
976.65        74.78087
977.04        75.98236
977.42        75.93049
977.81        74.49588
978.19        72.01717
978.58        69.68551
978.96        69.03461
979.35        70.35955
979.74        73.32011
980.12        77.05754
980.51        79.19582
980.89        79.12758
981.28        77.35048
981.66        74.95572
982.05        73.82104
982.43        74.41082
982.82        76.06794
983.20        78.30559
983.59        80.11812
983.97        81.20216
984.35        81.85176
984.74        81.83681
985.12        80.89751
985.51        79.09994
985.89        76.49934
986.28        73.94328
986.66        72.65487
987.04         73.0289
987.43        74.76155
987.81        77.04424
988.20         78.2273
988.58        77.87383
988.96        76.26047
989.35        74.32346
989.73         73.5642
990.12        74.29542
990.50        76.13993
990.88         77.9638
991.27         77.9571
991.65        75.87543
992.03         72.4136
992.42        69.01114
992.80        67.59577
993.18        68.71028
993.56        71.67378
993.95        75.34418
994.33        78.01778
994.71        78.82217
995.10        78.26598
995.48        76.74686
995.86         74.9581
996.24        73.31343
996.63        71.63283
997.01         70.1563
997.39        69.24189
997.77        68.93958
998.15         69.2964
998.54         70.0761
998.92         70.7558
999.30        71.15006
999.68        71.32878
1000.06        71.49027
1000.45        71.99186
1000.83         73.0299
1001.21        74.34978
1001.59        75.61828
1001.97         76.3242
1002.35        76.29436
1002.73        75.66022
1003.12        74.71682
1003.50        73.89959
1003.88        73.40995
1004.26        73.20083
1004.64        73.06303
1005.02        72.64457
1005.40        71.89987
1005.78        70.95596
1006.16        70.16507
1006.54        70.12806
1006.92        70.94408
1007.30        72.33858
1007.69        73.75874
1008.07        74.56171
1008.45        74.46158
1008.83        73.72805
1009.21        72.60981
1009.59        71.52157
1009.97         70.7123
1010.35        70.12117
1010.73        70.00151
1011.11        70.78905
1011.49        72.56693
1011.86        75.38583
1012.24        78.60928
1012.62        81.44666
1013.00        83.47282
1013.38         84.6987
1013.76        85.17847
1014.14        85.23618
1014.52        85.03113
1014.90        84.43649
1015.28        83.52782
1015.66        82.56324
1016.04        81.69333
1016.41        80.93784
1016.79        80.31631
1017.17        79.54923
1017.55        78.46935
1017.93        77.00782
1018.31        75.01149
1018.69        72.83054
1019.06        71.19486
1019.44        70.31126
1019.82        70.05714
1020.20        70.15112
1020.58        70.51912
1020.95        71.27332
1021.33        72.55414
1021.71        74.11014
1022.09        75.61589
1022.46        76.79667
1022.84        77.74146
1023.22        79.13147
1023.60        81.03008
1023.97        83.28693
1024.35        84.85184
1024.73        83.98861
