SpectraSmart Spectrum 2.9.0.0
--------- Device Information -----------
Spectrum Name :  反射率_0
Saving Time :  2024/05/01 16:38:52
Spectro-Module Model Name : SE2030-DUVN
Spectro-Module Serial Number : OS361AC55029948
Wavelength Start : 200
Wavelength End : 1025
Wavelength Unit : Wavelength(nm)
Spectrum Unit : Reflectance(%)
-----------Spectrum Setting ------------
Integration Time : 20ms
Average : 10
Boxcar : 0
Background removal :  enabled
linearity correction :  enabled
SC :  disabled
Intensity correction :  disabled
DWT denoise :  enabled
savitzky-golay :  disabled
FFT :  disabled
Running average :  disabled
Kalman :  disabled
High pass :  disabled
---------------BEGIN--------------------
Wavelength(nm)             Reflectance(%)
200.29               0
200.75        76.11739
201.21        578.4023
201.67       -314.5468
202.13       -130.8386
202.58       -63.96312
203.04       -21.78835
203.50        5.019062
203.96         16.9266
204.42        16.62641
204.88       -4.414617
205.34       -618.4486
205.80        117.5546
206.26        68.77684
206.72        27.74379
207.18       -118.7576
207.64        255.5113
208.10        107.4489
208.55        64.34699
209.01        40.69292
209.47        30.39846
209.93        28.44955
210.39         29.3656
210.85        31.56804
211.31        33.49749
211.77        33.69715
212.23        30.68469
212.69        38.46403
213.14        55.62539
213.60         120.085
214.06        -586.752
214.52       -97.20515
214.98       -65.24366
215.44        -59.2132
215.90       -68.48817
216.36       -276.6022
216.81        40.52008
217.27        39.90929
217.73       -146.0018
218.19       -55.02108
218.65       -58.72304
219.11       -84.09234
219.57       -169.9032
220.02       -498.8469
220.48       -226.5803
220.94       -52.89265
221.40       -10.25221
221.86        4.972539
222.32        12.22675
222.77        17.46811
223.23        22.60539
223.69        28.03672
224.15        30.84347
224.61        29.53832
225.06        26.43752
225.52        23.75957
225.98        21.87701
226.44        20.44588
226.90        19.02551
227.36        17.84029
227.81        17.90432
228.27        19.22571
228.73        20.92823
229.19        22.34791
229.65           23.22
230.10        23.78777
230.56        24.58795
231.02        25.55415
231.48        26.40879
231.93        26.93786
232.39        27.06979
232.85        27.67297
233.31        29.77615
233.77        33.05454
234.22        36.96828
234.68        40.38711
235.14        42.09743
235.60        41.95407
236.05        40.05259
236.51        36.82384
236.97        34.91973
237.43        36.43845
237.88        40.99377
238.34        45.92647
238.80        48.02991
239.26        46.23815
239.71           40.28
240.17         28.8545
240.63        15.12115
241.08        6.760436
241.54        6.302337
242.00         10.8922
242.46        16.91134
242.91        24.89784
243.37        37.28184
243.83         59.9107
244.28        88.82936
244.74        101.9852
245.20        100.4815
245.66         93.2524
246.11        83.95689
246.57        71.34656
247.03        50.57139
247.48        16.06086
247.94       -25.64385
248.40       -54.43629
248.85       -64.97003
249.31       -54.48848
249.77       -31.43816
250.22       -7.501006
250.68        13.58852
251.14        27.71429
251.59        32.50165
252.05         28.6405
252.51         12.1052
252.96       -30.31443
253.42       -83.10503
253.88       -56.31908
254.33         12.0343
254.79        48.94184
255.25        61.23749
255.70        63.19879
256.16        62.32045
256.62        61.02008
257.07        60.72873
257.53        61.64799
257.99        62.67676
258.44        63.32507
258.90        63.71462
259.35        63.54131
259.81        63.28194
260.27        62.80091
260.72        61.98794
261.18        61.18249
261.63        60.14099
262.09        59.18921
262.55        58.27464
263.00        57.27151
263.46        56.29944
263.91        55.17043
264.37        53.97793
264.83        52.68657
265.28        51.35772
265.74        50.04895
266.19        48.56131
266.65        47.02217
267.11        45.40215
267.56        43.99054
268.02        43.33517
268.47        43.43431
268.93        44.06153
269.38        44.70948
269.84        44.50479
270.30        43.28618
270.75        41.34035
271.21        39.15635
271.66        37.35331
272.12         36.1767
272.57        35.38029
273.03        34.87787
273.48        34.47832
273.94        34.11581
274.39        33.83029
274.85        33.55847
275.31        33.12734
275.76        32.51271
276.22        31.79609
276.67        31.04471
277.13        30.47555
277.58        30.05867
278.04        29.75963
278.49         29.4774
278.95        29.17259
279.40        28.77857
279.86        28.37045
280.31          27.893
280.77        27.35662
281.22        26.73464
281.68        26.08866
282.13        25.44627
282.59        24.92694
283.04        24.52302
283.50        24.25424
283.95        24.05338
284.41        23.86507
284.86        23.66323
285.32        23.47306
285.77        23.35554
286.22        23.43072
286.68        23.70168
287.13        24.09973
287.59        24.48234
288.04        24.58013
288.50        24.37365
288.95         23.9225
289.41        23.45002
289.86        23.20251
290.32        23.25229
290.77        23.51237
291.22        23.84099
291.68        24.01168
292.13        23.98446
292.59        23.87955
293.04        23.82423
293.50         24.0588
293.95        24.61742
294.40        25.41911
294.86        26.35928
295.31         27.2871
295.77        28.13787
296.22        28.94751
296.68        29.72147
297.13        30.45603
297.58        31.18555
298.04        31.93198
298.49        32.73323
298.95         33.6886
299.40        34.78788
299.85        35.99213
300.31        37.28672
300.76        38.64298
301.21         40.0563
301.67        41.55416
302.12        43.02684
302.58        44.32241
303.03        45.38998
303.48        46.29669
303.94        47.26259
304.39        48.54256
304.84         50.2275
305.30        52.22688
305.75        54.33822
306.20        56.25878
306.66        57.89963
307.11        59.30245
307.57        60.60793
308.02        61.94654
308.47         63.3936
308.93        64.91048
309.38        66.39996
309.83        67.79173
310.29        69.08376
310.74        70.30353
311.19        71.52756
311.65         72.8484
312.10        74.26006
312.55        75.71125
313.00        77.16534
313.46        78.57546
313.91        79.90147
314.36        81.15253
314.82        82.24186
315.27        83.04618
315.72        83.53976
316.18        83.78704
316.63        83.91345
317.08        84.17532
317.53         84.6423
317.99        85.26091
318.44        85.93249
318.89        86.46058
319.35        86.79216
319.80        87.00909
320.25        87.18377
320.70        87.43439
321.16        87.78485
321.61        88.19533
322.06        88.65063
322.51        89.14835
322.97        89.64419
323.42        90.17048
323.87        90.62083
324.32        90.84079
324.78        90.79943
325.23        90.57645
325.68        90.29304
326.13        90.17138
326.59        90.26055
327.04        90.54985
327.49        90.95554
327.94        91.34819
328.39        91.67476
328.85        91.93642
329.30        92.21176
329.75        92.49455
330.20        92.79356
330.66        93.06888
331.11         93.3531
331.56        93.59814
332.01        93.80995
332.46        94.00436
332.92        94.22137
333.37        94.62328
333.82        95.20986
334.27        95.95796
334.72        96.76332
335.17        97.43803
335.63        97.89214
336.08        98.20246
336.53        98.43935
336.98        98.78428
337.43        99.28899
337.88        99.90746
338.34        100.5035
338.79         100.929
339.24        101.1099
339.69        101.1039
340.14        101.0734
340.59        101.2662
341.05        101.7338
341.50        102.4309
341.95        103.1698
342.40        103.6444
342.85        103.7985
343.30        103.7428
343.75          103.71
344.20        104.0619
344.66         104.861
345.11        105.9571
345.56        107.1353
346.01        108.0337
346.46        108.5308
346.91        108.7478
347.36        108.7691
347.81        108.7237
348.26        108.6926
348.72        108.6608
349.17        108.6838
349.62        108.9204
350.07        109.3658
350.52        109.9409
350.97        110.5272
351.42        110.9089
351.87        111.0245
352.32        110.9755
352.77        110.7054
353.22        110.1434
353.67        109.3404
354.13        108.3429
354.58        107.4506
355.03        107.2309
355.48        107.7553
355.93        108.8884
356.38        110.0758
356.83        110.3742
357.28        109.5844
357.73        108.0058
358.18        106.3005
358.63        105.4581
359.08        105.6663
359.53        106.5944
359.98         107.685
360.43        108.0081
360.88        107.3149
361.33        105.9483
361.78        104.3487
362.23        103.1334
362.68        102.4711
363.13        102.1584
363.58        101.9973
364.03        101.6999
364.48        101.1619
364.93          100.47
365.38        99.73997
365.83        99.11795
366.28        98.62881
366.73         98.2258
367.18        97.72921
367.63        96.87826
368.08        95.67322
368.53        94.24606
368.98        92.91584
369.43        92.13248
369.88        91.96211
370.33        92.25356
370.78        92.70117
371.23        92.76397
371.68        92.27928
372.13        91.42194
372.58        90.40646
373.03        89.55849
373.48        88.96422
373.93        88.48949
374.38        88.09765
374.83        87.74725
375.28         87.4046
375.72        87.10375
376.17        86.76498
376.62        86.19087
377.07        85.37346
377.52         84.3709
377.97        83.39592
378.42        82.79177
378.87        82.61722
379.32        82.75349
379.77        82.97198
380.22        82.91838
380.67        82.50493
381.11        81.84522
381.56        81.08671
382.01         80.4948
382.46        80.15714
382.91        79.99242
383.36        79.90812
383.81        79.76572
384.26        79.52006
384.71        79.21695
385.15        78.89536
385.60        78.65579
386.05        78.49738
386.50        78.37997
386.95        78.23885
387.40        77.98743
387.85        77.61914
388.29        77.13558
388.74        76.69186
389.19        76.32381
389.64        76.04452
390.09        75.81705
390.54        75.62429
390.98        75.42307
391.43        75.24718
391.88        75.09039
392.33        74.92066
392.78        74.71958
393.23        74.48848
393.67        74.12589
394.12        73.75209
394.57        73.60477
395.02        73.58291
395.47         73.2562
395.91        72.57187
396.36        72.27316
396.81        72.35327
397.26        72.51865
397.71        72.60792
398.15        72.48923
398.60        72.21198
399.05        71.71142
399.50        71.20042
399.95        71.11939
400.39        71.45795
400.84        71.74519
401.29        71.82704
401.74        71.76188
402.18        71.50217
402.63        70.91426
403.08        70.20372
403.53        69.75115
403.97         69.6172
404.42        69.70197
404.87         69.8644
405.32        69.87109
405.76        69.65794
406.21        69.39037
406.66        69.13667
407.11        68.87973
407.55        68.75671
408.00        68.94788
408.45        69.33913
408.90        69.65434
409.34        69.66752
409.79        69.02949
410.24        68.02617
410.68        67.53412
411.13         67.6534
411.58        67.91975
412.03        68.17619
412.47        68.34628
412.92         68.3281
413.37        68.17757
413.81         67.9495
414.26        67.77506
414.71        67.67308
415.15        67.61772
415.60        67.59239
416.05        67.63093
416.49        67.72879
416.94        67.87296
417.39         68.0211
417.83        68.08212
418.28        68.04665
418.73        67.95627
419.17         67.8341
419.62        67.72407
420.07        67.63206
420.51         67.5201
420.96        67.48679
421.41        67.51292
421.85        67.55219
422.30        67.93108
422.74        68.43893
423.19        68.15251
423.64        67.32842
424.08        67.65717
424.53        68.77134
424.98        69.22614
425.42        68.82989
425.87        68.51072
426.31        68.43472
426.76        68.28667
427.21         68.1797
427.65        68.56637
428.10        69.15892
428.54         69.1701
428.99        68.72587
429.44          68.124
429.88        67.61502
430.33         68.2297
430.77         69.4838
431.22        69.11545
431.66        68.07808
432.11        67.45889
432.56        67.63568
433.00        68.18861
433.45        68.96149
433.89         68.8037
434.34        68.15913
434.78        69.67044
435.23        68.83565
435.67        68.98884
436.12         68.9287
436.57        69.17893
437.01        69.51035
437.46        70.63866
437.90         70.0798
438.35        69.70485
438.79        69.95666
439.24        69.62719
439.68         69.1625
440.13        69.15018
440.57        69.60703
441.02        69.88631
441.46        69.88544
441.91        70.30561
442.35        70.60066
442.80        70.52592
443.24        70.58057
443.69        70.40528
444.13        70.25066
444.58          70.189
445.02        70.23183
445.47        70.38907
445.91        70.60769
446.36        70.81846
446.80        70.98475
447.24        71.13541
447.69        71.27392
448.13        71.38551
448.58        71.48363
449.02         71.5364
449.47        71.57511
449.91        71.60947
450.36         71.6608
450.80        71.70612
451.25        71.72745
451.69        71.65302
452.13        71.48047
452.58        71.23447
453.02        70.96303
453.47        70.75951
453.91        70.63393
454.36        70.62689
454.80        70.65847
455.24        70.44153
455.69        70.23315
456.13        69.85783
456.58        69.56857
457.02        69.47197
457.46        69.63708
457.91        70.13049
458.35        70.70112
458.79        70.75042
459.24        70.23308
459.68        69.54853
460.13        69.03793
460.57        67.93691
461.01        68.30051
461.46        68.21165
461.90        68.52771
462.34        68.73412
462.79        68.28484
463.23        68.43404
463.68        68.82993
464.12        68.97318
464.56        68.86375
465.01        68.23961
465.45        68.17783
465.89        68.26774
466.34        68.59776
466.78        68.52899
467.22        67.94391
467.67        67.23098
468.11        67.70637
468.55         67.7524
468.99        67.69421
469.44        67.64943
469.88        67.62164
470.32        67.54867
470.77        67.44554
471.21        67.39675
471.65        67.39715
472.10        67.44055
472.54        67.48512
472.98        67.46724
473.42        67.36915
473.87        67.31005
474.31        67.26366
474.75        67.04771
475.20        66.77027
475.64         66.8931
476.08        67.30255
476.52        67.38763
476.97        67.08331
477.41        67.15383
477.85        66.24134
478.29        66.90623
478.74        66.77226
479.18        66.82933
479.62        66.06657
480.06        65.92545
480.50         66.2841
480.95        65.70668
481.39        66.48046
481.83        65.77126
482.27        65.98926
482.72        66.30742
483.16        65.99561
483.60        65.96394
484.04        66.38803
484.48        66.28626
484.93        66.08418
485.37        67.13885
485.81        66.93683
486.25        67.85147
486.69        67.09833
487.14        64.81614
487.58        64.66645
488.02        66.54504
488.46        66.30579
488.90        65.30781
489.34        66.11711
489.79        65.62899
490.23         65.5383
490.67        65.46545
491.11         65.5992
491.55        65.77236
491.99        65.88335
492.43        65.93189
492.88        65.88271
493.32        65.73756
493.76        65.54037
494.20         65.4251
494.64        65.41649
495.08        65.40103
495.52        65.39706
495.96        65.53621
496.41        65.72327
496.85        65.80972
497.29        65.52895
497.73        65.23486
498.17        65.30511
498.61        64.94872
499.05        64.45853
499.49        64.58379
499.93        65.19044
500.37        65.37943
500.82        65.14791
501.26        65.12112
501.70        65.27612
502.14        65.62318
502.58         65.3774
503.02        65.32436
503.46        65.24976
503.90        65.12164
504.34        64.99046
504.78        64.95657
505.22         65.0409
505.66         65.2178
506.10        65.40567
506.54        65.45665
506.98        65.33979
507.42        65.11511
507.86         64.8772
508.30        64.71532
508.74         64.6544
509.18        64.75883
509.62        65.01971
510.06         64.8768
510.50         65.1666
510.94        65.20627
511.38        65.24262
511.82         65.2365
512.26        65.19078
512.70        65.09158
513.14        64.94038
513.58        64.80091
514.02        64.69254
514.46         64.5564
514.90        64.37295
515.34        64.42348
515.78        64.20731
516.22        64.13669
516.66        64.08655
517.10        64.10218
517.54        64.18251
517.98           64.32
518.42        64.47639
518.86         64.5757
519.30        64.60142
519.74        64.56954
520.18        64.52325
520.62        64.53687
521.06        64.62115
521.50        64.74144
521.93        64.85758
522.37        64.89535
522.81        64.84237
523.25        64.73546
523.69        64.58634
524.13        64.40871
524.57        64.22601
525.01        64.04234
525.45        63.91282
525.89        63.92365
526.32        64.07845
526.76        64.33947
527.20         64.6254
527.64        64.80467
528.08        64.83884
528.52        64.77029
528.96        64.62913
529.40        64.46784
529.83        64.30885
530.27        64.15403
530.71        64.04059
531.15        64.04272
531.59        64.16637
532.03        64.38932
532.46        64.62427
532.90        64.74548
533.34        64.72309
533.78        64.54672
534.22        64.29468
534.66        64.20214
535.09         64.2382
535.53         64.1331
535.97        63.90472
536.41         63.8125
536.85        63.86391
537.28        63.91981
537.72        63.95115
538.16         63.9679
538.60        63.95721
539.04        63.91087
539.47        63.84843
539.91        63.83844
540.35        63.87392
540.79         63.9635
541.22        64.06674
541.66        64.02754
542.10        63.99807
542.54        63.87281
542.97        63.74504
543.41        63.71663
543.85        63.79274
544.29        63.93749
544.72        64.08965
545.16        64.19067
545.60        64.20593
546.04        64.15395
546.47        64.05497
546.91        63.95266
547.35        63.87403
547.79        63.79784
548.22        63.68943
548.66        63.63037
549.10        63.62066
549.53        63.35897
549.97        63.43044
550.41        63.47143
550.84        63.64289
551.28        63.92725
551.72        64.23891
552.15        64.35566
552.59        64.27274
553.03        64.21228
553.46        64.06998
553.90         64.0233
554.34         64.0466
554.77        64.07544
555.21        64.04842
555.65         64.2384
556.08        63.96897
556.52        63.79267
556.96        63.55993
557.39        63.42396
557.83        63.42615
558.27        63.41956
558.70        63.38008
559.14        63.61826
559.57        63.55289
560.01        63.70041
560.45         63.8056
560.88        63.75625
561.32        63.63365
561.75        63.34208
562.19        63.06039
562.63        63.38394
563.06        64.08476
563.50        63.94042
563.93        63.10105
564.37        62.81919
564.80         63.2476
565.24        63.50454
565.68        63.53674
566.11         63.5681
566.55        63.60381
566.98        63.51937
567.42        63.41669
567.85        63.45398
568.29        63.64304
568.72        63.83205
569.16         64.0646
569.60         64.1334
570.03        63.90929
570.47        64.06973
570.90        64.33637
571.34        63.04245
571.77        63.79055
572.21        63.78169
572.64        64.12619
573.08        63.70076
573.51        63.77513
573.95        64.57497
574.38        63.55016
574.82        63.99148
575.25        64.33296
575.69         64.3578
576.12        63.90888
576.56         63.7401
576.99        64.25091
577.42        63.82924
577.86        64.22544
578.29        64.26674
578.73        65.14751
579.16        63.85954
579.60        63.48078
580.03         63.5096
580.47        64.16024
580.90        63.37909
581.33         64.0213
581.77        64.19823
582.20        64.45861
582.64        64.50358
583.07        64.07822
583.51        63.62547
583.94        63.39886
584.37        63.70864
584.81        64.46059
585.24        64.59456
585.68        64.10471
586.11        64.05251
586.54        64.20535
586.98        63.47597
587.41        62.82282
587.85        63.86649
588.28         64.1172
588.71        62.86198
589.15        63.87645
589.58        63.31884
590.01        63.33076
590.45        63.28941
590.88        63.44999
591.31        63.59018
591.75        63.59573
592.18        63.30241
592.61        62.83503
593.05        63.11908
593.48         63.4464
593.91        63.68043
594.35        63.36478
594.78        63.10806
595.21        62.83878
595.65         63.5434
596.08        63.41095
596.51        63.03642
596.94        62.91876
597.38        62.84073
597.81         63.1707
598.24        62.77042
598.68        63.02898
599.11        62.73042
599.54        63.82922
599.97        63.41067
600.41        62.89512
600.84        63.73981
601.27        63.34468
601.70        63.68119
602.14        63.94452
602.57        63.72604
603.00        63.20872
603.43        62.86495
603.87        63.16912
604.30        63.46459
604.73        63.10133
605.16        62.84618
605.60        63.02275
606.03        63.12183
606.46        63.08892
606.89         63.5024
607.32        62.90743
607.76        62.82532
608.19        62.85331
608.62        63.14202
609.05        62.86127
609.48        63.07391
609.92         62.8964
610.35        62.66624
610.78        63.65353
611.21        63.67696
611.64        63.20083
612.07        63.57483
612.50        63.67115
612.94        63.67051
613.37         63.2498
613.80        63.22068
614.23        62.99928
614.66        63.24643
615.09        62.84499
615.52        62.99963
615.96        63.31657
616.39        63.45732
616.82        63.41649
617.25        63.14804
617.68        63.22516
618.11        63.12954
618.54        63.02058
618.97        62.84212
619.40        62.67635
619.84        62.59377
620.27        62.58481
620.70        62.92048
621.13        63.56102
621.56         62.9281
621.99        62.59632
622.42        62.99742
622.85        62.86665
623.28        62.68854
623.71        62.62859
624.14        63.02985
624.57        63.03768
625.00        63.22962
625.43        63.35618
625.86        62.88624
626.29        62.64289
626.72        62.95134
627.15        62.55252
627.58         62.6283
628.01        62.69124
628.44        62.72525
628.87        62.68176
629.30        62.57823
629.73        62.48103
630.16        62.45859
630.59        62.52195
631.02         62.6339
631.45         62.7433
631.88        62.77749
632.31        62.71639
632.74        62.58457
633.17        62.43093
633.60        62.32626
634.03        62.29128
634.46         62.3299
634.89        62.41078
635.32        62.42193
635.75        62.36268
636.18        62.41479
636.61        62.44728
637.04        62.49169
637.47        62.51308
637.89        62.52022
638.32        62.47588
638.75         62.4667
639.18        62.47614
639.61        62.10432
640.04        61.89006
640.47         61.6999
640.90         61.7039
641.33        61.77016
641.76        61.83776
642.18        61.92898
642.61         62.0205
643.04        61.97815
643.47        61.77212
643.90         62.2315
644.33         62.0226
644.76        62.10908
645.18        62.12686
645.61        62.37154
646.04        62.73404
646.47        62.71557
646.90        62.37264
647.33        62.21463
647.75        62.27446
648.18         62.2589
648.61        62.17731
649.04        62.13042
649.47        62.10567
649.89        62.21381
650.32        62.39183
650.75         62.2208
651.18        61.82728
651.61        62.03895
652.03        62.75271
652.46        62.76818
652.89         62.1191
653.32        61.94676
653.74        62.42026
654.17        61.95592
654.60         62.4718
655.03        62.48162
655.46        61.89547
655.88        62.27582
656.31        69.11244
656.74        67.47266
657.16        62.33193
657.59        60.90839
658.02        62.29893
658.45        62.42463
658.87        62.74208
659.30        61.32117
659.73        61.61612
660.15        62.65974
660.58        62.02467
661.01        62.01555
661.44        61.73469
661.86        61.74932
662.29        62.00141
662.72        62.08092
663.14        62.03439
663.57        62.17927
664.00        62.47167
664.42        62.56992
664.85        62.45808
665.27        62.26763
665.70        62.07896
666.13        61.98146
666.55        62.01624
666.98        62.14119
667.41        62.31805
667.83        62.48889
668.26        62.60585
668.69         62.6776
669.11        62.71547
669.54        62.73883
669.96        62.73976
670.39        62.72226
670.82        62.68097
671.24        62.48663
671.67        62.23137
672.09        62.25981
672.52        62.52447
672.94        62.59521
673.37        62.45058
673.80        62.31964
674.22        62.25291
674.65        62.19875
675.07        62.18517
675.50        62.20802
675.92        62.25207
676.35        62.28502
676.77        62.29948
677.20        62.29552
677.62        62.28414
678.05        62.26877
678.47        62.25031
678.90         62.2464
679.32        62.24906
679.75        62.23201
680.17        62.17963
680.60        62.23642
681.02        62.17321
681.45        62.19196
681.87         62.2265
682.30        62.33337
682.72        62.47238
683.15        62.40012
683.57        62.18312
684.00        62.17707
684.42        62.37017
684.85        62.44676
685.27        62.37818
685.70        62.39182
686.12        62.45841
686.54        62.36168
686.97        62.12895
687.39        62.07152
687.82        62.14941
688.24        61.98229
688.66        61.64591
689.09        61.64576
689.51        61.97574
689.94        62.16809
690.36        62.20003
690.78        62.33568
691.21        62.57324
691.63        62.71412
692.06         62.7906
692.48        63.04567
692.90        63.39157
693.33         63.4868
693.75        63.31317
694.17        62.98613
694.60        62.63511
695.02        62.47668
695.44        62.50272
695.87        62.50392
696.29        62.45754
696.71        62.35237
697.14        62.26516
697.56        62.47136
697.98        62.88708
698.41        63.08901
698.83        63.03896
699.25        62.97021
699.68        62.90756
700.10        62.85457
700.52        62.82647
700.94        62.78006
701.37        62.73997
701.79        62.86254
702.21        63.07877
702.64        63.20173
703.06        63.20599
703.48        63.11632
703.90        62.91435
704.33        62.97552
704.75        62.55733
705.17        62.44552
705.59        62.43563
706.01        62.50355
706.44        62.62446
706.86        62.79185
707.28        62.97665
707.70        63.17262
708.12        63.34528
708.55        63.43086
708.97         63.4152
709.39        63.31829
709.81        63.18219
710.23        63.09053
710.66        63.06911
711.08        63.10976
711.50        63.17256
711.92        63.20474
712.34        63.19419
712.76        63.16435
713.19        63.11968
713.61        63.11167
714.03        63.13056
714.45        63.15582
714.87        63.19757
715.29        63.27367
715.71        63.38046
716.13        63.51832
716.56        63.61512
716.98        63.63033
717.40        63.52543
717.82        63.32109
718.24        63.11216
718.66        63.05021
719.08        63.16381
719.50        63.40937
719.92        63.67529
720.34         63.7758
720.76        63.66891
721.19        63.41679
721.61        63.13054
722.03        62.98001
722.45        63.01589
722.87         63.1881
723.29        63.42519
723.71        63.60998
724.13        63.69771
724.55        63.71341
724.97        63.69912
725.39        63.72143
725.81        63.79458
726.23        63.89453
726.65        63.96074
727.07        63.90176
727.49        63.70986
727.91        63.42916
728.33        63.15506
728.75           63.03
729.17        63.08414
729.59         63.2783
730.01        63.53374
730.43        63.68704
730.85        63.70494
731.27        63.69157
731.69        63.65589
732.10        63.56478
732.52        63.43829
732.94        63.29136
733.36        63.17991
733.78        63.18224
734.20        63.30719
734.62          63.556
735.04        63.83873
735.46        63.94015
735.88        63.87663
736.30         63.8465
736.72        63.85372
737.13        63.89708
737.55        63.93753
737.97        63.70705
738.39        63.34634
738.81        63.61366
739.23        64.36034
739.65        64.45618
740.06        63.91761
740.48        63.77041
740.90        64.01553
741.32         64.1214
741.74        64.03277
742.16        63.95627
742.57        63.90051
742.99        63.77032
743.41        63.66188
743.83        63.77653
744.25        64.08966
744.67        64.41474
745.08        64.64439
745.50        64.66063
745.92        64.44216
746.34         63.9938
746.75        63.44367
747.17        63.05719
747.59        62.88615
748.01        62.87053
748.42        62.98181
748.84        63.13491
749.26        63.30053
749.68        63.49463
750.09         63.6883
750.51         63.8516
750.93        63.96709
751.35        64.02756
751.76        64.04829
752.18        64.05839
752.60        64.07462
753.01        64.11194
753.43        64.14426
753.85        64.16924
754.27        64.18921
754.68        64.20777
755.10        64.25794
755.52        64.38128
755.93        64.56944
756.35        64.79903
756.77        65.00549
757.18        65.06142
757.60        64.95243
758.02         64.7962
758.43        64.61291
758.85        64.36682
759.26        64.02637
759.68        64.16085
760.10        64.63682
760.51        64.81832
760.93        64.62193
761.34        64.47307
761.76        64.42503
762.18        64.18038
762.59         63.8811
763.01        63.98592
763.42        64.45157
763.84        64.63321
764.26        64.49983
764.67        64.28155
765.09        64.12076
765.50        64.17819
765.92        64.41798
766.33        64.42201
766.75        64.17708
767.16        64.22198
767.58        64.53674
768.00        64.83202
768.41        65.08061
768.83        65.35442
769.24        65.61938
769.66         65.7945
770.07        65.84731
770.49        65.72676
770.90        65.48734
771.32        65.32333
771.73        65.26817
772.15        65.18246
772.56        65.08896
772.97        65.09518
773.39        65.17551
773.80        65.27742
774.22        65.35401
774.63         65.4631
775.05        65.54604
775.46        65.57799
775.88        65.52735
776.29        65.42254
776.70        65.31518
777.12        65.31583
777.53        65.45963
777.95        65.68878
778.36        65.92424
778.77        66.01366
779.19        65.92466
779.60        65.70918
780.02        65.43527
780.43        65.23763
780.84        65.16676
781.26        65.11279
781.67        65.07967
782.09        65.22357
782.50        65.45303
782.91        65.37496
783.33        65.08915
783.74        65.12923
784.15        65.52979
784.57        65.98972
784.98        66.44113
785.39        66.79508
785.81        66.98846
786.22         67.1008
786.63         67.0723
787.04         67.0598
787.46        67.08316
787.87        67.08308
788.28        67.08363
788.70        67.10328
789.11        67.11984
789.52        67.15411
789.93        67.16474
790.35        67.07594
790.76        66.90652
791.17        66.66933
791.58        66.42738
792.00        66.29923
792.41        66.32921
792.82        66.37977
793.23        66.41785
793.65        66.67729
794.06        67.01158
794.47        66.75787
794.88        66.13775
795.29        66.00065
795.71        66.33627
796.12        66.81947
796.53        67.24537
796.94        67.42373
797.35        67.24983
797.76        66.79606
798.18        66.30354
798.59          66.107
799.00        66.29269
799.41        66.74965
799.82         67.3095
800.23        67.68437
800.64        67.77293
801.06        67.64326
801.47         67.3987
801.88        67.12238
802.29        66.87695
802.70        66.63947
803.11        66.45039
803.52        66.37946
803.93         66.4449
804.34        66.63626
804.75        66.91491
805.17        67.23526
805.58        67.59657
805.99        67.80431
806.40        67.84238
806.81        68.07531
807.22        68.33456
807.63        67.79211
808.04        66.66717
808.45        66.09939
808.86        66.22175
809.27        66.45275
809.68        66.68421
810.09        66.96585
810.50        67.22623
810.91        67.46065
811.32        67.60892
811.73        67.57064
812.14        67.34535
812.55        66.95887
812.96        66.57057
813.37        66.46374
813.78        66.70521
814.19        67.20868
814.60        67.80634
815.01         68.2362
815.42        68.42281
815.83        68.43211
816.24        68.32066
816.65        68.20238
817.05        68.13189
817.46         68.0464
817.87         67.9636
818.28        67.87524
818.69        67.77477
819.10        67.67603
819.51        67.59147
819.92         67.5302
820.33        67.49494
820.74        67.48422
821.14        67.46272
821.55        67.40173
821.96        67.29107
822.37        67.16204
822.78        67.06535
823.19        67.08881
823.60        67.26009
824.00        67.55958
824.41        67.92484
824.82        68.35761
825.23        68.81063
825.64        69.24708
826.04        69.59514
826.45        69.66904
826.86        69.46535
827.27        69.05585
827.68        68.49956
828.08        67.92016
828.49         67.3591
828.90        66.81208
829.31         66.4231
829.72        66.39924
830.12        66.79172
830.53        67.52771
830.94        68.32006
831.35        68.59756
831.75        68.23879
832.16         67.3614
832.57        66.42587
832.97        66.13976
833.38        66.63523
833.79        67.68366
834.20        68.88724
834.60        69.55964
835.01        69.47153
835.42        68.87843
835.82         68.0442
836.23        67.36373
836.64        66.98732
837.04        66.80531
837.45        66.78751
837.86        66.95551
838.26        67.28097
838.67        67.73047
839.08        68.20465
839.48        68.48997
839.89        68.52126
840.29        68.36102
840.70        68.07205
841.11        67.73759
841.51         67.4266
841.92        67.09153
842.33        66.87723
842.73        67.02262
843.14        67.50705
843.54        68.31952
843.95        69.15851
844.35        69.57147
844.76        69.40961
845.17        68.79037
845.57         68.0258
845.98        67.60869
846.38        67.68148
846.79        68.09126
847.19        68.58672
847.60        68.65698
848.00        68.20258
848.41        67.39078
848.81        66.53554
849.22        66.07587
849.62        66.13541
850.03        66.55212
850.43        67.11528
850.84         67.3337
851.24        67.13416
851.65        66.64002
852.05        66.13035
852.46        66.02157
852.86        66.38368
853.27        67.03259
853.67        67.73387
854.07        68.36291
854.48        68.80576
854.88        69.20321
855.29        69.34242
855.69        69.09489
856.10        68.37476
856.50        67.34618
856.90         66.3046
857.31        65.67981
857.71        65.55602
858.12        65.76694
858.52        66.23351
858.92        66.58637
859.33        66.66833
859.73          66.626
860.13        66.38811
860.54        65.87982
860.94        65.14469
861.34        64.19429
861.75        63.30704
862.15        63.01703
862.55        63.42559
862.96        64.36657
863.36         65.5101
863.76        66.22033
864.17        66.31496
864.57        65.97581
864.97        65.43256
865.38        65.08393
865.78        65.07915
866.18        65.26342
866.58         65.5143
866.99        65.63039
867.39        65.57757
867.79        65.45356
868.19        65.28413
868.60        65.05324
869.00        64.77192
869.40        64.42582
869.80        64.15459
870.21        64.21821
870.61        64.69881
871.01        65.45326
871.41        66.17254
871.81        66.39465
872.22        66.02525
872.62        65.20725
873.02         64.2307
873.42         63.5796
873.82        63.41952
874.22        63.64896
874.63        64.07664
875.03        64.38452
875.43        64.48957
875.83        64.48493
876.23        64.55061
876.63         64.9671
877.03        65.75679
877.44        66.75166
877.84        67.69897
878.24        68.14724
878.64        67.98424
879.04        67.37796
879.44        66.54819
879.84        65.82443
880.24        65.32266
880.64        64.96169
881.04        64.74931
881.44        64.67957
881.84        64.74098
882.24        64.98515
882.65        65.27658
883.05         65.4521
883.45        65.41909
883.85        65.18564
884.25        64.96326
884.65        65.08932
885.05        65.60883
885.45        66.42727
885.85        67.21853
886.25        67.42703
886.65        66.92505
887.05         65.8877
887.45        64.74828
887.85        64.17818
888.25        64.34249
888.65        65.05911
889.04         65.9351
889.44        66.30286
889.84        66.00727
890.24         65.2472
890.64        64.41438
891.04        64.06788
891.44        64.33002
891.84        65.05397
892.24        65.84359
892.64         66.0415
893.04        65.50932
893.44        64.46226
893.83         63.4434
894.23        63.27284
894.63        64.07578
895.03        65.59756
895.43         67.2305
895.83        67.87474
896.23        67.25797
896.63        65.81344
897.02        64.13954
897.42        63.16851
897.82        63.05539
898.22        63.55333
898.62        64.39896
899.01        65.17043
899.41        65.64202
899.81        65.95965
900.21        66.24221
900.61        66.67097
901.00        67.27161
901.40        67.90857
901.80         68.3932
902.20        68.47952
902.59        68.14189
902.99        67.48753
903.39        66.75224
903.79        66.30434
904.18        66.22496
904.58        66.41771
904.98        66.71159
905.38        66.84509
905.77        66.74635
906.17        66.54099
906.57        66.24912
906.96        65.91795
907.36        65.57496
907.76        65.19606
908.15        64.94979
908.55        65.06583
908.95        65.58664
909.34        66.46873
909.74        67.37329
910.14        67.81595
910.53        67.66973
910.93         67.0503
911.33        66.30626
911.72         66.0021
912.12        66.27945
912.52        66.95726
912.91          67.654
913.31        67.73491
913.70        67.07726
914.10        65.93337
914.49        64.72086
914.89        64.05237
915.29        64.09163
915.68        64.63132
916.08        65.43037
916.47        66.09325
916.87        66.46127
917.26        66.66064
917.66        66.72055
918.05        66.68313
918.45        66.57722
918.84         66.3854
919.24        66.18617
919.64        66.21453
920.03        66.52393
920.42        67.03598
920.82        67.57476
921.21        67.89111
921.61        67.89136
922.00         67.6428
922.40        67.23556
922.79        66.91335
923.19        66.74238
923.58        66.66409
923.98        66.55926
924.37        66.20181
924.77        65.59489
925.16        64.82195
925.55        64.08432
925.95        63.69099
926.34        63.75727
926.74        64.15289
927.13         64.7949
927.52         65.4549
927.92        66.01211
928.31        66.50199
928.70        66.86736
929.10        67.04958
929.49        67.05876
929.89        66.90109
930.28        66.60568
930.67        66.19894
931.07         65.7234
931.46        65.19827
931.85        64.79913
932.24        64.79346
932.64        65.20993
933.03        66.00218
933.42          66.836
933.82        67.20357
934.21        67.00347
934.60        66.35467
934.99        65.66159
935.39        65.53129
935.78        66.11603
936.17         67.2562
936.56        68.47054
936.96        68.87955
937.35        68.29649
937.74        66.99818
938.13        65.57166
938.53        64.77611
938.92        64.73427
939.31        65.25838
939.70        66.01575
940.09        66.40444
940.49        66.24038
940.88        65.73716
941.27        65.17841
941.66        64.98575
942.05        65.26038
942.44        65.85229
942.84        66.52516
943.23        66.94551
943.62        66.94553
944.01        66.64725
944.40        66.22615
944.79        65.95308
945.18        65.90621
945.57        65.98888
945.97        66.09108
946.36        66.14137
946.75        66.07519
947.14         65.9444
947.53        65.77163
947.92        65.58292
948.31        65.40347
948.70        65.23464
949.09        65.10415
949.48        65.04756
949.87        65.08303
950.26         65.2259
950.65        65.45447
951.04        65.72968
951.43        66.00561
951.82        66.21328
952.21        66.39483
952.60        66.64256
952.99        66.93459
953.38        67.24137
953.77        67.32153
954.16        66.76007
954.55        65.56573
954.94        64.00353
955.33        62.50464
955.72        61.70831
956.11        61.75765
956.50        62.39882
956.89        63.47811
957.28        64.74172
957.66        66.05677
958.05        67.37915
958.44        68.32384
958.83        68.16932
959.22        66.85513
959.61        64.68912
960.00        62.42845
960.39        61.15228
960.78        61.08479
961.16        61.96903
961.55         63.3459
961.94        64.50829
962.33        65.16004
962.72        65.47919
963.11        65.49171
963.49        65.28082
963.88         64.8853
964.27        64.29255
964.66        63.61285
965.04        63.02784
965.43        62.56413
965.82        62.19418
966.21        61.95251
966.60        61.86073
966.98        61.92779
967.37        62.16767
967.76        62.41389
968.15        62.37184
968.53        61.99503
968.92        61.32513
969.31        60.68211
969.69        60.58938
970.08        61.10835
970.47        62.10137
970.86        63.13997
971.24        63.45093
971.63        62.78815
972.02        61.46327
972.40        59.95656
972.79        59.01523
973.17        58.85865
973.56        59.25245
973.95        59.96286
974.33        60.64128
974.72        61.12202
975.11        61.48421
975.49        61.88183
975.88        62.55186
976.26        63.55967
976.65        64.69214
977.04        65.54057
977.42        65.48396
977.81        64.42297
978.19        62.56076
978.58        60.77414
978.96        60.11934
979.35        60.80333
979.74        62.64345
980.12        64.98299
980.51        65.96503
980.89        65.20602
981.28        63.07876
981.66        60.67928
982.05        59.86811
982.43        61.02979
982.82        63.59912
983.20        66.67202
983.59        68.53523
983.97        68.76734
984.35        67.83356
984.74        66.26537
985.12        65.06033
985.51        64.51231
985.89        64.26945
986.28        64.30166
986.66        64.39236
987.04        64.57232
987.43          64.992
987.81        65.51142
988.20        65.67117
988.58        65.42737
988.96        64.66557
989.35        63.97383
989.73        64.31947
990.12        65.76698
990.50        68.08473
990.88        70.08815
991.27        69.84208
991.65        67.14447
992.03        62.77282
992.42        58.28883
992.80        55.82848
993.18        56.03548
993.56        58.21088
993.95        61.44649
994.33        64.37763
994.71        66.15852
995.10        67.15014
995.48        67.24245
995.86        66.29154
996.24        64.50737
996.63         61.9808
997.01        59.31401
997.39        57.41941
997.77        56.50782
998.15        56.41003
998.54        56.98439
998.92        57.84046
999.30        58.77804
999.68        59.91683
1000.06        60.95438
1000.45        61.34414
1000.83        61.07896
1001.21        60.11441
1001.59        58.95345
1001.97        58.57966
1002.35        59.22782
1002.73        60.60338
1003.12         62.1498
1003.50        62.85151
1003.88        62.50981
1004.26        61.56664
1004.64         60.3566
1005.02        59.32092
1005.40        58.64121
1005.78        58.13889
1006.16        58.03431
1006.54        58.72989
1006.92        60.17714
1007.30        62.17933
1007.69        64.03428
1008.07        64.81915
1008.45        64.21049
1008.83        62.52807
1009.21          60.249
1009.59        58.20267
1009.97        56.79027
1010.35        55.90937
1010.73        55.70167
1011.11        56.36256
1011.49         57.9122
1011.86        60.48137
1012.24        63.61627
1012.62        66.76928
1013.00        69.59142
1013.38         71.9759
1013.76        73.74754
1014.14        74.87263
1014.52        75.32759
1014.90        75.00598
1015.28        74.01688
1015.66        72.72063
1016.04        71.43856
1016.41        70.33862
1016.79        69.39997
1017.17        68.33112
1017.55        66.90507
1017.93        64.87971
1018.31        62.42583
1018.69        60.71193
1019.06        60.50291
1019.44        61.46347
1019.82        62.30276
1020.20         61.7055
1020.58        59.56828
1020.95        55.90927
1021.33        51.78658
1021.71        50.08469
1022.09         52.3516
1022.46        57.69215
1022.84        63.86222
1023.22        67.89144
1023.60        68.99382
1023.97        68.01584
1024.35        65.53282
1024.73        62.72781
