SpectraSmart Spectrum 2.9.0.0
--------- Device Information -----------
Spectrum Name :  反射率_0
Saving Time :  2024/05/01 15:56:04
Spectro-Module Model Name : SE2030-DUVN
Spectro-Module Serial Number : OS361AC55029948
Wavelength Start : 200
Wavelength End : 1025
Wavelength Unit : Wavelength(nm)
Spectrum Unit : Reflectance(%)
-----------Spectrum Setting ------------
Integration Time : 20ms
Average : 10
Boxcar : 0
Background removal :  enabled
linearity correction :  enabled
SC :  disabled
Intensity correction :  disabled
DWT denoise :  enabled
savitzky-golay :  disabled
FFT :  disabled
Running average :  disabled
Kalman :  disabled
High pass :  disabled
---------------BEGIN--------------------
Wavelength(nm)             Reflectance(%)
200.29               0
200.75        49.98013
201.21         271.257
201.67       -115.9076
202.13       -33.45204
202.58       -2.039788
203.04        18.71086
203.50        32.31888
203.96        38.78889
204.42        39.88752
204.88        33.47967
205.34       -142.7028
205.80        55.81901
206.26        25.30331
206.72       -26.96227
207.18       -281.7266
207.64        441.9664
208.10        184.6886
208.55        119.0096
209.01        86.73074
209.47        73.11458
209.93        70.46534
210.39        72.62318
210.85        77.87852
211.31        85.50015
211.77        104.1774
212.23       -47.01194
212.69        50.92239
213.14        74.71931
213.60        136.2199
214.06       -508.9172
214.52       -58.69735
214.98       -24.85974
215.44       -9.385489
215.90        13.87644
216.36        302.8904
216.81       -138.3173
217.27       -163.5512
217.73        249.6024
218.19        22.21054
218.65       -9.742508
219.11       -40.53654
219.57       -117.3188
220.02        -404.801
220.48       -187.8612
220.94       -37.42581
221.40      0.04065852
221.86        13.86528
222.32         21.1732
222.77        27.15893
223.23        33.98452
223.69         40.1461
224.15        38.26416
224.61        28.91415
225.06        18.87039
225.52         12.3142
225.98          9.8871
226.44        10.55889
226.90        13.77136
227.36        19.37112
227.81        24.37946
228.27        26.13673
228.73        25.80492
229.19        24.76819
229.65        23.94076
230.10        23.41348
230.56        23.06454
231.02        22.82473
231.48        22.86615
231.93        23.21249
232.39        23.75155
232.85        24.76931
233.31         26.6207
233.77        29.06641
234.22        31.87827
234.68        34.27287
235.14        35.47261
235.60        35.42622
236.05         34.1826
236.51        32.25712
236.97        31.92632
237.43        34.79881
237.88        40.35764
238.34        46.19967
238.80        50.03045
239.26        51.53299
239.71        51.16747
240.17        48.32341
240.63        43.72577
241.08        40.03377
241.54        38.51955
242.00        40.15505
242.46        45.95624
242.91        57.80912
243.37        79.29768
243.83           115.3
244.28        145.8477
244.74        143.4024
245.20        125.0957
245.66        108.0166
246.11        96.86605
246.57         88.9264
247.03        79.54935
247.48        65.32949
247.94        46.01588
248.40        28.29185
248.85         17.3766
249.31        17.10193
249.77        24.29377
250.22        33.64905
250.68        42.67128
251.14        49.16719
251.59        52.07507
252.05        51.91504
252.51        48.08578
252.96        37.58158
253.42        28.24516
253.88        42.95956
254.33        62.70175
254.79        71.88905
255.25        74.79202
255.70        74.86784
256.16        74.40194
256.62        73.45808
257.07        72.05711
257.53        70.99621
257.99        70.00567
258.44        68.92007
258.90        68.10646
259.35        67.14122
259.81        66.28867
260.27        65.40192
260.72          64.422
261.18        63.64483
261.63         62.7607
262.09        61.96077
262.55        61.01788
263.00        59.81525
263.46        58.56216
263.91        57.15502
264.37        55.81331
264.83        54.50414
265.28        53.22183
265.74        51.98768
266.19        50.55105
266.65        49.02182
267.11        47.38576
267.56        45.91562
268.02        45.13105
268.47        45.03764
268.93        45.43182
269.38        45.85149
269.84        45.49576
270.30        44.23154
270.75        42.33247
271.21        40.27307
271.66        38.64764
272.12        37.67423
272.57        37.08051
273.03        36.75755
273.48        36.48269
273.94         36.1726
274.39        35.87126
274.85        35.48806
275.31         34.8089
275.76        33.83977
276.22        32.71785
276.67        31.60077
277.13        30.82637
277.58        30.37968
278.04        30.17843
278.49        30.07225
278.95        29.94406
279.40        29.68946
279.86         29.3996
280.31          28.999
280.77         28.4738
281.22        27.80852
281.68        27.08579
282.13        26.37293
282.59        25.85467
283.04        25.53094
283.50        25.39217
283.95        25.36208
284.41        25.36702
284.86        25.36061
285.32        25.37649
285.77        25.42289
286.22        25.55054
286.68        25.76679
287.13        26.02701
287.59        26.28543
288.04        26.42946
288.50        26.46165
288.95        26.37471
289.41        26.28538
289.86        26.28367
290.32        26.42002
290.77        26.66682
291.22        26.94742
291.68        27.13013
292.13        27.20805
292.59        27.27671
293.04        27.46102
293.50        28.00006
293.95        28.92004
294.40         30.1467
294.86        31.54934
295.31        32.92713
295.77         34.2013
296.22        35.40671
296.68        36.57654
297.13        37.75344
297.58        38.98298
298.04        40.27123
298.49        41.61856
298.95        43.06617
299.40        44.58536
299.85        46.15704
300.31         47.8022
300.76        49.54169
301.21        51.38146
301.67        53.31411
302.12        55.20117
302.58        56.85036
303.03        58.18477
303.48         59.2998
303.94         60.3953
304.39        61.67387
304.84        63.24661
305.30        65.03332
305.75        66.93284
306.20        68.81409
306.66        70.60658
307.11         72.2807
307.57        73.81554
308.02        75.07816
308.47         76.1022
308.93        76.93143
309.38        77.62807
309.83         78.3839
310.29        79.26512
310.74        80.22417
311.19        81.20964
311.65        82.10907
312.10        82.87576
312.55        83.54582
313.00        84.21033
313.46        85.01218
313.91        85.95361
314.36        86.96948
314.82        87.88371
315.27        88.43615
315.72         88.5611
316.18        88.38164
316.63        88.05032
317.08        87.85655
317.53        87.89013
317.99        88.08632
318.44        88.38335
318.89        88.65414
319.35        88.85909
319.80        89.05941
320.25        89.27947
320.70        89.55532
321.16        89.87723
321.61         90.2152
322.06        90.55855
322.51        90.91987
322.97        91.26374
323.42        91.61919
323.87        91.88535
324.32        91.92247
324.78        91.71073
325.23        91.33609
325.68        90.93819
326.13        90.75993
326.59        90.85174
327.04        91.19878
327.49        91.68208
327.94         92.1132
328.39        92.42037
328.85        92.60862
329.30        92.79555
329.75         93.0477
330.20        93.38865
330.66        93.75483
331.11        94.12259
331.56        94.34764
332.01        94.41959
332.46        94.39867
332.92        94.38744
333.37        94.64935
333.82        95.21885
334.27         96.0391
334.72         96.9954
335.17        97.87775
335.63        98.56413
336.08        99.12536
336.53        99.56723
336.98        99.97071
337.43        100.3739
337.88         100.764
338.34        101.0784
338.79        101.3027
339.24        101.4111
339.69        101.4275
340.14        101.4985
340.59        101.8401
341.05        102.4739
341.50        103.3559
341.95        104.2453
342.40        104.7498
342.85        104.7984
343.30        104.5276
343.75        104.2286
344.20        104.3596
344.66         105.019
345.11        106.0446
345.56        107.2134
346.01        108.1408
346.46        108.6959
346.91        109.0071
347.36        109.1549
347.81        109.2629
348.26        109.3967
348.72         109.517
349.17        109.6626
349.62        109.9732
350.07        110.4384
350.52        110.9957
350.97         111.507
351.42        111.7281
351.87        111.6119
352.32        111.2782
352.77        110.7674
353.22        110.1519
353.67        109.4966
354.13        108.7981
354.58        108.2244
355.03        108.1377
355.48        108.5677
355.93        109.4445
356.38        110.3247
356.83        110.4562
357.28         109.694
357.73        108.2684
358.18        106.7729
358.63        106.0983
359.08        106.3999
359.53        107.3833
359.98         108.489
360.43        108.7807
360.88        108.0145
361.33        106.5227
361.78        104.7856
362.23        103.4864
362.68        102.8015
363.13        102.5152
363.58        102.3718
364.03        101.9829
364.48        101.2347
364.93        100.2627
365.38        99.26082
365.83        98.49174
366.28        98.01012
366.73        97.72921
367.18        97.42982
367.63        96.78471
368.08        95.75517
368.53        94.47669
368.98        93.25255
369.43        92.51376
369.88        92.32514
370.33         92.5365
370.78         92.8514
371.23        92.75682
371.68        92.11198
372.13        91.09923
372.58        89.95834
373.03        89.04155
373.48        88.43848
373.93        88.01257
374.38        87.69391
374.83         87.3839
375.28        87.02779
375.72        86.66039
376.17        86.23552
376.62        85.61213
377.07        84.79047
377.52        83.81495
377.97         82.8401
378.42        82.11996
378.87        81.70964
379.32        81.53232
379.77        81.45529
380.22        81.26503
380.67         80.9018
381.11        80.43587
381.56        79.92484
382.01        79.48499
382.46        79.15801
382.91        78.89867
383.36        78.68154
383.81        78.47471
384.26        78.25591
384.71        78.03254
385.15        77.78107
385.60        77.50739
386.05          77.198
386.50        76.85793
386.95         76.4894
387.40        76.10696
387.85         75.7209
388.29        75.28475
388.74         74.9133
389.19        74.58948
389.64        74.31436
390.09        74.08193
390.54        73.85137
390.98        73.56675
391.43        73.27437
391.88        72.91182
392.33        72.57753
392.78        72.48947
393.23        72.54551
393.67         72.4407
394.12        72.31948
394.57        71.66428
395.02        72.18335
395.47        71.72308
395.91        70.95277
396.36        70.56411
396.81        70.62939
397.26        70.79922
397.71        70.88841
398.15        70.78389
398.60        70.52295
399.05        70.01333
399.50        69.46925
399.95        69.39692
400.39        69.74972
400.84        69.89671
401.29        69.71831
401.74         69.4855
402.18        69.18064
402.63        68.56995
403.08        67.85142
403.53        67.43315
403.97        67.36381
404.42        67.53049
404.87        67.77801
405.32         67.8381
405.76         67.6349
406.21        67.37257
406.66        67.11729
407.11        66.76265
407.55        66.47829
408.00        66.66293
408.45        67.19341
408.90        67.48323
409.34        67.36105
409.79        66.89124
410.24         66.2585
410.68        65.87858
411.13        65.82718
411.58        65.86453
412.03         65.9293
412.47        66.02904
412.92        66.10306
413.37        66.16548
413.81        66.19843
414.26        66.22774
414.71        66.24041
415.15        66.24016
415.60        66.21446
416.05        66.20707
416.49        66.22604
416.94        66.24896
417.39        66.27353
417.83        66.28204
418.28        66.27975
418.73        66.28838
419.17        66.28394
419.62        66.25655
420.07        66.20927
420.51        66.05457
420.96        65.92355
421.41        66.08652
421.85        66.43629
422.30        66.69499
422.74         66.7872
423.19        66.74448
423.64        66.65305
424.08        66.92276
424.53        67.47735
424.98        67.66685
425.42        67.59868
425.87         67.6504
426.31        67.85442
426.76        67.44807
427.21        66.71872
427.65        67.04489
428.10        68.14387
428.54        68.50307
428.99        68.13306
429.44         67.5379
429.88        67.01311
430.33        67.65822
430.77        68.94166
431.22        68.73144
431.66        67.27021
432.11        66.69228
432.56        67.15911
433.00        67.86457
433.45        68.56395
433.89        68.62547
434.34        67.87577
434.78         69.3417
435.23        68.94827
435.67        69.09755
436.12        68.77593
436.57        69.07771
437.01        69.81987
437.46        70.62603
437.90        70.04639
438.35        69.93053
438.79        69.90546
439.24        69.64023
439.68         69.2527
440.13        69.32277
440.57        69.82776
441.02        70.19462
441.46        70.33409
441.91        70.67129
442.35         71.0135
442.80        71.04136
443.24        70.77946
443.69        70.61685
444.13        70.61768
444.58         70.6732
445.02        70.77882
445.47        71.05171
445.91        71.44524
446.36        71.79615
446.80        72.04709
447.24        72.35358
447.69         72.6448
448.13        72.53736
448.58        72.16995
449.02        72.12205
449.47        72.40678
449.91        72.51089
450.36        72.44506
450.80        72.50745
451.25        72.68602
451.69        72.73818
452.13         72.6633
452.58        72.58245
453.02        72.49181
453.47        72.36433
453.91        72.19289
454.36        72.06232
454.80        71.96028
455.24        71.76541
455.69        71.47834
456.13        71.48341
456.58        71.21067
457.02        71.22697
457.46        71.37268
457.91        71.72816
458.35        72.11463
458.79        72.09813
459.24        71.66004
459.68        71.11169
460.13        70.76203
460.57        69.77776
461.01        70.24199
461.46        70.27103
461.90        70.64468
462.34        70.83833
462.79        69.83047
463.23        70.02417
463.68         70.8585
464.12        71.08365
464.56        70.64311
465.01        70.23846
465.45        69.97698
465.89        70.11993
466.34        70.48997
466.78        70.55676
467.22        69.76807
467.67        69.58902
468.11        69.63857
468.55        69.73794
468.99        69.74905
469.44        69.76334
469.88        69.78192
470.32        69.80371
470.77        69.83334
471.21        69.86349
471.65        69.87384
472.10        69.87776
472.54        69.85812
472.98        69.78371
473.42        69.64532
473.87        69.57963
474.31        69.53189
474.75        69.21741
475.20        68.78023
475.64        68.83027
476.08        69.25631
476.52        69.34498
476.97        69.03016
477.41        68.99493
477.85        68.39365
478.29        68.94025
478.74        68.93303
479.18        69.41421
479.62           68.88
480.06        68.87812
480.50        69.10598
480.95        68.31364
481.39        68.94877
481.83        67.83167
482.27        68.27032
482.72        68.17544
483.16        68.32498
483.60        68.37473
484.04        68.81646
484.48         68.9408
484.93        69.08511
485.37        69.67122
485.81        69.64101
486.25         70.0156
486.69        69.72745
487.14        67.62169
487.58        67.37056
488.02        68.56429
488.46        68.46217
488.90        67.93728
489.34        68.66716
489.79        68.46107
490.23        68.82101
490.67        68.52054
491.11        68.00725
491.55        68.07728
491.99        68.62302
492.43        68.75439
492.88        68.40549
493.32        68.23368
493.76        68.11421
494.20        68.11395
494.64        68.18399
495.08        68.28567
495.52        68.39989
495.96        68.53618
496.41        68.62823
496.85        68.66228
497.29        68.56091
497.73        68.11942
498.17        67.50527
498.61        67.25116
499.05        67.37477
499.49        67.73492
499.93        68.15142
500.37        68.28046
500.82        68.14192
501.26        68.17331
501.70        68.37432
502.14        68.48612
502.58        68.34998
503.02        68.22012
503.46        68.07407
503.90         67.8688
504.34        67.68771
504.78        67.66917
505.22        67.82533
505.66        68.14835
506.10        68.52002
506.54        68.64011
506.98        68.43973
507.42        68.37302
507.86        67.90475
508.30        67.75044
508.74        67.76555
509.18        67.90375
509.62        68.09507
510.06        68.23891
510.50        68.30174
510.94          68.312
511.38        68.28018
511.82        68.21822
512.26        68.13329
512.70        68.01263
513.14        67.87714
513.58        67.75879
514.02         67.6685
514.46        67.62634
514.90        67.60031
515.34        67.49767
515.78        67.35175
516.22        67.20814
516.66        67.28772
517.10        67.30389
517.54        67.31685
517.98        67.38956
518.42         67.5091
518.86        67.61022
519.30        67.67833
519.74        67.73073
520.18        67.76116
520.62        67.76485
521.06        67.74182
521.50        67.68344
521.93        67.61591
522.37        67.57401
522.81        67.57018
523.25        67.60363
523.69        67.62506
524.13        67.55328
524.57        67.38413
525.01        67.14993
525.45        66.93956
525.89        66.89073
526.32        67.02564
526.76        67.29379
527.20        67.59782
527.64        67.78288
528.08        67.80592
528.52        67.71849
528.96        67.57549
529.40        67.46509
529.83        67.40979
530.27        67.39346
530.71        67.40983
531.15        67.46769
531.59        67.55994
532.03         67.6869
532.46        67.79929
532.90        67.83571
533.34        67.78591
533.78        67.61737
534.22        67.39284
534.66        67.32816
535.09        67.37984
535.53         67.2773
535.97         67.0359
536.41        66.92005
536.85        66.93974
537.28        66.95025
537.72        66.93803
538.16        66.94214
538.60        66.95544
539.04        66.96209
539.47          66.965
539.91        67.00816
540.35        67.07579
540.79        67.18093
541.22         67.2922
541.66        67.26553
542.10        67.26144
542.54        67.15811
542.97        67.03738
543.41        66.98096
543.85        66.99521
544.29        67.06374
544.72        67.13641
545.16        67.17136
545.60        67.14197
546.04        67.05763
546.47        66.96169
546.91         66.9354
547.35        66.99834
547.79        67.10554
548.22          67.157
548.66         67.1457
549.10        67.06061
549.53        66.61884
549.97        66.49242
550.41         66.4085
550.84         66.5684
551.28        66.88383
551.72        67.25896
552.15        67.53242
552.59        67.62572
553.03        67.63624
553.46        67.29498
553.90         67.2253
554.34        67.36794
554.77        67.39823
555.21        67.24096
555.65        67.68232
556.08        67.38578
556.52        67.21645
556.96         66.8623
557.39        66.64256
557.83        66.62568
558.27        66.64063
558.70        66.64697
559.14        66.93643
559.57        66.89278
560.01        67.02077
560.45        67.08513
560.88         67.1361
561.32        67.17789
561.75        66.82297
562.19         66.3049
562.63        66.43945
563.06        67.06155
563.50        67.06171
563.93        66.52464
564.37        66.19021
564.80        66.63307
565.24        66.84149
565.68        66.90569
566.11        66.90999
566.55        66.88383
566.98        66.81408
567.42        66.77167
567.85        66.79382
568.29        66.87859
568.72        66.94985
569.16        67.08529
569.60         67.0722
570.03        66.81933
570.47        67.20364
570.90        67.46513
571.34        66.55415
571.77        67.09224
572.21        67.00485
572.64        67.21773
573.08        66.82915
573.51        67.17197
573.95        67.78469
574.38        67.09372
574.82        67.24491
575.25        67.53717
575.69        67.79421
576.12        67.78555
576.56        67.20396
576.99        67.39236
577.42        67.43501
577.86        67.37363
578.29        67.66566
578.73        68.55431
579.16         67.7269
579.60        66.71075
580.03         66.8121
580.47        67.48396
580.90        66.72561
581.33        67.72036
581.77         67.8347
582.20        67.91943
582.64        67.80198
583.07         67.4251
583.51        67.02814
583.94        66.86856
584.37        67.14017
584.81        67.82652
585.24        67.69125
585.68        67.72613
586.11         67.5986
586.54        67.71435
586.98        66.94183
587.41        66.43733
587.85        67.61684
588.28        67.79935
588.71        66.43711
589.15        67.42011
589.58        66.55887
590.01        66.35226
590.45        66.41476
590.88        67.02313
591.31        67.20062
591.75        66.79308
592.18        66.87639
592.61        66.59679
593.05        66.62775
593.48        66.85821
593.91        67.03663
594.35        66.49697
594.78        66.39355
595.21        66.41791
595.65         66.9963
596.08        66.62653
596.51        66.58887
596.94        66.16571
597.38        66.24746
597.81        66.70342
598.24        66.46792
598.68        66.74165
599.11           66.06
599.54        67.65893
599.97        67.30836
600.41        66.40872
600.84        67.08988
601.27        67.00696
601.70        67.13564
602.14        67.60516
602.57        67.35165
603.00        66.85754
603.43         66.4831
603.87        66.67858
604.30        67.34672
604.73        66.72212
605.16        66.38329
605.60        66.41019
606.03        66.68813
606.46        67.10899
606.89         67.1566
607.32        66.52971
607.76        66.33054
608.19        66.51656
608.62        66.92404
609.05        66.60439
609.48        67.00359
609.92        66.47696
610.35        66.27846
610.78        67.52731
611.21        67.58663
611.64        66.84009
612.07         67.1961
612.50        67.51299
612.94        67.30027
613.37        66.92307
613.80        66.99992
614.23         66.7069
614.66        66.98672
615.09        66.52581
615.52        66.60673
615.96        66.85735
616.39        66.99152
616.82        66.97611
617.25        66.98067
617.68        66.99609
618.11        66.88076
618.54        66.66483
618.97        66.46836
619.40        66.38769
619.84        66.35083
620.27        66.35162
620.70        66.82401
621.13        67.64523
621.56        66.99267
621.99        66.27949
622.42        66.61956
622.85        66.89542
623.28        66.86223
623.71        66.47491
624.14        67.03203
624.57        66.93555
625.00        67.11719
625.43        67.09035
625.86        66.83486
626.29        66.47194
626.72        66.63656
627.15        66.25365
627.58        66.17127
628.01        66.07233
628.44        66.14533
628.87        66.31643
629.30        66.31116
629.73        66.17098
630.16        66.15866
630.59        66.28131
631.02        66.38062
631.45        66.41347
631.88        66.38985
632.31        66.30042
632.74        66.14382
633.17        65.99123
633.60        65.93009
634.03        65.97552
634.46        66.18216
634.89        66.45729
635.32        66.44485
635.75        66.20123
636.18        66.21839
636.61         66.4627
637.04        66.49567
637.47        66.31435
637.89        66.14614
638.32         66.0046
638.75        65.94678
639.18        65.97788
639.61        65.72195
640.04        65.69721
640.47        65.63861
640.90        65.69908
641.33        65.77876
641.76        65.82816
642.18        65.89373
642.61        65.96208
643.04        65.87037
643.47        65.59032
643.90        66.03255
644.33        65.77444
644.76        65.79768
645.18        65.72562
645.61        65.92132
646.04        66.28259
646.47         66.2623
646.90        65.91598
647.33        65.81565
647.75        65.99189
648.18        66.02577
648.61        65.95043
649.04        66.09087
649.47        66.32936
649.89        66.40035
650.32        66.26397
650.75        65.75998
651.18        65.14738
651.61        65.42542
652.03        66.45129
652.46        66.60272
652.89        65.83408
653.32        65.73069
653.74        66.54514
654.17        65.70499
654.60        66.35406
655.03        66.83341
655.46        65.36295
655.88        65.85278
656.31        72.24511
656.74        71.36098
657.16         66.1384
657.59        64.68388
658.02        65.54247
658.45        66.27959
658.87        65.93721
659.30        65.53454
659.73        65.80402
660.15        66.43648
660.58        66.28004
661.01        66.07647
661.44        65.59799
661.86        65.53126
662.29        65.85277
662.72         66.0727
663.14        66.12622
663.57        66.07594
664.00        65.98212
664.42         65.9749
664.85        66.07082
665.27        66.12545
665.70        66.12815
666.13        66.14291
666.55        66.17699
666.98        66.19862
667.41        66.21159
667.83        66.23139
668.26        66.24236
668.69         66.2402
669.11        66.24576
669.54        66.29414
669.96        66.37377
670.39         66.4736
670.82         66.5653
671.24        66.49939
671.67        66.34134
672.09        66.39293
672.52         66.6184
672.94        66.64803
673.37        66.47189
673.80        66.29264
674.22        66.16858
674.65        66.07121
675.07        66.03634
675.50        66.05876
675.92        66.12526
676.35        66.20177
676.77        66.27689
677.20        66.34731
677.62        66.41117
678.05         66.4542
678.47        66.47301
678.90        66.47464
679.32         66.4546
679.75        66.43256
680.17        66.40476
680.60        66.36752
681.02        66.33652
681.45        66.30347
681.87        66.27885
682.30        66.31036
682.72        66.37547
683.15        66.27396
683.57        66.06448
684.00        66.04601
684.42        66.20926
684.85        66.28669
685.27        66.24821
685.70        66.29916
686.12        66.39737
686.54        66.30832
686.97        66.06126
687.39        65.99831
687.82        66.09074
688.24        65.94102
688.66        65.63197
689.09        65.70914
689.51        66.13222
689.94         66.3409
690.36        66.30327
690.78        66.31899
691.21         66.4461
691.63        66.57589
692.06        66.75954
692.48        67.21037
692.90         67.7738
693.33        67.99515
693.75        67.81721
694.17        67.38245
694.60        66.89581
695.02        66.62936
695.44        66.63366
695.87        66.74699
696.29        66.87595
696.71        66.56417
697.14        66.01314
697.56        66.27522
697.98         67.1884
698.41        67.49934
698.83        67.18616
699.25         67.1234
699.68        67.33445
700.10        67.41589
700.52        67.36041
700.94        67.30527
701.37        67.27377
701.79        67.35912
702.21        67.49268
702.64        67.49944
703.06         67.3745
703.48        67.18011
703.90         66.9119
704.33        66.96137
704.75        66.54315
705.17        66.49954
705.59        66.60072
706.01        66.80607
706.44        67.06321
706.86        67.30885
707.28        67.49445
707.70        67.67532
708.12        67.81063
708.55        67.71989
708.97        67.45192
709.39        67.27945
709.81         67.2412
710.23         67.1879
710.66        67.13174
711.08        67.20811
711.50        67.36543
711.92        67.46127
712.34         67.4725
712.76        67.44239
713.19        67.37737
713.61        67.33876
714.03        67.32431
714.45        67.31392
714.87        67.32596
715.29        67.39284
715.71        67.51369
716.13        67.68323
716.56        67.83086
716.98        67.92064
717.40        67.90572
717.82        67.80275
718.24        67.67803
718.66        67.64131
719.08        67.71469
719.50        67.86427
719.92         68.0186
720.34        68.06078
720.76        67.96515
721.19        67.77505
721.61        67.56073
722.03        67.42334
722.45        67.39754
722.87        67.46082
723.29        67.58285
723.71        67.68418
724.13        67.73299
724.55        67.79203
724.97        67.90134
725.39        67.83398
725.81        68.05271
726.23        68.17137
726.65        68.26143
727.07        68.21044
727.49        68.01214
727.91        67.70584
728.33        67.39382
728.75        67.23853
729.17        67.27309
729.59        67.47508
730.01        67.75678
730.43        67.88647
730.85        67.85223
731.27        67.88001
731.69        67.95366
732.10        67.90459
732.52         67.7426
732.94        67.54671
733.36        67.40794
733.78        67.42319
734.20        67.61187
734.62        67.99899
735.04        68.43031
735.46        68.53871
735.88        68.34352
736.30        68.16894
736.72        68.09099
737.13        68.12051
737.55        68.20306
737.97        68.13895
738.39        67.97218
738.81        68.05727
739.23        68.35657
739.65        68.47498
740.06        68.36374
740.48        68.33964
740.90        68.37413
741.32        68.32715
741.74        68.20879
742.16        68.09782
742.57        68.00777
742.99         67.9755
743.41        68.01226
743.83        67.96861
744.25        67.90638
744.67        68.16486
745.08         68.6434
745.50        68.78043
745.92        68.53592
746.34          68.176
746.75        67.81296
747.17          67.561
747.59        67.45405
748.01        67.47701
748.42        67.58729
748.84        67.65395
749.26        67.66729
749.68        67.70679
750.09        67.76756
750.51        67.81637
750.93        67.84868
751.35        67.87823
751.76        67.92332
752.18        67.99953
752.60        68.11317
753.01          68.276
753.43        68.43398
753.85        68.54037
754.27        68.58694
754.68        68.58956
755.10         68.5918
755.52        68.66109
755.93        68.79269
756.35        68.94279
756.77        69.07808
757.18        69.10811
757.60        69.03156
758.02        69.01793
758.43        68.97137
758.85        68.69587
759.26        68.08299
759.68        67.97912
760.10        68.28291
760.51        68.83369
760.93        69.49836
761.34        68.70258
761.76        69.11862
762.18        68.61439
762.59        68.20016
763.01         68.3282
763.42        68.96638
763.84        69.21275
764.26        68.98589
764.67        68.80107
765.09        68.75847
765.50        68.67384
765.92        68.60061
766.33        68.59029
766.75        68.57201
767.16        68.65671
767.58        68.79749
768.00        68.79417
768.41        68.77069
768.83        69.29208
769.24        70.15608
769.66        70.43236
770.07        70.10334
770.49        69.73049
770.90        69.48007
771.32        69.48779
771.73        69.70508
772.15        69.71523
772.56        69.51366
772.97        69.42221
773.39        69.45735
773.80        69.51881
774.22        69.57043
774.63        69.68585
775.05        69.80372
775.46         69.8952
775.88        69.92152
776.29        69.91449
776.70        69.89172
777.12        69.91402
777.53        69.99866
777.95        70.08769
778.36        70.16924
778.77        70.15585
779.19        70.03648
779.60        69.99416
780.02        69.98107
780.43        69.65147
780.84        69.19832
781.26        69.17108
781.67        69.55437
782.09        70.14484
782.50        70.63097
782.91        70.21226
783.33        69.16762
783.74        68.87662
784.15        69.46703
784.57        70.10529
784.98        70.64267
785.39        71.16674
785.81        71.59058
786.22        71.65938
786.63        71.80028
787.04        71.71096
787.46        71.57327
787.87        71.33392
788.28        71.11073
788.70        71.05064
789.11        71.15504
789.52        71.42496
789.93        71.72682
790.35        71.82155
790.76        71.67517
791.17        71.33317
791.58        70.95399
792.00        70.77116
792.41        70.85307
792.82        71.13902
793.23        71.46377
793.65        71.56128
794.06        71.38034
794.47        70.97882
794.88        70.57132
795.29        70.44846
795.71        70.58878
796.12        71.05225
796.53         71.6412
796.94        71.80829
797.35        71.49943
797.76        71.24773
798.18        71.16721
798.59        71.03321
799.00        70.89835
799.41         70.9237
799.82        71.09564
800.23        71.28479
800.64        71.46008
801.06        71.64455
801.47        71.81525
801.88        71.82864
802.29        71.66504
802.70        71.34689
803.11        71.00064
803.52        70.84186
803.93        70.93982
804.34        71.24545
804.75        71.63589
805.17        71.98166
805.58        72.27079
805.99        72.18916
806.40        71.87174
806.81        72.29292
807.22        73.14548
807.63        72.67917
808.04        71.12383
808.45        70.40797
808.86        70.69758
809.27        70.93781
809.68        71.01556
810.09        71.22675
810.50        71.51871
810.91        71.80994
811.32        72.04958
811.73        72.15479
812.14        72.11257
812.55        71.94764
812.96        71.75262
813.37           71.69
813.78        71.80473
814.19        72.05175
814.60        72.35138
815.01        72.57475
815.42        72.68401
815.83        72.71683
816.24        72.68852
816.65        72.62717
817.05        72.55648
817.46         72.4438
817.87        72.33358
818.28        72.25243
818.69        72.20309
819.10        72.17839
819.51         72.1788
819.92         72.1978
820.33        72.22353
820.74        72.25429
821.14        72.25021
821.55        72.17715
821.96          72.027
822.37         71.8392
822.78        71.66869
823.19        71.61221
823.60        71.70963
824.00        71.94721
824.41        72.28702
824.82        72.77313
825.23          73.362
825.64        74.00134
826.04        74.57358
826.45        74.80877
826.86        74.67812
827.27        74.26967
827.68        73.67035
828.08         73.0576
828.49        72.49072
828.90        71.95093
829.31        71.57728
829.72        71.56915
830.12        71.97571
830.53         72.7279
830.94        73.53624
831.35        73.81586
831.75        73.44551
832.16        72.54755
832.57        71.58803
832.97         71.2851
833.38        71.77021
833.79        72.80123
834.20        73.99308
834.60        74.68185
835.01        74.63487
835.42        74.10882
835.82        73.31089
836.23         72.5473
836.64        71.95918
837.04        71.46408
837.45        71.13427
837.86        71.16933
838.26        71.58503
838.67        72.29752
839.08        73.08335
839.48        73.52061
839.89        73.48627
840.29        73.10123
840.70        72.53989
841.11        72.06093
841.51        71.78041
841.92        71.60094
842.33        71.57611
842.73        71.79855
843.14        72.21062
843.54        72.85272
843.95        73.51944
844.35        73.92519
844.76        73.95267
845.17        73.65009
845.57        73.22143
845.98        72.99467
846.38        73.07378
846.79         73.3684
847.19        73.67834
847.60        73.57685
848.00        73.00992
848.41        72.10702
848.81        71.22706
849.22         70.8846
849.62        71.19566
850.03        71.97608
850.43        72.88155
850.84        73.16549
851.24        72.70568
851.65        71.70787
852.05        70.61979
852.46        70.15236
852.86        70.46841
853.27        71.28449
853.67        72.28606
854.07        73.26027
854.48        74.05227
854.88        74.85045
855.29        75.34962
855.69        75.24332
856.10        74.37829
856.50        72.95766
856.90        71.44908
857.31          70.541
857.71        70.37432
858.12        70.73659
858.52        71.42956
858.92        71.83172
859.33        71.72096
859.73        71.33728
860.13        70.77039
860.54         70.1914
860.94        69.68843
861.34        69.16902
861.75        68.76679
862.15        68.78065
862.55        69.23124
862.96        70.03907
863.36        70.92048
863.76        71.31469
864.17        71.08791
864.57        70.39025
864.97        69.54916
865.38        69.12478
865.78        69.28681
866.18        69.85191
866.58        70.50684
866.99        70.69196
867.39        70.29678
867.79        69.54327
868.19        68.68991
868.60        68.05962
869.00        67.74391
869.40        67.62647
869.80        67.73888
870.21        68.13476
870.61        68.80674
871.01        69.67019
871.41        70.42934
871.81        70.64199
872.22        70.23195
872.62        69.31931
873.02        68.23308
873.42        67.53729
873.82        67.41499
874.22        67.75147
874.63        68.30441
875.03        68.66744
875.43        68.73062
875.83        68.60266
876.23        68.51093
876.63        68.80919
877.03        69.54334
877.44        70.54266
877.84        71.49416
878.24        71.84341
878.64        71.47473
879.04        70.59855
879.44        69.57103
879.84        68.92379
880.24        68.79167
880.64        69.00977
881.04        69.40889
881.44        69.70584
881.84        69.80808
882.24        69.83186
882.65        69.76076
883.05        69.66573
883.45        69.54289
883.85        69.35222
884.25        69.22546
884.65        69.37672
885.05        69.83094
885.45        70.54644
885.85        71.28909
886.25        71.64523
886.65        71.50259
887.05        70.95616
887.45        70.30775
887.85         70.0396
888.25        70.26156
888.65        70.84245
889.04        71.45456
889.44        71.54455
889.84        71.01443
890.24        70.05114
890.64        69.04839
891.04        68.56205
891.44        68.70934
891.84        69.34674
892.24         70.0954
892.64        70.31557
893.04        69.86156
893.44        68.93721
893.83        68.01278
894.23        67.80849
894.63        68.43362
895.03        69.65652
895.43        70.97837
895.83        71.50001
896.23        70.99897
896.63        69.84104
897.02        68.48673
897.42        67.68729
897.82        67.55985
898.22        67.91183
898.62        68.57243
899.01        69.28059
899.41        69.85423
899.81        70.38971
900.21        70.91195
900.61        71.45067
901.00        71.98205
901.40        72.40599
901.80        72.62978
902.20        72.54989
902.59        72.18066
902.99        71.60826
903.39        70.96162
903.79        70.43424
904.18        70.09222
904.58        69.91231
904.98        69.90481
905.38        70.08583
905.77        70.41399
906.17        70.89211
906.57        71.33749
906.96        71.46397
907.36        71.20515
907.76        70.65979
908.15        70.08263
908.55        69.85158
908.95        70.08533
909.34        70.67803
909.74        71.41056
910.14        71.99732
910.53        72.31215
910.93        72.41876
911.33        72.37393
911.72        72.26604
912.12          72.151
912.52        71.99273
912.91        71.73864
913.31        71.31467
913.70        70.75108
914.10        70.12142
914.49        69.59558
914.89        69.39525
915.29        69.56203
915.68        70.01426
916.08        70.59645
916.47        71.05557
916.87        71.29406
917.26        71.37914
917.66        71.34749
918.05         71.2631
918.45        71.15783
918.84        71.04102
919.24        70.96147
919.64        71.08829
920.03        71.45689
920.42         71.9887
920.82        72.55997
921.21        73.01094
921.61        73.25069
922.00        73.30601
922.40        73.16747
922.79        72.91418
923.19        72.57777
923.58        72.18298
923.98        71.70536
924.37        71.03079
924.77        70.20728
925.16        69.28818
925.55        68.51822
925.95        68.27121
926.34        68.66302
926.74         69.5431
927.13        70.70346
927.52        71.71212
927.92         72.3949
928.31        72.81856
928.70        73.04455
929.10        73.22979
929.49        73.43432
929.89        73.58869
930.28        73.58927
930.67        73.24329
931.07        72.53423
931.46        71.55746
931.85        70.61083
932.24        70.15858
932.64        70.30082
933.03           70.95
933.42        71.69766
933.82        71.91579
934.21        71.47747
934.60        70.55341
934.99        69.62943
935.39        69.42475
935.78        70.12194
936.17        71.53138
936.56        73.08459
936.96        73.73846
937.35        73.24586
937.74        71.90834
938.13        70.42277
938.53        69.71372
938.92        69.92937
939.31         70.8378
939.70        71.97413
940.09        72.49442
940.49        72.15783
940.88        71.27007
941.27        70.28989
941.66        69.89312
942.05        70.24336
942.44         71.1252
942.84        72.18507
943.23        72.87476
943.62        72.94033
944.01        72.57554
944.40        72.03539
944.79        71.71957
945.18        71.73929
945.57        71.92861
945.97        72.15499
946.36        72.32449
946.75        72.35218
947.14        72.31071
947.53        72.16154
947.92        71.81818
948.31        71.30762
948.70        70.68834
949.09        70.12937
949.48        69.87479
949.87        69.99036
950.26        70.43903
950.65        71.10899
951.04        71.78068
951.43         72.3392
951.82        72.76465
952.21        73.11826
952.60        73.54014
952.99        74.01628
953.38        74.44862
953.77        74.62857
954.16        74.21416
954.55        73.19936
954.94        71.83912
955.33        70.39315
955.72        69.22211
956.11        68.46493
956.50        68.00391
956.89        67.97514
957.28        68.58721
957.66        69.83637
958.05        71.54057
958.44        73.15757
958.83        73.63705
959.22        72.75519
959.61        70.90621
960.00        68.79531
960.39        67.43839
960.78        67.09394
961.16        67.50595
961.55        68.42159
961.94        69.51462
962.33        70.58244
962.72        71.71983
963.11        72.69816
963.49        73.09451
963.88        72.76828
964.27        71.85312
964.66        70.67754
965.04        69.73052
965.43          69.125
965.82        68.74572
966.21        68.54494
966.60        68.41218
966.98        68.31148
967.37        68.29581
967.76        68.30682
968.15        68.19492
968.53        67.94534
968.92        67.57098
969.31        67.20489
969.69        67.08853
970.08           67.23
970.47        67.54908
970.86        67.92311
971.24        68.14179
971.63        68.07858
972.02        67.84911
972.40        67.46524
972.79        66.98131
973.17        66.47716
973.56        65.94969
973.95        65.54926
974.33        65.51208
974.72        65.81503
975.11        66.36887
975.49        67.08459
975.88        67.72227
976.26          68.218
976.65        68.57606
977.04        68.63325
977.42        68.10947
977.81        67.01719
978.19        65.42638
978.58        64.13583
978.96        64.12821
979.35        65.54145
979.74        68.17999
980.12         71.3168
980.51        72.87745
980.89        72.40129
981.28        70.33282
981.66        67.71285
982.05        66.34291
982.43        66.67329
982.82        68.12691
983.20        70.30795
983.59        72.34278
983.97         73.9186
984.35        75.22797
984.74        75.89808
985.12        75.46062
985.51        73.92246
985.89        71.41778
986.28        68.80289
986.66        67.32607
987.04        67.43094
987.43        68.79842
987.81        70.82269
988.20        72.20771
988.58        72.56059
988.96        72.05924
989.35        71.25581
989.73        71.02628
990.12         71.5415
990.50         72.5945
990.88        73.41708
991.27         72.8345
991.65        70.77256
992.03        67.71738
992.42          64.855
992.80        63.71351
993.18        64.74041
993.56        67.44906
993.95        70.78656
994.33         73.1817
994.71        73.84706
995.10        73.18826
995.48        71.78039
995.86        70.62357
996.24        70.09839
996.63        69.89233
997.01        69.72781
997.39        69.21532
997.77        68.26675
998.15        67.07176
998.54        65.95085
998.92        65.43656
999.30        65.68655
999.68        66.55345
1000.06        67.57784
1000.45         67.9184
1000.83        67.47501
1001.21        66.43289
1001.59        65.24842
1001.97        64.74943
1002.35        65.15331
1002.73        66.08607
1003.12        67.30833
1003.50        68.37185
1003.88        69.09301
1004.26        69.69472
1004.64        69.85161
1005.02        69.03529
1005.40        67.29472
1005.78        64.76847
1006.16        62.39798
1006.54        61.89943
1006.92        63.64764
1007.30        67.06952
1007.69        70.86717
1008.07        73.11201
1008.45        73.12778
1008.83        71.51672
1009.21        68.95257
1009.59        66.59966
1009.97        64.99574
1010.35        63.86855
1010.73         63.3742
1011.11        63.78978
1011.49         65.1527
1011.86        67.66541
1012.24        70.75822
1012.62        73.65044
1013.00        75.90044
1013.38         77.3875
1013.76        78.16612
1014.14        78.61948
1014.52        78.86096
1014.90        78.77782
1015.28        78.07636
1015.66        76.39918
1016.04        74.07487
1016.41        71.66633
1016.79         69.7899
1017.17        68.82262
1017.55        68.65683
1017.93        69.05516
1018.31        69.89582
1018.69        70.59758
1019.06        70.69802
1019.44        70.49838
1019.82         69.8382
1020.20        68.39584
1020.58        66.11516
1020.95        62.72675
1021.33        59.01096
1021.71        57.24292
1022.09        58.70471
1022.46        62.86521
1022.84        67.86685
1023.22        71.17339
1023.60        72.10902
1023.97        71.33524
1024.35        69.39435
1024.73         67.4127
