SpectraSmart Spectrum 2.9.0.0
--------- Device Information -----------
Spectrum Name :  反射率_0
Saving Time :  2024/05/01 15:56:21
Spectro-Module Model Name : SE2030-DUVN
Spectro-Module Serial Number : OS361AC55029948
Wavelength Start : 200
Wavelength End : 1025
Wavelength Unit : Wavelength(nm)
Spectrum Unit : Reflectance(%)
-----------Spectrum Setting ------------
Integration Time : 20ms
Average : 10
Boxcar : 0
Background removal :  enabled
linearity correction :  enabled
SC :  disabled
Intensity correction :  disabled
DWT denoise :  enabled
savitzky-golay :  disabled
FFT :  disabled
Running average :  disabled
Kalman :  disabled
High pass :  disabled
---------------BEGIN--------------------
Wavelength(nm)             Reflectance(%)
200.29               0
200.75        57.72759
201.21        343.6812
201.67       -160.9456
202.13       -50.70667
202.58       -6.861852
203.04        21.87836
203.50        41.32156
203.96        53.09121
204.42        61.74142
204.88         76.9509
205.34        437.9306
205.80       -16.63833
206.26       -19.00891
206.72       -64.94334
207.18       -337.8457
207.64        472.0567
208.10        195.6776
208.55        131.3428
209.01        100.5414
209.47        83.27592
209.93        72.64188
210.39        63.99764
210.85         57.2524
211.31        52.68614
211.77        48.86937
212.23        43.09461
212.69        47.71993
213.14        59.42674
213.60        105.6643
214.06       -399.8596
214.52       -47.59373
214.98       -20.15638
215.44       -5.590193
215.90        19.85772
216.36        352.4781
216.81       -154.2824
217.27       -178.6113
217.73        272.6723
218.19        27.64937
218.65       -1.716496
219.11       -23.13046
219.57       -70.63594
220.02       -236.1314
220.48       -94.90364
220.94       -9.169981
221.40        11.50749
221.86        18.87145
222.32         22.3791
222.77        24.99803
223.23         27.8326
223.69        30.20003
224.15        29.06303
224.61        24.89058
225.06        20.28012
225.52        17.65298
225.98        17.71752
226.44        20.01079
226.90        24.42156
227.36        29.79522
227.81        31.18904
228.27        27.32414
228.73        21.84002
229.19        17.21565
229.65        14.26687
230.10        12.54081
230.56          11.699
231.02        11.97619
231.48        13.92197
231.93        17.01848
232.39        20.34044
232.85        23.41847
233.31        26.10364
233.77        28.41144
234.22         30.4841
234.68        31.93258
235.14        32.45028
235.60        32.06596
236.05        30.63432
236.51        28.82935
236.97        29.22692
237.43        33.49744
237.88        41.09343
238.34        48.68602
238.80        52.87285
239.26          53.032
239.71        49.00586
240.17        40.17661
240.63        31.21502
241.08        29.10726
241.54        34.00691
242.00        42.75386
242.46        53.37977
242.91        68.16851
243.37        92.00249
243.83        129.4596
244.28        158.5921
244.74        152.4444
245.20        130.3087
245.66        110.9319
246.11        99.21917
246.57        92.00526
247.03        85.05619
247.48        74.60432
247.94        56.34462
248.40        33.87387
248.85        14.64185
249.31        7.994267
249.77         15.8833
250.22        30.60934
250.68        45.99253
251.14        58.02348
251.59        65.38123
252.05        69.77439
252.51        73.03062
252.96        77.23338
253.42        89.55353
253.88        102.9358
254.33        100.4859
254.79        94.04784
255.25        87.98631
255.70        82.20185
256.16        77.80579
256.62        74.23546
257.07        71.29714
257.53        69.48492
257.99        68.14985
258.44        66.99661
258.90        66.31879
259.35         65.6005
259.81        65.03132
260.27        64.32477
260.72        63.23818
261.18        62.09428
261.63         60.7286
262.09        59.44662
262.55        58.14184
263.00        56.72775
263.46        55.36932
263.91        53.96819
264.37        52.73336
264.83        51.61351
265.28        50.58026
265.74        49.62543
266.19        48.47145
266.65        47.20992
267.11        45.83204
267.56        44.57535
268.02        43.90985
268.47        43.83559
268.93        44.15224
269.38        44.46458
269.84        44.08588
270.30        42.89816
270.75        41.13752
271.21        39.18853
271.66        37.50401
272.12         36.2919
272.57        35.36245
273.03        34.69532
273.48        34.20152
273.94        33.83652
274.39        33.59002
274.85        33.36653
275.31         32.9545
275.76         32.3172
276.22        31.55957
276.67        30.74251
277.13        30.06464
277.58        29.50979
278.04        29.06145
278.49        28.66013
278.95        28.33068
279.40        28.01153
279.86        27.73713
280.31        27.42718
280.77        27.05596
281.22         26.5779
281.68        26.06428
282.13        25.50674
282.59        24.97415
283.04        24.46794
283.50        24.03451
283.95        23.68817
284.41        23.49755
284.86        23.45988
285.32        23.56046
285.77        23.78129
286.22        24.13274
286.68        24.59557
287.13        25.12806
287.59        25.63842
288.04        25.93576
288.50        26.00449
288.95        25.85824
289.41        25.65893
289.86         25.5695
290.32        25.66209
290.77        25.89483
291.22        26.18539
291.68        26.39009
292.13         26.4984
292.59        26.61582
293.04        26.86158
293.50        27.46074
293.95        28.43694
294.40        29.71545
294.86        31.17537
295.31         32.6339
295.77        34.01337
296.22         35.3401
296.68        36.62941
297.13        37.90001
297.58         39.1905
298.04          40.509
298.49        41.87162
298.95        43.34639
299.40        44.90726
299.85        46.52788
300.31         48.2094
300.76        49.93708
301.21        51.72618
301.67        53.60683
302.12        55.46655
302.58        57.15368
303.03         58.5959
303.48        59.84603
303.94        61.13287
304.39        62.70583
304.84        64.65896
305.30        66.89499
305.75        69.16399
306.20        71.10378
306.66        72.62571
307.11        73.79014
307.57        74.80357
308.02        75.87067
308.47         77.0892
308.93         78.3941
309.38        79.65119
309.83        80.74349
310.29         81.6571
310.74        82.43819
311.19        83.16864
311.65        83.94225
312.10         84.7647
312.55        85.59894
313.00         86.4411
313.46        87.29337
313.91        88.12624
314.36        88.93329
314.82        89.62228
315.27        90.06062
315.72        90.21556
316.18        90.16286
316.63        89.98861
317.08        89.88753
317.53        89.92311
317.99        90.06104
318.44        90.27386
318.89        90.48811
319.35        90.68389
319.80         90.9068
320.25        91.16363
320.70        91.46523
321.16        91.79582
321.61        92.13679
322.06        92.49732
322.51        92.91974
322.97        93.37089
323.42        93.86477
323.87        94.26894
324.32        94.39413
324.78        94.20613
325.23        93.80641
325.68        93.35476
326.13        93.12971
326.59         93.1936
327.04        93.52025
327.49         93.9918
327.94        94.42155
328.39        94.73488
328.85        94.94162
329.30         95.1407
329.75        95.35854
330.20        95.61504
330.66        95.85959
331.11        96.10644
331.56        96.27634
332.01        96.36904
332.46        96.41068
332.92        96.47615
333.37        96.78316
333.82        97.34659
334.27        98.13715
334.72        99.00224
335.17         99.6693
335.63        100.0275
336.08        100.1738
336.53        100.2556
336.98        100.5794
337.43        101.2211
337.88         102.099
338.34         102.971
338.79        103.5123
339.24        103.6074
339.69        103.3711
340.14        103.0832
340.59        103.1809
341.05        103.7578
341.50        104.6978
341.95        105.7194
342.40        106.3679
342.85        106.5378
343.30        106.3899
343.75        106.1907
344.20        106.3505
344.66        106.9608
345.11        107.8641
345.56        108.8723
346.01        109.6686
346.46        110.1469
346.91        110.4282
347.36        110.5726
347.81        110.6669
348.26        110.7672
348.72        110.8428
349.17        110.9565
349.62        111.2854
350.07        111.8199
350.52        112.4781
350.97        113.0711
351.42        113.2784
351.87        113.0378
352.32        112.4955
352.77        111.7529
353.22        110.9727
353.67        110.2489
354.13        109.5664
354.58        109.0435
355.03        108.9646
355.48        109.3424
355.93        110.1204
356.38        110.9297
356.83        111.1396
357.28        110.6135
357.73         109.528
358.18        108.3406
358.63        107.7465
359.08        107.8715
359.53        108.4871
359.98        109.1738
360.43        109.2366
360.88        108.4999
361.33         107.218
361.78        105.7623
362.23        104.6512
362.68        104.0159
363.13        103.6981
363.58        103.4789
364.03        103.0285
364.48         102.254
364.93        101.2573
365.38        100.2395
365.83        99.48279
366.28        99.03857
366.73        98.82398
367.18         98.5765
367.63        97.89153
368.08        96.72437
368.53        95.24213
368.98        93.81794
369.43        92.98801
369.88        92.83849
370.33        93.18463
370.78        93.67805
371.23         93.7113
371.68          93.104
372.13        92.06084
372.58        90.84197
373.03        89.83077
373.48        89.13483
373.93        88.61777
374.38        88.21261
374.83        87.82791
375.28        87.41948
375.72        87.02654
376.17        86.62975
376.62        86.12603
377.07        85.50389
377.52        84.77307
377.97        84.02657
378.42        83.42527
378.87        83.00362
379.32        82.72311
379.77        82.47813
380.22        82.09676
380.67        81.54864
381.11        80.90059
381.56        80.25925
382.01        79.82062
382.46        79.62819
382.91        79.59878
383.36        79.62973
383.81         79.5663
384.26        79.35448
384.71        79.04367
385.15         78.6318
385.60        78.16441
386.05        77.66042
386.50        77.12129
386.95        76.61159
387.40        76.23814
387.85        76.01478
388.29        75.85973
388.74        75.78804
389.19        75.63716
389.64        75.37041
390.09        75.01128
390.54        74.59278
390.98        74.15951
391.43        73.78857
391.88         73.4567
392.33        73.15509
392.78        72.88144
393.23        72.63701
393.67        72.34798
394.12        72.10557
394.57        71.96787
395.02        72.07205
395.47        71.70332
395.91        71.07165
396.36        70.81845
396.81        70.99651
397.26        71.29453
397.71        71.49048
398.15          71.399
398.60        71.06631
399.05        70.36735
399.50        69.61456
399.95        69.58303
400.39        70.18852
400.84        70.45871
401.29        70.24638
401.74        70.06704
402.18        69.89025
402.63         69.3025
403.08        68.50925
403.53        68.02313
403.97        67.91067
404.42        68.04278
404.87        68.23813
405.32        68.22311
405.76        67.93275
406.21        67.48283
406.66        67.03012
407.11        66.85064
407.55        67.02115
408.00        67.33804
408.45        67.66624
408.90        67.94323
409.34        67.99551
409.79        67.51207
410.24        66.71185
410.68        66.26668
411.13        66.26666
411.58         66.3751
412.03        66.51087
412.47        66.66366
412.92        66.75574
413.37        66.81887
413.81        66.81892
414.26        66.75047
414.71        66.60395
415.15        66.39429
415.60        66.16711
416.05        66.06396
416.49        66.11913
416.94        66.29024
417.39         66.5021
417.83        66.61458
418.28        66.59977
418.73        66.51178
419.17        66.39773
419.62        66.33626
420.07        66.34402
420.51        66.37051
420.96        66.46593
421.41        66.58383
421.85        66.68489
422.30        66.98017
422.74         67.3339
423.19        67.25916
423.64        66.87399
424.08        67.03635
424.53         67.6794
424.98        67.90152
425.42        67.61203
425.87        67.72202
426.31        67.95437
426.76        67.50187
427.21        66.65765
427.65        67.24325
428.10        68.86068
428.54        69.42262
428.99        68.90253
429.44        68.09375
429.88         67.3843
430.33        67.95197
430.77        69.28859
431.22        69.11591
431.66        67.65076
432.11        67.25517
432.56        68.02883
433.00        68.58251
433.45        68.64754
433.89        68.75973
434.34        68.01315
434.78        69.01628
435.23        69.33041
435.67        69.37072
436.12        68.75378
436.57        69.28411
437.01        70.75107
437.46        71.39559
437.90        70.90111
438.35        70.50653
438.79        70.28771
439.24         69.8899
439.68        69.47723
440.13        69.62506
440.57        70.24105
441.02        70.66705
441.46        70.78917
441.91        71.03184
442.35         71.2926
442.80        71.36124
443.24        71.43732
443.69        71.40353
444.13        71.34579
444.58        71.34715
445.02        71.40624
445.47        71.53187
445.91        71.70637
446.36        71.91293
446.80        72.12495
447.24        72.37754
447.69        72.60241
448.13        72.80827
448.58        72.98057
449.02        73.09884
449.47        73.17502
449.91        73.18833
450.36        73.16216
450.80        73.08263
451.25        72.98489
451.69        72.87737
452.13        72.77934
452.58        72.70289
453.02        72.62951
453.47        72.55155
453.91          72.447
454.36        72.35029
454.80        72.28549
455.24        72.08386
455.69         72.0729
456.13        71.91812
456.58        71.83591
457.02        71.39508
457.46        71.35443
457.91        71.83353
458.35        72.72299
458.79        72.91956
459.24        72.36375
459.68        71.75256
460.13         71.3978
460.57        70.33965
461.01        70.69935
461.46         70.5724
461.90        70.73513
462.34        71.09399
462.79        70.25115
463.23        70.59153
463.68        71.41841
464.12        71.69057
464.56        71.34456
465.01        70.69628
465.45        70.56045
465.89        70.35947
466.34        70.24443
466.78        70.35284
467.22        69.99359
467.67        69.76104
468.11         69.7487
468.55        69.83195
468.99        70.02412
469.44        69.98224
469.88        69.95038
470.32         69.8198
470.77        69.71619
471.21        69.69516
471.65        69.76234
472.10        69.90669
472.54         70.0405
472.98        70.06796
473.42        69.96828
473.87        69.79519
474.31        69.57451
474.75        69.40746
475.20        69.33125
475.64         69.3218
476.08        69.35846
476.52        69.37404
476.97         69.3236
477.41        69.45092
477.85         69.1461
478.29        69.51642
478.74        69.36961
479.18        69.75512
479.62        68.89163
480.06        68.77183
480.50        68.96806
480.95        68.26292
481.39        69.03782
481.83        68.01334
482.27        68.23348
482.72         68.3414
483.16        68.27958
483.60        68.26286
484.04        68.79497
484.48        69.08458
484.93        69.55406
485.37        69.99001
485.81         69.7078
486.25         70.7699
486.69        69.88813
487.14        67.77647
487.58        67.36221
488.02        68.94319
488.46        68.49476
488.90        67.83656
489.34        68.86946
489.79        68.88169
490.23        68.46157
490.67        68.20487
491.11        68.16531
491.55        68.44997
491.99        68.89574
492.43        69.05132
492.88        68.85793
493.32        68.62046
493.76        68.43017
494.20          68.313
494.64        68.29932
495.08         68.3521
495.52         68.4398
495.96        68.51841
496.41        68.54849
496.85        68.54928
497.29        68.48257
497.73        68.25159
498.17        68.07233
498.61         67.7831
499.05        67.54323
499.49         67.7398
499.93        68.20586
500.37        68.38769
500.82        68.32413
501.26        68.03166
501.70        68.21927
502.14        68.64947
502.58        68.25974
503.02        68.19537
503.46        68.10171
503.90        67.95489
504.34        67.81911
504.78        67.84018
505.22        68.02145
505.66        68.36565
506.10        68.76461
506.54        68.82938
506.98        68.44627
507.42         68.5649
507.86        67.70066
508.30        67.46779
508.74        67.44827
509.18        67.56625
509.62        67.74826
510.06        67.92824
510.50        68.07629
510.94        68.19676
511.38        68.27438
511.82        68.28465
512.26        68.23339
512.70        68.08992
513.14        67.88348
513.58        67.76304
514.02        67.76931
514.46        67.51812
514.90        67.63438
515.34        67.55056
515.78        67.45294
516.22        67.34756
516.66         67.2695
517.10        67.25538
517.54        67.30745
517.98        67.41555
518.42        67.55031
518.86        67.66557
519.30        67.74585
519.74        67.79937
520.18        67.83849
520.62        67.88819
521.06         67.9489
521.50         67.9987
521.93        68.02989
522.37        68.02239
522.81        67.97772
523.25        67.91754
523.69         67.8259
524.13        67.66602
524.57        67.44087
525.01        67.20641
525.45        67.05331
525.89        67.00871
526.32        67.06207
526.76        67.62012
527.20        67.79017
527.64         68.0424
528.08        68.09387
528.52        68.01732
528.96        67.85143
529.40        67.67683
529.83        67.52892
530.27        67.39392
530.71        67.30168
531.15        67.31582
531.59        67.43842
532.03        67.65079
532.46        67.87042
532.90        67.98017
533.34         67.9517
533.78          67.769
534.22        67.50586
534.66        67.39548
535.09        67.40486
535.53        67.26023
535.97        66.98744
536.41        66.86922
536.85        66.91605
537.28        66.97421
537.72        67.02071
538.16        67.07695
538.60        67.12749
539.04        67.16225
539.47        67.16865
539.91        67.17051
540.35        67.15791
540.79        67.14171
541.22           67.13
541.66        67.07604
542.10        67.16012
542.54        67.10473
542.97        67.17629
543.41        67.18544
543.85        67.18782
544.29         67.1806
544.72        67.16268
545.16        67.16497
545.60        67.17399
546.04        67.17927
546.47        67.17161
546.91        67.14721
547.35        67.11354
547.79        67.06578
548.22        66.97031
548.66        66.89918
549.10        66.85473
549.53        66.55156
549.97        66.62618
550.41        66.58204
550.84        66.84289
551.28        67.17873
551.72        67.56272
552.15        67.75829
552.59        67.75776
553.03        67.70406
553.46        67.61678
553.90         67.5727
554.34        67.59348
554.77        67.54958
555.21        67.37909
555.65        67.69911
556.08        67.22539
556.52        67.09408
556.96        66.96046
557.39        66.75813
557.83        66.78059
558.27        66.77653
558.70        66.79898
559.14        67.07974
559.57        67.01109
560.01        67.20508
560.45        67.36357
560.88        67.28934
561.32        67.06973
561.75        66.63989
562.19        66.23478
562.63         66.5555
563.06        67.36963
563.50        67.33791
563.93        66.56187
564.37        66.36843
564.80        66.75837
565.24        67.01942
565.68        67.05309
566.11        67.05241
566.55        67.03491
566.98        66.89269
567.42        66.74962
567.85        66.82059
568.29        67.09451
568.72        67.28021
569.16        67.40486
569.60         67.4399
570.03        67.29874
570.47        67.33233
570.90        67.57061
571.34          66.685
571.77        67.00492
572.21        67.19858
572.64        67.40383
573.08        66.99986
573.51        67.13936
573.95        67.73792
574.38        67.12341
574.82        67.05455
575.25        67.77617
575.69        67.85524
576.12        67.64153
576.56        67.17656
576.99        67.74386
577.42          67.548
577.86        67.58051
578.29        67.53819
578.73        68.41073
579.16        67.40827
579.60        66.77133
580.03        66.74551
580.47        67.10538
580.90        66.82636
581.33         67.5042
581.77        67.55972
582.20         68.0221
582.64        68.09888
583.07        67.56053
583.51        67.13145
583.94        66.98233
584.37        67.25834
584.81        67.90124
585.24         67.8757
585.68        67.16765
586.11        67.68439
586.54        67.54525
586.98        66.93012
587.41        66.28685
587.85        67.32436
588.28          67.658
588.71        66.21523
589.15        67.26782
589.58        66.48524
590.01        66.65119
590.45        66.69269
590.88        66.97811
591.31        67.08418
591.75        66.90166
592.18        66.67111
592.61        66.48956
593.05        66.62743
593.48         66.4957
593.91        67.14096
594.35        66.75797
594.78        66.55817
595.21        66.43499
595.65        66.82674
596.08        67.03239
596.51        66.58386
596.94        66.49783
597.38        66.29889
597.81        66.43912
598.24        66.29766
598.68        66.66209
599.11        66.25301
599.54         67.7245
599.97        67.12383
600.41        66.55684
600.84        66.88029
601.27        66.94628
601.70        67.17989
602.14        67.69893
602.57        67.32824
603.00        66.94368
603.43        66.59147
603.87        66.92785
604.30        67.04575
604.73        67.00304
605.16        66.32196
605.60        66.56677
606.03        66.77267
606.46        67.16859
606.89         66.9943
607.32        66.48816
607.76        66.26638
608.19         66.4216
608.62        66.97533
609.05         66.9538
609.48        67.05629
609.92        66.60091
610.35        66.22229
610.78        67.45033
611.21        67.57287
611.64        67.04025
612.07        67.43433
612.50        67.57132
612.94        67.23042
613.37        66.98835
613.80        67.04567
614.23        66.62473
614.66        66.95198
615.09         66.6753
615.52        66.73175
615.96        66.74759
616.39        66.95636
616.82        66.97092
617.25         66.8981
617.68        67.07934
618.11        67.02589
618.54        66.85407
618.97        66.85828
619.40        66.62663
619.84        66.57235
620.27        66.53598
620.70        66.90097
621.13        67.61285
621.56        66.82513
621.99        66.39167
622.42        66.67181
622.85        66.70487
623.28        66.39263
623.71        66.44514
624.14        66.87717
624.57        67.06065
625.00        67.25533
625.43        67.18128
625.86        66.95816
626.29          66.626
626.72        66.48876
627.15        66.27953
627.58        66.19742
628.01         66.1332
628.44        66.18134
628.87        66.14047
629.30        66.15093
629.73         66.1786
630.16        66.23495
630.59        66.30446
631.02        66.40038
631.45        66.49613
631.88         66.4723
632.31        66.30521
632.74        66.33768
633.17        66.06627
633.60        66.05594
634.03        66.16172
634.46        66.35423
634.89        66.54474
635.32         66.6385
635.75        66.61594
636.18        66.34343
636.61        66.16582
637.04        66.00143
637.47        65.97659
637.89        65.95347
638.32        66.01193
638.75        66.00528
639.18        65.97215
639.61        65.65912
640.04        65.62421
640.47        65.56488
640.90        65.64471
641.33        65.80409
641.76         65.9625
642.18        66.08159
642.61        66.13118
643.04        65.98824
643.47        65.64268
643.90        66.00763
644.33        65.68518
644.76        65.70042
645.18        65.66736
645.61        65.89311
646.04        66.26199
646.47        66.24852
646.90        65.92236
647.33        65.83646
647.75        66.01726
648.18        66.13544
648.61        66.16646
649.04        66.16395
649.47         66.1059
649.89         66.1461
650.32        66.23473
650.75        65.93172
651.18        65.41009
651.61        65.58767
652.03        66.33485
652.46         66.4581
652.89          66.008
653.32        65.93556
653.74        66.25646
654.17        66.67331
654.60        66.24946
655.03        66.52771
655.46        65.52514
655.88        66.09103
656.31        71.95079
656.74        71.54517
657.16        66.04951
657.59        64.54092
658.02        65.81733
658.45        66.08157
658.87        66.46618
659.30        65.59379
659.73        65.57707
660.15        66.05595
660.58        66.11219
661.01        66.05571
661.44        65.58088
661.86        65.50602
662.29        65.82053
662.72        66.02228
663.14        66.09767
663.57        66.24738
664.00           66.45
664.42        66.55717
664.85        66.55988
665.27        66.46494
665.70          66.314
666.13        66.19608
666.55        66.14494
666.98         66.1211
667.41        66.12907
667.83        66.18278
668.26        66.26114
668.69        66.36273
669.11        66.46803
669.54        66.56641
669.96        66.63832
670.39        66.61964
670.82        66.54234
671.24        66.50816
671.67        66.53056
672.09        66.55024
672.52        66.55762
672.94        66.50822
673.37        66.40269
673.80        66.26021
674.22         66.1202
674.65        66.01109
675.07        65.96587
675.50        65.96211
675.92        66.00375
676.35        66.08561
676.77        66.20002
677.20        66.33588
677.62        66.46841
678.05        66.54475
678.47        66.55226
678.90        66.51009
679.32        66.43505
679.75        66.38036
680.17        66.35427
680.60        66.34433
681.02        66.34954
681.45        66.34924
681.87        66.34742
682.30        66.35259
682.72        66.36391
683.15        66.31034
683.57        66.21423
684.00        66.15842
684.42        66.14603
684.85        66.13021
685.27        66.09743
685.70        66.09068
686.12         66.0995
686.54        66.08861
686.97         66.0463
687.39        66.07056
687.82        66.12307
688.24        65.98483
688.66        65.73708
689.09         65.8051
689.51        66.17195
689.94        66.37141
690.36        66.38228
690.78        66.49618
691.21        66.72468
691.63        66.84837
692.06        66.92068
692.48        67.25662
692.90        67.74864
693.33        67.94684
693.75        67.81328
694.17         67.5125
694.60        67.16609
695.02        66.95335
695.44        66.86452
695.87        66.72169
696.29        66.53783
696.71        66.29433
697.14        66.12317
697.56        66.45183
697.98        67.13007
698.41        67.47947
698.83        67.42916
699.25        67.33059
699.68         67.2417
700.10        67.18064
700.52        67.17413
700.94        67.16457
701.37        67.15141
701.79        67.26054
702.21        67.41356
702.64        67.43484
703.06        67.32624
703.48        67.15373
703.90        66.91376
704.33        66.99577
704.75        66.60668
705.17        66.57758
705.59        66.67432
706.01        66.85918
706.44        67.08765
706.86        67.30203
707.28        67.45744
707.70        67.63126
708.12        67.77161
708.55        67.63255
708.97        67.28403
709.39        67.11063
709.81        67.14818
710.23        67.14376
710.66        67.10082
711.08        67.21307
711.50        67.42165
711.92        67.54431
712.34        67.55396
712.76         67.5041
713.19        67.40656
713.61        67.33333
714.03        67.28866
714.45        67.25151
714.87        67.24274
715.29        67.29811
715.71        67.41634
716.13        67.59056
716.56        67.74884
716.98        67.85159
717.40        67.84921
717.82        67.75877
718.24        67.63979
718.66        67.59217
719.08        67.63811
719.50        67.74699
719.92        67.86163
720.34         67.8895
720.76        67.80914
721.19        67.65487
721.61        67.48305
722.03        67.37092
722.45        67.34974
722.87        67.40835
723.29        67.51154
723.71        67.60296
724.13        67.65872
724.55        67.67301
724.97        67.69915
725.39        67.82326
725.81        68.04882
726.23        68.34927
726.65        68.58365
727.07        68.53001
727.49        68.16312
727.91        67.56615
728.33         66.9587
728.75        66.68637
729.17         66.8263
729.59        67.27445
730.01         67.8343
730.43         68.1642
730.85        68.16325
731.27        67.94485
731.69        67.63354
732.10        67.42191
732.52        67.37444
732.94        67.41577
733.36        67.52451
733.78        67.66349
734.20         67.8003
734.62        67.98808
735.04        68.18287
735.46        68.20245
735.88        68.08836
736.30        68.09879
736.72        68.20735
737.13        68.20688
737.55        68.06518
737.97        67.85509
738.39        67.68496
738.81        67.80856
739.23        68.19209
739.65        68.48917
740.06        68.56914
740.48        68.62869
740.90        68.61964
741.32        68.41443
741.74        68.09209
742.16        67.88071
742.57        67.83352
742.99         67.9088
743.41        68.06748
743.83        68.15099
744.25        68.16908
744.67         68.3466
745.08        68.62536
745.50        68.64787
745.92        68.40582
746.34        68.05797
746.75        67.70812
747.17        67.50237
747.59        67.47104
748.01        67.58723
748.42        67.78704
748.84        67.93392
749.26        67.99903
749.68        67.97836
750.09        67.91603
750.51        67.98575
750.93         68.1554
751.35        68.20052
751.76        68.13002
752.18        68.12398
752.60        68.19413
753.01        68.25827
753.43        68.28171
753.85         68.3019
754.27        68.32184
754.68        68.32921
755.10        68.36295
755.52        68.48057
755.93        68.67011
756.35        68.89943
756.77         69.1056
757.18        69.13805
757.60        68.98612
758.02        68.84137
758.43        68.69508
758.85        68.33018
759.26         67.9227
759.68         67.9781
760.10        68.46163
760.51        68.93974
760.93        69.28662
761.34         68.8765
761.76        69.01646
762.18        68.64876
762.59         68.3455
763.01        68.31425
763.42        68.86217
763.84        69.02286
764.26        68.84408
764.67        68.70811
765.09        68.68636
765.50        68.58939
765.92        68.46354
766.33        68.37706
766.75        68.29305
767.16        68.36929
767.58         68.5818
768.00        68.71986
768.41        68.84384
768.83        69.47803
769.24         70.3945
769.66        70.49773
770.07        69.88859
770.49        69.65786
770.90        69.86907
771.32        69.91434
771.73        69.77092
772.15        69.66694
772.56        69.62103
772.97        69.58504
773.39         69.5438
773.80        69.52496
774.22        69.49709
774.63           69.51
775.05        69.53364
775.46        69.58631
775.88        69.63715
776.29         69.7058
776.70        69.78665
777.12        69.89161
777.53        70.03012
777.95        70.17027
778.36        70.27736
778.77        70.26435
779.19        70.12484
779.60          69.922
780.02        69.70652
780.43         69.5285
780.84        69.46851
781.26        69.53179
781.67        69.67741
782.09        69.98103
782.50         70.2673
782.91        69.87721
783.33        69.17812
783.74        68.98454
784.15        69.42635
784.57        70.05511
784.98        70.77508
785.39        71.05957
785.81        71.67482
786.22        71.71484
786.63        71.86768
787.04        71.81396
787.46         71.7402
787.87        71.57826
788.28        71.41432
788.70        71.37516
789.11        71.45195
789.52        71.64352
789.93        71.85057
790.35         71.8932
790.76         71.7546
791.17        71.47379
791.58         71.1481
792.00        70.93014
792.41        70.87855
792.82        70.90573
793.23        70.95957
793.65        71.08997
794.06        71.22349
794.47        71.06062
794.88        70.74255
795.29         70.7313
795.71        70.99259
796.12        71.39174
796.53        71.76762
796.94        71.91862
797.35        71.75682
797.76        71.36328
798.18        70.91325
798.59        70.63592
799.00         70.6073
799.41        70.75265
799.82        71.00841
800.23        71.26474
800.64        71.46613
801.06         71.6244
801.47        71.73891
801.88        71.70597
802.29        71.52287
802.70        71.21145
803.11        70.87782
803.52        70.70189
803.93        70.73997
804.34        70.95026
804.75         71.2627
805.17        71.58624
805.58        71.91456
805.99        72.06291
806.40        72.05532
806.81        72.35445
807.22        72.77872
807.63        72.37364
808.04        71.34102
808.45        70.88181
808.86        71.11936
809.27        71.42997
809.68        71.68228
810.09        71.91718
810.50        72.06709
810.91        72.12953
811.32        72.11552
811.73        72.04362
812.14         71.9358
812.55        71.78426
812.96        71.65608
813.37         71.6692
813.78        71.84398
814.19        72.14677
814.60        72.48164
815.01        72.69659
815.42         72.7505
815.83        72.67591
816.24        72.52357
816.65        72.39584
817.05        72.34297
817.46        72.32474
817.87        72.33215
818.28        72.30751
818.69        72.23708
819.10        72.13078
819.51        72.06014
819.92        72.14462
820.33        72.39426
820.74        72.75664
821.14        73.07383
821.55        73.14241
821.96        72.91685
822.37        72.47729
822.78        71.98499
823.19        71.73095
823.60        71.81944
824.00        72.19194
824.41        72.70282
824.82        73.21171
825.23        73.62857
825.64        73.96215
826.04        74.21111
826.45        74.29803
826.86        74.24276
827.27        74.06246
827.68        73.73586
828.08        73.26465
828.49        72.65664
828.90        71.95766
829.31        71.36483
829.72        71.16698
830.12        71.45257
830.53        72.12273
830.94        72.90889
831.35        73.26737
831.75        73.06648
832.16        72.40601
832.57        71.68324
832.97        71.50676
833.38        71.98512
833.79        72.91452
834.20        73.93569
834.60        74.43825
835.01        74.22957
835.42         73.5577
835.82        72.68999
836.23        72.02585
836.64        71.70358
837.04        71.59975
837.45         71.6751
837.86         71.9332
838.26        72.33345
838.67        72.85281
839.08        73.32673
839.48        73.44305
839.89        73.13657
840.29         72.5015
840.70        71.77441
841.11        71.30655
841.51        71.21414
841.92        71.37939
842.33        71.72183
842.73        72.10469
843.14        72.41262
843.54        72.73711
843.95        73.01004
844.35        73.19403
844.76        73.24731
845.17        73.15076
845.57        72.98738
845.98        72.89436
846.38         72.9231
846.79        73.03929
847.19        73.14589
847.60         72.9855
848.00        72.55267
848.41        71.92841
848.81        71.35126
849.22        71.15942
849.62        71.43618
850.03        72.04444
850.43         72.7853
850.84        73.16428
851.24        73.10662
851.65        72.71628
852.05        72.23185
852.46         72.0138
852.86        72.14278
853.27        72.48107
853.67        72.88596
854.07         73.3572
854.48        73.79414
854.88        74.32101
855.29        74.64294
855.69        74.48315
856.10        73.69115
856.50        72.47622
856.90        71.22858
857.31        70.51623
857.71        70.45263
858.12        70.83446
858.52        71.50215
858.92        71.92355
859.33        71.89774
859.73         71.6276
860.13        71.15937
860.54        70.60066
860.94        70.02805
861.34        69.38117
861.75        68.82146
862.15          68.694
862.55        69.03664
862.96        69.74831
863.36          70.561
863.76        70.93395
864.17        70.73698
864.57        70.14124
864.97        69.40242
865.38        68.95827
865.78        68.96384
866.18        69.25493
866.58         69.6875
866.99          70.004
867.39         70.1338
867.79        70.16825
868.19        70.09015
868.60        69.83287
869.00        69.40537
869.40        68.80122
869.80        68.23888
870.21        68.12919
870.61        68.60954
871.01        69.51076
871.41         70.4315
871.81        70.75826
872.22        70.36491
872.62        69.43645
873.02        68.35412
873.42        67.75449
873.82        67.82221
874.22        68.37672
874.63        69.11333
875.03        69.54407
875.43        69.54099
875.83        69.26158
876.23        68.94701
876.63        68.96737
877.03        69.40035
877.44        70.07925
877.84        70.79247
878.24        71.15112
878.64        71.04916
879.04         70.6226
879.44        70.06421
879.84        69.65626
880.24         69.4797
880.64        69.45312
881.04         69.4974
881.44        69.47984
881.84        69.36933
882.24        69.23727
882.65        69.10223
883.05        69.09161
883.45        69.19123
883.85        69.34212
884.25        69.55828
884.65        69.87969
885.05         70.2963
885.45        70.79945
885.85        71.25127
886.25         71.4165
886.65        71.24103
887.05        70.78163
887.45        70.25269
887.85         69.9939
888.25        70.08852
888.65        70.45929
889.04        70.88694
889.44        70.98474
889.84        70.68059
890.24        70.08829
890.64        69.47759
891.04        69.22958
891.44        69.42605
891.84        69.98225
892.24        70.59499
892.64        70.75668
893.04        70.35744
893.44        69.54038
893.83        68.74638
894.23        68.65733
894.63        69.36619
895.03        70.67376
895.43         72.0286
895.83        72.43653
896.23        71.68012
896.63        70.16373
897.02        68.49125
897.42        67.61192
897.82        67.66228
898.22        68.38966
898.62         69.4677
899.01        70.36136
899.41         70.8055
899.81        70.97018
900.21        71.03047
900.61        71.27551
901.00        71.77242
901.40        72.36267
901.80        72.83509
902.20        72.90125
902.59        72.52197
902.99          71.822
903.39        71.05207
903.79        70.59769
904.18        70.54266
904.58         70.7827
904.98        71.12157
905.38         71.2666
905.77        71.13777
906.17        70.86448
906.57        70.50597
906.96        70.16985
907.36        69.90159
907.76        69.67756
908.15        69.59517
908.55        69.77124
908.95        70.21958
909.34        70.89849
909.74         71.6047
910.14        72.07905
910.53        72.22482
910.93        72.09881
911.33        71.78918
911.72        71.44759
912.12        71.15771
912.52        70.88268
912.91        70.60549
913.31        70.29352
913.70        69.96586
914.10        69.67195
914.49        69.48356
914.89        69.47042
915.29        69.64445
915.68        69.96717
916.08        70.36758
916.47        70.74477
916.87        71.04565
917.26        71.28265
917.66        71.45447
918.05        71.56976
918.45        71.63354
918.84        71.67493
919.24        71.70274
919.64        71.81579
920.03        72.03899
920.42        72.30956
920.82        72.58591
921.21         72.8285
921.61        72.98087
922.00        73.06396
922.40        72.99996
922.79        72.73952
923.19        72.28762
923.58        71.70331
923.98        71.08572
924.37         70.4993
924.77        70.00911
925.16        69.61086
925.55        69.36666
925.95        69.32841
926.34        69.52995
926.74        69.91982
927.13        70.51211
927.52        71.23302
927.92        72.00188
928.31        72.77715
928.70        73.45264
929.10        73.90684
929.49        74.10974
929.89        74.07584
930.28        73.79923
930.67         73.2409
931.07         72.4427
931.46        71.46072
931.85        70.54053
932.24        70.06659
932.64        70.12852
933.03        70.67896
933.42        71.38632
933.82        71.73521
934.21        71.59699
934.60        71.06549
934.99        70.52547
935.39        70.55038
935.78         71.2786
936.17         72.5688
936.56         73.8544
936.96        74.11922
937.35        73.18541
937.74        71.38926
938.13        69.55057
938.53        68.74507
938.92         69.1308
939.31        70.43295
939.70        72.06973
940.09        72.95965
940.49        72.76442
940.88        71.83613
941.27        70.69775
941.66        70.13657
942.05         70.3519
942.44        71.09014
942.84        71.99557
943.23        72.52541
943.62        72.44395
944.01        71.98544
944.40        71.40795
944.79        71.09655
945.18        71.15466
945.57        71.39684
945.97        71.72716
946.36        72.11197
946.75        72.46788
947.14        72.86163
947.53        73.11628
947.92        72.90732
948.31        72.21329
948.70        71.14969
949.09        70.13397
949.48        69.79597
949.87         70.2695
950.26        71.40678
950.65          72.797
951.04        73.69522
951.43        73.84857
951.82         73.4123
952.21        72.77325
952.60        72.54526
952.99        72.84818
953.38        73.48471
953.77         74.0379
954.16         73.7949
954.55        72.65144
954.94         70.9788
955.33        69.29513
955.72        68.35542
956.11        68.34192
956.50        68.95357
956.89         69.9949
957.28         71.1586
957.66        72.30913
958.05        73.43339
958.44        74.21487
958.83        74.03608
959.22        72.86124
959.61        70.94922
960.00        68.98968
960.39        67.97652
960.78        68.10161
961.16         69.1195
961.55        70.57427
961.94        71.76796
962.33         72.4188
962.72         72.7229
963.11         72.6886
963.49        72.38062
963.88        71.84347
964.27        71.06322
964.66        70.27244
965.04        69.81961
965.43        69.74378
965.82        69.98875
966.21        70.34444
966.60        70.37562
966.98        69.98177
967.37        69.29801
967.76        68.55447
968.15        68.10966
968.53        68.07692
968.92        68.30143
969.31          68.711
969.69        69.22819
970.08        69.73613
970.47        70.23254
970.86        70.55291
971.24        70.42709
971.63        69.75732
972.02        68.69656
972.40        67.42609
972.79        66.25296
973.17        65.34125
973.56        64.68077
973.95        64.33579
974.33        64.38074
974.72        64.75259
975.11         65.3904
975.49        66.31144
975.88        67.46449
976.26        68.77792
976.65        70.12089
977.04        71.06587
977.42        70.95811
977.81        69.75176
978.19        67.67258
978.58        65.74683
978.96        65.28083
979.35        66.52482
979.74        69.21226
980.12        72.61999
980.51        74.65327
980.89        74.76779
981.28         73.3416
981.66        71.28666
982.05        70.20612
982.43        70.50014
982.82        71.66634
983.20        73.25642
983.59        74.33672
983.97        74.71147
984.35        74.67252
984.74        74.28745
985.12         73.7644
985.51        73.18591
985.89        72.41696
986.28        71.77757
986.66         71.6362
987.04        72.15852
987.43        73.25293
987.81        74.48414
988.20        74.90092
988.58        74.31542
988.96        72.80821
989.35        71.15694
989.73        70.60152
990.12        71.34819
990.50         73.1264
990.88        74.80976
991.27        74.56361
991.65        72.16124
992.03        68.30606
992.42          64.464
992.80         62.6092
993.18        63.32896
993.56        65.98216
993.95        69.50475
994.33        72.30799
994.71         73.5268
995.10        73.55949
995.48        72.76432
995.86        71.76585
996.24         70.8901
996.63        69.97449
997.01        68.97222
997.39        67.83434
997.77        66.59885
998.15        65.39827
998.54        64.59235
998.92        64.75362
999.30        65.99476
999.68        68.11089
1000.06         70.4791
1000.45        71.98656
1000.83        72.38508
1001.21        71.81273
1001.59        70.64913
1001.97        69.67291
1002.35        69.16745
1002.73        68.88056
1003.12        68.77287
1003.50        68.70732
1003.88        68.66307
1004.26        68.84221
1004.64         69.0004
1005.02        68.69083
1005.40        67.90005
1005.78        66.70011
1006.16        65.70158
1006.54        66.02113
1006.92        67.82763
1007.30        70.65547
1007.69        73.49298
1008.07        74.94203
1008.45        74.51901
1008.83        72.72104
1009.21        70.11808
1009.59        67.68407
1009.97        65.89073
1010.35        64.54536
1010.73        63.90562
1011.11        64.37443
1011.49        66.04194
1011.86        69.12232
1012.24        72.84554
1012.62        76.07919
1013.00        78.26372
1013.38        79.26725
1013.76        79.62619
1014.14        80.60091
1014.52        82.51265
1014.90        85.05991
1015.28        86.90727
1015.66        85.84573
1016.04        81.92538
1016.41         76.5186
1016.79        71.73016
1017.17        69.32335
1017.55        69.30757
1017.93        71.30735
1018.31        74.35809
1018.69        75.23898
1019.06         72.7489
1019.44        68.80431
1019.82        65.30833
1020.20        63.53759
1020.58        63.39024
1020.95        64.26612
1021.33        66.19834
1021.71         68.6211
1022.09        70.87672
1022.46        72.97932
1022.84        74.41512
1023.22         74.8764
1023.60        74.38744
1023.97        72.95274
1024.35        70.93575
1024.73        69.17651
