SpectraSmart Spectrum 2.9.0.0
--------- Device Information -----------
Spectrum Name :  反射率_0
Saving Time :  2024/05/01 16:35:00
Spectro-Module Model Name : SE2030-DUVN
Spectro-Module Serial Number : OS361AC55029948
Wavelength Start : 200
Wavelength End : 1025
Wavelength Unit : Wavelength(nm)
Spectrum Unit : Reflectance(%)
-----------Spectrum Setting ------------
Integration Time : 20ms
Average : 10
Boxcar : 0
Background removal :  enabled
linearity correction :  enabled
SC :  disabled
Intensity correction :  disabled
DWT denoise :  enabled
savitzky-golay :  disabled
FFT :  disabled
Running average :  disabled
Kalman :  disabled
High pass :  disabled
---------------BEGIN--------------------
Wavelength(nm)             Reflectance(%)
200.29               0
200.75       -62.68009
201.21        210.7917
201.67        -206.969
202.13       -81.78424
202.58       -17.74694
203.04        29.40803
203.50        61.63506
203.96        76.89771
204.42        78.26607
204.88        59.46972
205.34       -495.6312
205.80        162.7293
206.26        109.5565
206.72        52.29636
207.18       -175.4023
207.64        415.8293
208.10        184.1634
208.55        117.4361
209.01        82.73244
209.47        69.78242
209.93        70.87693
210.39        77.74397
210.85        88.49013
211.31        104.2742
211.77        146.4101
212.23       -183.0202
212.69        23.06701
213.14        52.47429
213.60        100.9681
214.06       -363.1787
214.52       -36.69577
214.98       -11.28346
215.44        1.547252
215.90        23.89632
216.36          328.58
216.81       -148.1165
217.27       -202.3148
217.73        419.6041
218.19        78.33876
218.65        41.60158
219.11        22.07956
219.57       -13.37053
220.02       -151.3101
220.48       -79.30408
220.94       -7.608905
221.40        12.47918
221.86        20.59404
222.32        25.10868
222.77        29.08809
223.23        34.07263
223.69        39.52111
224.15         40.6969
224.61        36.77898
225.06        31.34874
225.52        27.89273
225.98         27.5125
226.44         29.7271
226.90        34.23325
227.36        40.05955
227.81        42.47815
228.27        39.74496
228.73        35.10958
229.19        30.92269
229.65        28.01978
230.10        25.95043
230.56        24.26654
231.02        23.04763
231.48        22.97345
231.93        24.15819
232.39        26.14308
232.85        28.39922
233.31        30.57392
233.77        32.56318
234.22        34.40447
234.68        35.95161
235.14        37.25799
235.60        38.47762
236.05        39.79118
236.51        41.41607
236.97        43.44728
237.43        45.49777
237.88         47.1598
238.34        47.95978
238.80        48.30099
239.26        48.40617
239.71        48.35546
240.17        47.69007
240.63        45.77045
241.08        43.12602
241.54        41.21967
242.00        41.33637
242.46        44.44958
242.91        51.99712
243.37        66.04815
243.83        90.19527
244.28        112.2935
244.74        112.6091
245.20        101.1497
245.66        90.29089
246.11        84.11716
246.57        81.21925
247.03         79.3295
247.48        74.62522
247.94        58.94725
248.40        32.00111
248.85        2.612198
249.31       -13.03386
249.77       -5.897866
250.22        13.87286
250.68        35.77129
251.14        53.10167
251.59        63.08379
252.05        67.65361
252.51        68.48753
252.96        64.96555
253.42        63.71157
253.88        74.86828
254.33        83.04454
254.79        84.03552
255.25        81.01464
255.70        76.45629
256.16        72.60959
256.62        70.17757
257.07        69.70431
257.53        70.88629
257.99        72.40882
258.44        73.21234
258.90        73.00133
259.35        71.51339
259.81        69.44518
260.27        67.19194
260.72         65.4267
261.18         64.5204
261.63        63.85886
262.09        63.23027
262.55        61.96201
263.00        59.99469
263.46        57.80491
263.91        55.61215
264.37         54.0176
264.83        52.98228
265.28        52.28345
265.74        51.70519
266.19        50.69677
266.65        49.30932
267.11        47.64331
267.56        46.05303
268.02        45.18133
268.47        45.07175
268.93         45.4528
269.38        45.87449
269.84        45.57094
270.30        44.39336
270.75        42.61235
271.21        40.61195
271.66        38.83479
272.12        37.50079
272.57        36.42515
273.03        35.63188
273.48        35.09961
273.94         34.7981
274.39        34.69685
274.85        34.65544
275.31        34.39517
275.76        33.85744
276.22         33.1553
276.67        32.38023
277.13        31.78241
277.58        31.34526
278.04        31.03572
278.49        30.73247
278.95        30.37539
279.40        29.89877
279.86        29.38355
280.31          28.837
280.77        28.35519
281.22        27.90755
281.68        27.52768
282.13        27.12666
282.59        26.66537
283.04        26.12288
283.50        25.57745
283.95        25.10712
284.41        24.88372
284.86        24.91247
285.32        25.13011
285.77        25.43886
286.22        25.74209
286.68        26.00457
287.13        26.23117
287.59        26.39377
288.04         26.4049
288.50        26.29247
288.95        26.04758
289.41        25.81288
289.86        25.71994
290.32        25.82307
290.77        26.08159
291.22        26.40749
291.68        26.64744
292.13        26.78104
292.59        26.90711
293.04        27.12738
293.50        27.64373
293.95        28.48615
294.40        29.60184
294.86          30.902
295.31        32.25528
295.77        33.59673
296.22         34.9287
296.68        36.27045
297.13        37.64323
297.58        39.07404
298.04        40.57649
298.49        42.09665
298.95        43.59083
299.40        45.02872
299.85        46.42599
300.31        47.91133
300.76        49.66512
301.21        51.72896
301.67        54.05799
302.12        56.41197
302.58        58.42999
303.03        59.98604
303.48        61.21297
303.94        62.41211
304.39        63.93505
304.84        65.91584
305.30        68.22261
305.75        70.62776
306.20        72.80521
306.66        74.65784
307.11        76.23588
307.57        77.67268
308.02        79.05563
308.47        80.46528
308.93        81.86697
309.38        83.20501
309.83        84.49166
310.29        85.74049
310.74        86.95593
311.19        88.14228
311.65        89.27397
312.10        90.32513
312.55        91.29137
313.00        92.24309
313.46        93.29803
313.91        94.45271
314.36        95.66888
314.82         96.7612
315.27        97.44754
315.72        97.66418
316.18        97.53841
316.63        97.27535
317.08        97.25693
317.53        97.58284
317.99        98.15821
318.44        98.83261
318.89        99.32326
319.35        99.55497
319.80        99.64272
320.25        99.70286
320.70        99.92214
321.16        100.3349
321.61        100.8686
322.06         101.465
322.51          102.06
322.97        102.5812
323.42        103.0808
323.87        103.4598
324.32        103.5795
324.78        103.4264
325.23        103.0938
325.68        102.7152
326.13        102.5322
326.59        102.6027
327.04        102.9182
327.49        103.4154
327.94        103.9982
328.39        104.6013
328.85        105.1896
329.30        105.7784
329.75        106.2369
330.20        106.5387
330.66        106.6787
331.11        106.7339
331.56        106.7225
332.01        106.6944
332.46        106.6537
332.92        106.7047
333.37        107.1208
333.82        107.9115
334.27        109.0359
334.72        110.2616
335.17        111.1637
335.63        111.5845
336.08        111.6685
336.53        111.6156
336.98        111.8351
337.43        112.4464
337.88        113.3382
338.34        114.2915
338.79        115.0275
339.24        115.4132
339.69         115.541
340.14        115.6021
340.59        115.8895
341.05         116.464
341.50        117.2546
341.95        118.0419
342.40        118.4813
342.85        118.5147
343.30        118.2805
343.75        118.0598
344.20        118.2798
344.66        119.0239
345.11         120.136
345.56        121.3759
346.01        122.3318
346.46        122.8716
346.91        123.1349
347.36        123.2279
347.81        123.3186
348.26        123.4793
348.72        123.6483
349.17        123.8561
349.62        124.2326
350.07        124.7529
350.52        125.3562
350.97        125.8608
351.42        125.9545
351.87        125.5891
352.32        124.9163
352.77         124.058
353.22        123.2088
353.67        122.4642
354.13         121.795
354.58        121.2991
355.03        121.2395
355.48        121.6164
355.93        122.3796
356.38        123.1349
356.83        123.2151
357.28        122.4874
357.73        121.1465
358.18        119.7114
358.63        118.9642
359.08        119.0463
359.53        119.7098
359.98        120.4763
360.43        120.5499
360.88        119.7276
361.33        118.2893
361.78        116.6658
362.23         115.465
362.68        114.8305
363.13        114.5695
363.58        114.3966
364.03        113.8778
364.48        112.9013
364.93        111.6127
365.38        110.2838
365.83        109.2997
366.28        108.7415
366.73        108.4985
367.18         108.269
367.63        107.5857
368.08        106.3794
368.53         104.829
368.98          103.33
369.43        102.4496
369.88        102.2794
370.33        102.6291
370.78        103.1066
371.23        103.0354
371.68        102.2312
372.13        100.9269
372.58        99.47818
373.03        98.40905
373.48        97.84496
373.93        97.59959
374.38         97.4894
374.83        97.22832
375.28        96.72129
375.72        96.06896
376.17        95.35062
376.62        94.60872
377.07        93.87589
377.52        93.11787
377.97        92.38964
378.42        91.79424
378.87        91.34496
379.32        91.02312
379.77         90.7338
380.22        90.31646
380.67        89.74079
381.11        89.06325
381.56        88.37558
382.01        87.85507
382.46        87.55142
382.91        87.40539
383.36        87.33778
383.81        87.22518
384.26        87.02434
384.71        86.77018
385.15        86.46712
385.60        86.17498
386.05        85.89184
386.50        85.59327
386.95        85.28324
387.40        84.98033
387.85        84.68436
388.29        84.34655
388.74        84.03996
389.19        83.66368
389.64        83.21109
390.09         82.7034
390.54        82.18156
390.98        81.69617
391.43        81.31805
391.88        81.01009
392.33        80.76283
392.78         80.5211
393.23        80.26482
393.67        80.05572
394.12        79.93465
394.57        79.51128
395.02        79.21364
395.47        78.81103
395.91        78.50777
396.36        78.33392
396.81        78.31423
397.26        78.47799
397.71        78.65297
398.15        78.55006
398.60        78.22059
399.05        77.62807
399.50        77.00763
399.95        76.85944
400.39        77.16362
400.84        77.36114
401.29        77.30445
401.74        77.13046
402.18        76.80248
402.63        76.15138
403.08        75.38782
403.53        74.91235
403.97        74.78021
404.42        74.87827
404.87        75.06531
405.32        75.09943
405.76        74.90511
406.21        74.67731
406.66        74.45119
407.11        74.07542
407.55        73.70978
408.00        73.75587
408.45        74.12841
408.90        74.31765
409.34        74.17532
409.79        73.74238
410.24        73.18075
410.68        72.87621
411.13        72.89178
411.58         72.9903
412.03        73.11022
412.47        73.25765
412.92        73.36512
413.37        73.44552
413.81        73.46725
414.26        73.44537
414.71        73.36566
415.15        73.23684
415.60        73.07784
416.05         72.9877
416.49         72.9911
416.94        73.05879
417.39        73.13544
417.83         73.1151
418.28        72.97952
418.73        72.76759
419.17        72.53519
419.62        72.37476
420.07         72.3051
420.51        72.28211
420.96        72.31723
421.41        72.30846
421.85        72.21259
422.30        72.23302
422.74        72.31998
423.19        72.18428
423.64        71.94669
424.08        72.29034
424.53        73.04948
424.98        73.37425
425.42        73.16079
425.87         72.9468
426.31        72.85558
426.76         72.5542
427.21        72.26035
427.65        72.75877
428.10        73.70603
428.54        73.99818
428.99        73.60259
429.44        72.70211
429.88        71.71404
430.33        72.03597
430.77        73.23958
431.22        73.29891
431.66        72.29886
432.11        72.01644
432.56        72.52339
433.00        72.90889
433.45        73.00353
433.89        73.08161
434.34        72.46291
434.78        73.59257
435.23        73.57401
435.67        73.66742
436.12         73.2403
436.57        73.45329
437.01        74.20668
437.46        74.52308
437.90        74.40543
438.35        73.88331
438.79         74.1426
439.24        73.77187
439.68        73.23504
440.13        73.12172
440.57        73.49712
441.02        73.80812
441.46        73.94432
441.91         74.5723
442.35        75.35662
442.80        74.91032
443.24        74.38222
443.69        73.99062
444.13        74.13284
444.58        74.15257
445.02        74.04063
445.47        74.30039
445.91        74.86964
446.36        75.22556
446.80        75.25166
447.24        75.98502
447.69        75.78476
448.13        75.91936
448.58        75.92825
449.02        75.82409
449.47        75.66634
449.91         75.5459
450.36        75.52185
450.80        75.54044
451.25        75.57919
451.69        75.54867
452.13        75.43549
452.58         75.2665
453.02        75.06999
453.47        74.92629
453.91        74.83951
454.36        74.82329
454.80        74.81134
455.24        74.66322
455.69        74.37693
456.13        74.06592
456.58        73.91301
457.02        73.64567
457.46        73.90492
457.91        74.42675
458.35        75.10413
458.79        75.19245
459.24        74.63069
459.68        73.90731
460.13        73.41077
460.57        72.21976
461.01        72.49001
461.46        72.64058
461.90        73.06013
462.34        72.92668
462.79        72.31158
463.23        72.41313
463.68        73.06599
464.12        73.20911
464.56        72.81203
465.01        72.41296
465.45        72.09931
465.89        72.24876
466.34        72.64848
466.78         72.6099
467.22        71.67852
467.67        71.42265
468.11        71.52958
468.55         71.8397
468.99        72.11745
469.44        72.22034
469.88        72.11421
470.32        71.90598
470.77         71.6908
471.21        71.57748
471.65        71.58835
472.10        71.70322
472.54        71.83549
472.98        71.85583
473.42        71.72755
473.87        71.59078
474.31        71.44284
474.75        71.13732
475.20        70.79298
475.64        70.88199
476.08         71.3035
476.52        71.34119
476.97        70.90989
477.41        71.06386
477.85        70.31256
478.29        70.57704
478.74        71.17773
479.18        71.13805
479.62        70.41967
480.06        70.23309
480.50        70.58641
480.95        69.97125
481.39        70.83975
481.83        69.76683
482.27        69.97277
482.72         70.4932
483.16        70.07664
483.60        70.29584
484.04        70.48166
484.48        70.52772
484.93        70.68124
485.37        70.99046
485.81        70.67413
486.25         71.5743
486.69        71.54436
487.14        69.11879
487.58        68.41664
488.02        70.16601
488.46        70.10876
488.90        69.50738
489.34        70.29845
489.79        70.01727
490.23        70.09869
490.67         69.9225
491.11        69.76035
491.55        69.87989
491.99        70.16756
492.43        70.22252
492.88        69.99854
493.32        69.75031
493.76        69.56525
494.20        69.48219
494.64        69.51417
495.08        69.66547
495.52        69.88167
495.96        69.88503
496.41        69.67498
496.85        69.73872
497.29        70.01638
497.73        69.47779
498.17        69.28889
498.61        68.89294
499.05        68.45769
499.49        68.78165
499.93        69.53658
500.37        69.73305
500.82        69.41541
501.26        69.06491
501.70        69.66644
502.14         69.8041
502.58        69.71401
503.02        69.61216
503.46        69.51136
503.90        69.33247
504.34        69.14497
504.78        69.08419
505.22        69.15462
505.66        69.38309
506.10        69.68166
506.54        69.70995
506.98        69.39233
507.42        69.49821
507.86        68.96712
508.30        68.80926
508.74        68.87659
509.18        69.01469
509.62        69.20325
510.06        69.35353
510.50        69.44073
510.94        69.48045
511.38        69.47475
511.82         69.4286
512.26        69.34815
512.70         69.2232
513.14         69.0854
513.58        68.99084
514.02         68.9513
514.46        68.96046
514.90        68.97564
515.34        68.92167
515.78         68.7888
516.22         68.6081
516.66        68.43834
517.10        68.36873
517.54        68.41801
517.98         68.5531
518.42        68.72697
518.86        68.86227
519.30        68.93166
519.74        68.95535
520.18        68.94717
520.62        68.93153
521.06        68.91772
521.50        68.89156
521.93        68.86165
522.37        68.83574
522.81        68.81958
523.25        68.81642
523.69        68.80706
524.13        68.75583
524.57        68.66324
525.01          68.548
525.45        68.44411
525.89        68.40439
526.32        68.43887
526.76        68.52571
527.20        68.64146
527.64        68.75154
528.08        68.83817
528.52        68.91097
528.96        68.95248
529.40        68.93765
529.83        68.86126
530.27        68.74725
530.71        68.63271
531.15        68.59499
531.59         68.6487
532.03        68.76761
532.46        68.89429
532.90        68.95702
533.34        68.93659
533.78         68.8085
534.22        68.61616
534.66         68.5433
535.09         68.5451
535.53        68.35954
535.97        68.03737
536.41        67.90453
536.85        67.98003
537.28        68.09239
537.72        68.20129
538.16        68.29707
538.60        68.35353
539.04        68.38795
539.47        68.39322
539.91        68.35471
540.35         68.2846
540.79        68.30252
541.22        68.39038
541.66        68.33612
542.10        68.30785
542.54         68.2353
542.97        68.18023
543.41        68.16322
543.85        68.17921
544.29        68.22258
544.72        68.26656
545.16         68.3076
545.60        68.32469
546.04        68.31509
546.47        68.28218
546.91        68.24622
547.35        68.21868
547.79        68.17717
548.22        68.08296
548.66        68.02155
549.10        68.00257
549.53        67.71188
549.97        67.76531
550.41        67.80106
550.84        68.00403
551.28        68.22823
551.72        68.43937
552.15        68.77962
552.59         69.1227
553.03         68.9943
553.46        68.47989
553.90        68.26076
554.34        68.38871
554.77        68.37736
555.21        68.14658
555.65        68.51301
556.08        68.14812
556.52        68.01208
556.96        67.78024
557.39        67.67171
557.83        67.72304
558.27        67.82282
558.70        67.90225
559.14        68.09502
559.57        67.84992
560.01        67.99577
560.45        68.25212
560.88        68.36645
561.32        68.32737
561.75        67.85746
562.19        67.23724
562.63        67.41042
563.06        68.20029
563.50        68.24581
563.93        67.59093
564.37        67.42934
564.80         67.7469
565.24        67.91218
565.68        67.87594
566.11        67.86257
566.55        67.89585
566.98        67.86531
567.42        67.83309
567.85        67.89063
568.29        68.04984
568.72        68.11377
569.16        68.15393
569.60        68.21421
570.03        68.21731
570.47        68.14233
570.90        68.60245
571.34        67.59772
571.77        68.19189
572.21         68.1399
572.64        68.35293
573.08        68.05166
573.51        68.52471
573.95        68.84552
574.38        68.24477
574.82        68.38017
575.25        68.46472
575.69        69.19746
576.12        68.50668
576.56        67.83044
576.99        68.28048
577.42        68.60233
577.86         68.4925
578.29         68.6222
578.73         69.5362
579.16        68.51168
579.60        68.01698
580.03        67.65859
580.47        68.44963
580.90        67.59098
581.33        68.60049
581.77        69.11763
582.20        69.07729
582.64        68.64842
583.07        68.44276
583.51        68.06042
583.94        68.01436
584.37        68.27045
584.81        68.79807
585.24        68.86031
585.68        68.39193
586.11          68.757
586.54         68.5497
586.98        67.83934
587.41        67.50346
587.85        68.48445
588.28        68.71987
588.71         67.5789
589.15        68.34279
589.58        67.48273
590.01        67.59826
590.45        67.68029
590.88        68.10452
591.31        68.19588
591.75        67.89331
592.18        67.85202
592.61        67.92693
593.05        68.02866
593.48        67.58968
593.91        67.82659
594.35         67.4401
594.78        67.50539
595.21         67.6068
595.65        67.88678
596.08        68.23602
596.51        67.70711
596.94        67.64126
597.38        67.42145
597.81        67.53298
598.24        67.48563
598.68        67.40792
599.11        67.47232
599.54        68.51101
599.97        68.10808
600.41        67.46763
600.84        68.13291
601.27        67.92577
601.70        68.03184
602.14        68.27681
602.57        68.14458
603.00        67.92519
603.43        67.60444
603.87        67.72324
604.30        67.64742
604.73         67.5581
605.16        67.46719
605.60         67.3675
606.03        67.65945
606.46        68.08593
606.89        67.90397
607.32          67.353
607.76         67.1064
608.19        67.28156
608.62        67.83779
609.05        67.77412
609.48        67.99881
609.92        67.40404
610.35         67.0818
610.78        68.31973
611.21        68.39738
611.64        67.78679
612.07        67.95019
612.50        68.43174
612.94        68.44279
613.37          67.817
613.80        68.06833
614.23        67.66443
614.66        67.90368
615.09         67.3504
615.52         67.4632
615.96        67.83511
616.39        68.08173
616.82        68.16337
617.25        67.94485
617.68        67.99409
618.11        67.84628
618.54        67.68359
618.97        67.45872
619.40        67.26649
619.84        67.15275
620.27        67.12479
620.70        67.51652
621.13        68.22457
621.56        67.56197
621.99        67.21443
622.42        67.36426
622.85        67.45821
623.28        67.69874
623.71        67.39101
624.14        67.74536
624.57        67.66221
625.00        67.77531
625.43        67.80014
625.86        67.53879
626.29        67.61469
626.72        67.29942
627.15        67.37083
627.58        67.33857
628.01        67.36094
628.44        67.32778
628.87        67.24284
629.30        67.24525
629.73        67.32697
630.16        67.36154
630.59        67.33652
631.02        67.32452
631.45        67.32307
631.88        67.29256
632.31        67.23384
632.74        67.15986
633.17        67.09207
633.60        67.06374
634.03        67.08175
634.46         67.1356
634.89        67.20029
635.32        67.23444
635.75        67.22592
636.18        67.18507
636.61        67.12953
637.04        67.09102
637.47        67.07954
637.89         67.0826
638.32        67.06929
638.75        67.05345
639.18        67.03702
639.61        66.91801
640.04         66.9008
640.47        66.82919
640.90        66.76867
641.33        66.69939
641.76        66.62624
642.18        66.65509
642.61        66.79185
643.04         66.8641
643.47        66.76968
643.90        67.29086
644.33        66.96155
644.76        66.86774
645.18        66.68016
645.61        66.81477
646.04        67.18562
646.47        67.22722
646.90        66.96555
647.33        66.89634
647.75        67.02663
648.18        67.03918
648.61        66.95271
649.04        66.88752
649.47        66.82821
649.89         66.9185
650.32        67.06968
650.75        66.72638
651.18        66.10178
651.61        66.29237
652.03        67.21284
652.46        67.47803
652.89        66.99725
653.32        66.88221
653.74        67.37258
654.17        66.50625
654.60        67.20151
655.03         67.2917
655.46        66.33786
655.88        66.74329
656.31        74.34972
656.74        72.77307
657.16        66.79496
657.59        65.48653
658.02        66.55335
658.45        67.14223
658.87        67.43617
659.30        66.68008
659.73         66.6797
660.15        68.03546
660.58        66.77264
661.01        66.58405
661.44        66.29578
661.86        66.39288
662.29        66.78333
662.72         67.0847
663.14         67.2534
663.57         67.3232
664.00        67.31765
664.42        67.27364
664.85        67.20755
665.27        67.03308
665.70        66.81161
666.13        66.70528
666.55        66.74868
666.98        66.87934
667.41         67.0602
667.83        67.23217
668.26        67.35055
668.69        67.43268
669.11        67.47884
669.54        67.51214
669.96        67.52869
670.39        67.46261
670.82        67.35596
671.24        67.30717
671.67        67.34116
672.09        67.44143
672.52        67.56606
672.94         67.5818
673.37        67.47497
673.80        67.29257
674.22        67.10859
674.65        66.99943
675.07        67.00925
675.50        67.10232
675.92        67.22681
676.35        67.29068
676.77        67.27202
677.20        67.18761
677.62        67.09325
678.05        67.06361
678.47        67.11612
678.90         67.2355
679.32        67.34975
679.75        67.37072
680.17         67.2732
680.60        67.08653
681.02          66.901
681.45        66.83105
681.87         66.9122
682.30        67.14117
682.72        67.42052
683.15        67.44201
683.57        67.22839
684.00        67.09404
684.42        67.08547
684.85         67.0633
685.27        67.02847
685.70        67.09318
686.12        67.21194
686.54        67.25161
686.97        67.18288
687.39        67.13667
687.82        67.09525
688.24        66.86796
688.66        66.55664
689.09        66.58834
689.51        66.93558
689.94        67.12953
690.36        67.14725
690.78        67.22977
691.21        67.42148
691.63         67.6635
692.06        67.95671
692.48        68.35489
692.90        68.72895
693.33        68.82001
693.75         68.6018
694.17         68.1144
694.60        67.55033
695.02        67.27119
695.44        67.29067
695.87        67.36605
696.29        67.42683
696.71         67.3435
697.14        67.19727
697.56        67.40113
697.98        67.87664
698.41        68.10353
698.83        68.04362
699.25         67.9888
699.68        67.95171
700.10        67.89117
700.52        67.81889
700.94        67.70652
701.37        67.60006
701.79        67.69569
702.21        67.92872
702.64        68.08964
703.06        68.14178
703.48        68.09524
703.90        67.92479
704.33        68.04228
704.75        67.64307
705.17         67.5726
705.59        67.60495
706.01         67.7064
706.44        67.85853
706.86        68.05491
707.28        68.25986
707.70        68.51552
708.12        68.75247
708.55        68.73318
708.97        68.49511
709.39        68.34656
709.81        68.31819
710.23        68.22789
710.66        68.09149
711.08        68.06324
711.50        68.12119
711.92        68.16417
712.34        68.18071
712.76        68.20605
713.19         68.2246
713.61        68.25671
714.03        68.28387
714.45        68.29297
714.87         68.3115
715.29        68.38828
715.71         68.5261
716.13        68.71168
716.56        68.86416
716.98        68.93462
717.40         68.8745
717.82        68.70934
718.24        68.52085
718.66        68.44016
719.08         68.4959
719.50        68.65015
719.92        68.82273
720.34        68.88075
720.76        68.79395
721.19        68.61073
721.61        68.40701
722.03        68.29325
722.45        68.30717
722.87        68.41915
723.29        68.58698
723.71        68.74308
724.13        68.85574
724.55        68.92797
724.97        68.98839
725.39        69.08255
725.81        69.21478
726.23        69.37228
726.65        69.47556
727.07        69.40332
727.49        69.14641
727.91        68.75123
728.33        68.36463
728.75        68.21596
729.17        68.35046
729.59        68.69951
730.01        69.10743
730.43        69.30377
730.85        69.21974
731.27        68.95186
731.69        68.62181
732.10        68.42027
732.52         68.4026
732.94        68.48923
733.36        68.65576
733.78        68.85246
734.20        69.04379
734.62        69.29631
735.04        69.53139
735.46        69.52796
735.88        69.34328
736.30         69.1942
736.72        69.13476
737.13         69.2841
737.55        69.53596
737.97        69.40892
738.39        69.00513
738.81        69.12536
739.23        69.68078
739.65        69.73289
740.06        69.28704
740.48        69.14462
740.90         69.2992
741.32        69.37842
741.74        69.33419
742.16         69.2787
742.57        69.21057
742.99        69.08625
743.41        68.98907
743.83        69.04356
744.25        69.25261
744.67          69.556
745.08        69.84682
745.50        69.90034
745.92        69.68687
746.34        69.26287
746.75        68.78142
747.17        68.48914
747.59         68.4235
748.01        68.62128
748.42        68.96672
748.84        68.97733
749.26        68.72224
749.68        68.82714
750.09        69.23388
750.51        69.38503
750.93        69.25986
751.35        69.17081
751.76        69.17583
752.18        69.22083
752.60        69.32391
753.01        69.51293
753.43        69.72216
753.85        69.88418
754.27        69.97928
754.68        70.02431
755.10        70.04758
755.52        70.09558
755.93         70.1675
756.35        70.23101
756.77        70.28616
757.18        70.29328
757.60        70.25804
758.02        70.32183
758.43        70.39104
758.85        70.15346
759.26        69.71937
759.68        69.58728
760.10        69.80849
760.51        70.08899
760.93        70.26977
761.34        70.30359
761.76        70.19101
762.18        69.83396
762.59        69.44278
763.01        69.59678
763.42        70.24769
763.84        70.47805
764.26        70.23379
764.67        70.02274
765.09        69.94423
765.50        69.78983
765.92        69.62267
766.33        69.53245
766.75        69.48085
767.16        69.59305
767.58        69.82334
768.00        70.01306
768.41        70.23044
768.83        70.82467
769.24        71.61919
769.66        71.97225
770.07        71.82415
770.49        71.43022
770.90          70.966
771.32        70.78722
771.73        70.90739
772.15        70.87743
772.56        70.70839
772.97        70.75616
773.39        70.97065
773.80         71.1134
774.22        71.11781
774.63        71.10294
775.05        71.05968
775.46        71.04693
775.88        71.05383
776.29        71.08411
776.70        71.13288
777.12        71.22029
777.53         71.3559
777.95        71.50919
778.36        71.64972
778.77        71.67643
779.19        71.56644
779.60         71.4231
780.02        71.27664
780.43        70.99596
780.84        70.70442
781.26        70.79994
781.67        71.18394
782.09        71.33205
782.50        71.17249
782.91        70.85391
783.33        70.55204
783.74        70.60516
784.15        71.07178
784.57        71.74058
784.98        72.48335
785.39        73.10127
785.81        73.50098
786.22        73.50275
786.63        73.56996
787.04         73.4342
787.46        73.29338
787.87        73.06663
788.28        72.86465
788.70        72.82964
789.11        72.95195
789.52        73.23396
789.93        73.51861
790.35        73.52773
790.76        73.23412
791.17        72.70897
791.58         72.1545
792.00        71.88795
792.41        71.99905
792.82        72.34921
793.23        72.77219
793.65        73.11479
794.06        73.24559
794.47         72.9364
794.88        72.40754
795.29        72.20755
795.71        72.32707
796.12         72.6202
796.53        72.91417
796.94        72.98468
797.35        72.74722
797.76         72.3056
798.18        71.86593
798.59        71.69336
799.00        71.85979
799.41        72.26335
799.82        72.78029
800.23        73.20328
800.64        73.44653
801.06        73.54735
801.47        73.54094
801.88        73.39137
802.29        73.12537
802.70        72.74306
803.11        72.36977
803.52        72.21413
803.93        72.33431
804.34        72.69108
804.75        73.14948
805.17        73.52506
805.58        73.79523
805.99        73.72369
806.40        73.43459
806.81          73.749
807.22        74.43092
807.63        74.03953
808.04        72.79106
808.45        72.30353
808.86        72.70876
809.27        73.13261
809.68        73.39645
810.09        73.58796
810.50        73.63213
810.91        73.51611
811.32        73.30038
811.73        73.08799
812.14        72.92908
812.55        72.80408
812.96        72.76014
813.37        72.87018
813.78        73.13216
814.19         73.5189
814.60        73.93151
815.01        74.21498
815.42        74.32796
815.83        74.29941
816.24        74.16662
816.65        74.01605
817.05        73.89589
817.46        73.76862
817.87        73.66443
818.28        73.57867
818.69        73.50743
819.10        73.45773
819.51        73.44586
819.92        73.48837
820.33        73.57861
820.74        73.70184
821.14         73.7984
821.55        73.81123
821.96        73.72308
822.37        73.57158
822.78        73.42073
823.19        73.38554
823.60        73.50678
824.00        73.76535
824.41        74.09658
824.82        74.50189
825.23        74.93806
825.64        75.38113
826.04        75.76025
826.45        75.88021
826.86         75.7348
827.27        75.38131
827.68         74.8956
828.08        74.43346
828.49        74.02867
828.90        73.66529
829.31        73.41698
829.72        73.37953
830.12        73.59158
830.53        74.01072
830.94        74.45731
831.35        74.55273
831.75        74.23264
832.16        73.55195
832.57        72.87836
832.97        72.77072
833.38        73.31333
833.79        74.32426
834.20         75.4222
834.60        75.95224
835.01        75.71027
835.42        74.94482
835.82        73.95945
836.23        73.21825
836.64        72.87598
837.04        72.79982
837.45        72.91412
837.86        73.15811
838.26        73.48042
838.67         73.8818
839.08        74.25163
839.48        74.36434
839.89         74.1675
840.29        73.71438
840.70        73.18386
841.11        72.83907
841.51        72.77159
841.92        72.89648
842.33        73.14876
842.73        73.41774
843.14        73.60843
843.54        73.80651
843.95        73.98823
844.35        74.19182
844.76        74.38629
845.17        74.53241
845.57        74.63399
845.98        74.70345
846.38        74.75501
846.79        74.76841
847.19        74.70936
847.60        74.43632
848.00        73.97712
848.41        73.38472
848.81         72.8159
849.22        72.48061
849.62        72.44317
850.03        72.61529
850.43        72.92037
850.84        73.06906
851.24        73.05211
851.65        72.92317
852.05        72.80298
852.46        72.84169
852.86        73.05107
853.27        73.34828
853.67        73.68323
854.07        74.19257
854.48        74.80652
854.88        75.61266
855.29        76.23629
855.69        76.24133
856.10        75.41458
856.50        74.01995
856.90        72.55939
857.31        71.75736
857.71        71.76397
858.12        72.33611
858.52        73.23326
858.92        73.76608
859.33        73.68209
859.73         73.2351
860.13        72.56583
860.54        71.92316
860.94        71.42151
861.34        70.96381
861.75        70.62844
862.15        70.62324
862.55        70.94772
862.96        71.53842
863.36        72.22151
863.76        72.60902
864.17        72.59432
864.57        72.28411
864.97        71.82235
865.38        71.46737
865.78        71.33545
866.18         71.3376
866.58        71.40339
866.99        71.41346
867.39         71.3675
867.79        71.31128
868.19        71.26407
868.60        71.21409
869.00         71.1505
869.40        71.05061
869.80        70.97187
870.21        71.02421
870.61        71.27006
871.01        71.62843
871.41        71.89931
871.81        71.78061
872.22        71.23041
872.62        70.35777
873.02        69.44925
873.42        68.97102
873.82        69.06041
874.22        69.61083
874.63        70.36153
875.03        70.88656
875.43        71.06818
875.83        71.00212
876.23        70.92867
876.63        71.23535
877.03        71.98153
877.44        72.99805
877.84        73.96929
878.24        74.32882
878.64        73.96129
879.04        73.08393
879.44         72.0692
879.84        71.47218
880.24        71.42419
880.64        71.74277
881.04        72.22982
881.44        72.55621
881.84        72.61937
882.24        72.55668
882.65        72.35944
883.05        72.12301
883.45        71.86357
883.85        71.53725
884.25        71.31876
884.65        71.48243
885.05        72.04923
885.45        72.95443
885.85           73.88
886.25        74.26612
886.65         73.9668
887.05         73.1283
887.45        72.14037
887.85        71.62279
888.25        71.73459
888.65        72.31756
889.04        73.01838
889.44        73.23656
889.84        72.84763
890.24        72.03981
890.64        71.20823
891.04        70.91391
891.44        71.26553
891.84         72.1047
892.24        73.00381
892.64        73.24837
893.04        72.68394
893.44        71.54871
893.83        70.38988
894.23        70.03825
894.63        70.63223
895.03        71.91969
895.43        73.36004
895.83         73.9719
896.23        73.49921
896.63        72.32274
897.02        70.93437
897.42        70.13528
897.82        70.04672
898.22        70.45966
898.62        71.15103
899.01        71.77898
899.41        72.14398
899.81        72.37005
900.21        72.57687
900.61        72.94774
901.00        73.50842
901.40        74.13729
901.80        74.62972
902.20        74.70164
902.59        74.32436
902.99        73.61677
903.39         72.8478
903.79        72.44093
904.18        72.48529
904.58        72.86142
904.98        73.36176
905.38        73.67529
905.77        73.70948
906.17        73.59462
906.57        73.36208
906.96        73.07694
907.36        72.77616
907.76        72.44378
908.15         72.2205
908.55        72.29672
908.95         72.7049
909.34        73.38767
909.74        74.10088
910.14        74.51363
910.53        74.52016
910.93         74.2168
911.33        73.73485
911.72        73.28846
912.12        72.98154
912.52        72.75237
912.91        72.57976
913.31        72.42535
913.70        72.28405
914.10        72.18681
914.49        72.15877
914.89        72.20049
915.29        72.31146
915.68        72.48081
916.08         72.6603
916.47        72.79811
916.87         72.8754
917.26        72.90159
917.66        72.92577
918.05        73.02464
918.45        73.20508
918.84        73.48244
919.24        73.77783
919.64        74.02679
920.03        74.21811
920.42        74.34609
920.82        74.45946
921.21        74.66251
921.61        74.93115
922.00         75.2216
922.40        75.43475
922.79        75.47826
923.19        75.30563
923.58        74.98438
923.98        74.51669
924.37        73.82243
924.77        72.96659
925.16        71.98103
925.55        71.10683
925.95         70.7277
926.34        70.96959
926.74        71.68965
927.13        72.70853
927.52         73.6219
927.92        74.27042
928.31        74.74185
928.70        75.05583
929.10         75.2932
929.49        75.50625
929.89        75.63342
930.28         75.6787
930.67        75.63157
931.07        75.48166
931.46        75.23009
931.85        74.96938
932.24        74.83907
932.64         74.8627
933.03        75.06898
933.42        75.19956
933.82        74.86423
934.21        74.02984
934.60         72.8166
934.99        71.72152
935.39        71.46908
935.78         72.2309
936.17        73.84107
936.56        75.66038
936.96         76.4883
937.35        76.02515
937.74        74.58815
938.13        72.96489
938.53        72.22768
938.92        72.54398
939.31        73.62975
939.70        74.93274
940.09        75.45367
940.49        74.91521
940.88        73.69656
941.27        72.33701
941.66        71.61657
942.05        71.73237
942.44        72.44207
942.84        73.40504
943.23        74.09556
943.62        74.26074
944.01        74.10312
944.40        73.81873
944.79        73.71003
945.18        73.86256
945.57        74.11364
945.97        74.40444
946.36        74.76942
946.75        75.14846
947.14        75.58387
947.53        75.91352
947.92        75.83112
948.31        75.30584
948.70        74.45345
949.09        73.61522
949.48        73.30415
949.87        73.63761
950.26        74.49364
950.65         75.5791
951.04         76.3574
951.43        76.63337
951.82        76.51037
952.21        76.22479
952.60        76.16498
952.99        76.39194
953.38        76.74448
953.77        76.95876
954.16        76.59364
954.55        75.60474
954.94        74.28314
955.33        72.90429
955.72        71.84829
956.11        71.24516
956.50        70.93539
956.89        71.02588
957.28        71.69296
957.66        72.92397
958.05        74.55434
958.44        76.02427
958.83        76.26293
959.22        75.06628
959.61        72.84118
960.00        70.40389
960.39        68.91579
960.78        68.65005
961.16        69.33073
961.55        70.53376
961.94        71.63637
962.33        72.37032
962.72        72.90159
963.11        73.26893
963.49        73.53886
963.88         73.6842
964.27         73.6539
964.66        73.43406
965.04        73.06334
965.43        72.56361
965.82        71.93311
966.21        71.33005
966.60        71.02194
966.98        71.09443
967.37        71.48306
967.76         71.9053
968.15        71.85027
968.53        71.22507
968.92        70.18307
969.31        69.10513
969.69        68.59232
970.08        68.74186
970.47        69.37212
970.86        70.17064
971.24        70.58099
971.63        70.36433
972.02        69.75996
972.40        68.95782
972.79        68.27065
973.17        67.84898
973.56        67.61057
973.95        67.59417
974.33        67.88604
974.72        68.41666
975.11        69.12009
975.49        70.00294
975.88        70.98073
976.26        71.99347
976.65        72.94836
977.04        73.44594
977.42         72.8583
977.81        71.17591
978.19        68.64706
978.58        66.35237
978.96        65.65858
979.35        66.81313
979.74        69.53023
980.12        73.03081
980.51        75.09677
980.89        75.16245
981.28        73.67621
981.66        71.59212
982.05        70.59029
982.43        71.08987
982.82        72.49659
983.20        74.45432
983.59        76.19229
983.97        77.46218
984.35        78.46721
984.74          78.869
985.12        78.23656
985.51        76.58112
985.89        74.02422
986.28         71.4167
986.66        69.98582
987.04        70.14856
987.43        71.58554
987.81        73.60258
988.20        74.75295
988.58        74.64417
988.96         73.5266
989.35         72.1235
989.73        71.59057
990.12        72.15166
990.50        73.47826
990.88        74.71583
991.27          74.527
991.65        72.75962
992.03        69.98033
992.42        67.21951
992.80        65.76681
993.18        66.05991
993.56        67.62537
993.95        69.84508
994.33        71.94559
994.71        73.33047
995.10        74.20718
995.48        74.45544
995.86        73.88876
996.24        72.63711
996.63        70.80825
997.01        68.85196
997.39        67.44272
997.77        66.75162
998.15        66.65962
998.54        67.07262
998.92         67.7588
999.30        68.56461
999.68        69.53466
1000.06        70.44776
1000.45        70.88341
1000.83        70.86268
1001.21        70.36436
1001.59        69.61173
1001.97        69.08649
1002.35        68.94179
1002.73        69.02742
1003.12        69.32296
1003.50        69.69269
1003.88        70.09769
1004.26        70.66954
1004.64        71.12846
1005.02        71.02663
1005.40        70.35311
1005.78        69.18085
1006.16        68.15333
1006.54        68.44141
1006.92        70.22661
1007.30         73.0399
1007.69        75.82393
1008.07        77.09023
1008.45        76.36229
1008.83        74.21627
1009.21        71.29787
1009.59        68.69546
1009.97        66.92411
1010.35        65.72998
1010.73        65.40425
1011.11        66.42576
1011.49        68.82108
1011.86        72.71033
1012.24        77.06633
1012.62         80.2889
1013.00        81.68216
1013.38        81.32019
1013.76        79.87058
1014.14        78.87445
1014.52        78.87616
1014.90        79.46143
1015.28        80.09615
1015.66        79.83355
1016.04        78.56135
1016.41        76.89468
1016.79        75.30723
1017.17        73.96282
1017.55        72.72861
1017.93        71.24844
1018.31        69.52028
1018.69        68.16248
1019.06        67.67658
1019.44        68.03864
1019.82        68.43951
1020.20        67.98383
1020.58        66.59347
1020.95         64.2609
1021.33        61.78125
1021.71        61.16361
1022.09        63.42065
1022.46        67.89832
1022.84        72.89284
1023.22        76.29337
1023.60        77.56091
1023.97        77.27914
1024.35        75.87659
1024.73        74.23537
