SpectraSmart Spectrum 2.9.0.0
--------- Device Information -----------
Spectrum Name :  反射率_0
Saving Time :  2024/05/01 16:12:14
Spectro-Module Model Name : SE2030-DUVN
Spectro-Module Serial Number : OS361AC55029948
Wavelength Start : 200
Wavelength End : 1025
Wavelength Unit : Wavelength(nm)
Spectrum Unit : Reflectance(%)
-----------Spectrum Setting ------------
Integration Time : 20ms
Average : 10
Boxcar : 0
Background removal :  enabled
linearity correction :  enabled
SC :  disabled
Intensity correction :  disabled
DWT denoise :  enabled
savitzky-golay :  disabled
FFT :  disabled
Running average :  disabled
Kalman :  disabled
High pass :  disabled
---------------BEGIN--------------------
Wavelength(nm)             Reflectance(%)
200.29               0
200.75         30.6959
201.21        336.4998
201.67       -174.3684
202.13       -51.97575
202.58       0.5141344
203.04        37.05584
203.50         61.7786
203.96        74.38538
204.42        78.52171
204.88         75.0899
205.34       -53.15176
205.80        84.13634
206.26         51.5493
206.72       -7.584331
207.18       -305.0248
207.64        559.4719
208.10        260.3678
208.55         188.966
209.01        153.7336
209.47        132.1377
209.93        117.0657
210.39        103.0357
210.85        92.08358
211.31        89.26677
211.77        108.2212
212.23       -114.0015
212.69          16.977
213.14         32.0953
213.60         52.9253
214.06       -128.3186
214.52        4.062819
214.98        22.63825
215.44        46.67295
215.90          114.75
216.36        1122.181
216.81       -415.7622
217.27       -477.8629
217.73        820.7975
218.19        128.1047
218.65        66.27695
219.11        55.14431
219.57        77.06309
220.02        214.1402
220.48        138.9023
220.94        63.95372
221.40        44.40231
221.86        39.20568
222.32        41.12747
222.77        48.15022
223.23        60.57465
223.69        76.33949
224.15        81.64012
224.61        72.46163
225.06        59.01344
225.52        49.74868
225.98        47.02692
226.44        49.68059
226.90          56.865
227.36        67.03384
227.81        72.35967
228.27         69.4929
228.73        63.36007
229.19        58.32697
229.65        56.79525
230.10        58.44098
230.56         62.5595
231.02        68.16654
231.48        71.94327
231.93        72.01826
232.39        70.30112
232.85        68.24091
233.31        67.17824
233.77        67.27462
234.22        67.92731
234.68        69.15958
235.14        71.22225
235.60        74.39363
236.05        79.51355
236.51        86.86536
236.97        95.01702
237.43        101.3232
237.88          104.32
238.34        104.4329
238.80        105.3956
239.26        108.9559
239.71        116.0825
240.17        125.9342
240.63         132.271
241.08        128.5936
241.54        117.4934
242.00         108.288
242.46        108.6306
242.91        120.8559
243.37        148.1122
243.83        191.9135
244.28        214.5176
244.74        188.1414
245.20        148.6653
245.66        119.7237
246.11        104.7457
246.57        98.48212
247.03        96.45906
247.48        95.68677
247.94        88.27146
248.40        71.13638
248.85        51.29225
249.31         40.2648
249.77        44.03186
250.22        56.59259
250.68        71.22639
251.14        83.78615
251.59        93.64066
252.05        103.8109
252.51        120.2244
252.96        160.1734
253.42        247.6355
253.88        303.1835
254.33        266.7172
254.79        222.8092
255.25        192.1252
255.70        168.8912
256.16        152.1174
256.62         139.328
257.07        129.8039
257.53        124.3245
257.99         121.163
258.44        119.9056
258.90        121.4524
259.35        124.4582
259.81        128.6753
260.27        132.5618
260.72        134.1437
261.18        133.7468
261.63        131.5934
262.09        129.0481
262.55         126.647
263.00        124.3235
263.46        122.2659
263.91        119.9845
264.37        117.6914
264.83        115.2683
265.28        112.7922
265.74        110.5616
266.19        108.3753
266.65        106.4215
267.11        104.5426
267.56         102.848
268.02        101.6861
268.47         100.982
268.93        100.6065
269.38        100.1612
269.84        98.98808
270.30        96.99519
270.75        94.39131
271.21        91.65993
271.66        89.34306
272.12        87.65827
272.57        86.31682
273.03        85.20311
273.48        83.99766
273.94        82.69746
274.39        81.36863
274.85        80.04861
275.31        78.58887
275.76        76.97095
276.22        75.32166
276.67        73.75087
277.13        72.68455
277.58        72.00341
278.04        71.64931
278.49        71.23193
278.95        70.38913
279.40        68.98886
279.86         67.3181
280.31        65.56248
280.77        64.19767
281.22        63.19093
281.68        62.50042
282.13        61.88525
282.59        61.20628
283.04        60.35534
283.50        59.51039
283.95        58.69122
284.41        58.04459
284.86        57.57616
285.32        57.27053
285.77         57.1216
286.22        57.24427
286.68        57.60412
287.13        58.10678
287.59        58.56949
288.04        58.63164
288.50        58.27825
288.95        57.57761
289.41        56.80785
289.86        56.20626
290.32        55.91704
290.77        55.84774
291.22        55.95033
291.68        56.11496
292.13        56.30568
292.59         56.6225
293.04        57.11234
293.50        57.90885
293.95        58.99698
294.40        60.31875
294.86        61.77718
295.31        63.23291
295.77        64.62561
296.22        65.94063
296.68          67.208
297.13        68.43644
297.58        69.67706
298.04        70.96773
298.49        72.27931
298.95        73.62355
299.40        74.97255
299.85        76.33051
300.31        77.82369
300.76        79.58981
301.21        81.66064
301.67        83.98391
302.12         86.2799
302.58        88.15919
303.03        89.47699
303.48        90.39087
303.94        91.24775
304.39         92.4043
304.84         94.0248
305.30        95.97649
305.75         98.0311
306.20        99.88791
306.66        101.4659
307.11        102.7984
307.57        104.0159
308.02        105.1524
308.47        106.2874
308.93        107.3951
309.38        108.4298
309.83        109.4441
310.29        110.4652
310.74        111.4841
311.19        112.4767
311.65        113.3694
312.10        114.1235
312.55        114.7515
313.00        115.3843
313.46        116.2332
313.91        117.3047
314.36        118.5263
314.82        119.6265
315.27        120.1869
315.72        120.1185
316.18        119.6141
316.63        118.9491
317.08        118.6276
317.53         118.778
317.99        119.2538
318.44        119.8885
318.89        120.3677
319.35        120.5909
319.80        120.6867
320.25        120.7189
320.70        120.7879
321.16        120.9207
321.61        121.0802
322.06        121.2978
322.51        121.6635
322.97        122.1429
323.42        122.7498
323.87        123.3176
324.32        123.5952
324.78        123.5171
325.23        123.2018
325.68        122.7793
326.13        122.4937
326.59        122.4077
327.04        122.5194
327.49        122.7786
327.94        123.1247
328.39        123.5126
328.85         123.904
329.30        124.3545
329.75        124.7593
330.20        125.0939
330.66         125.337
331.11        125.5263
331.56        125.5862
332.01        125.5411
332.46         125.417
332.92          125.35
333.37        125.6917
333.82        126.4751
334.27        127.6442
334.72        128.9585
335.17        129.9801
335.63        130.5289
336.08        130.7427
336.53        130.8078
336.98        131.1238
337.43        131.7975
337.88        132.7174
338.34        133.6057
338.79        134.1107
339.24        134.0997
339.69        133.7103
340.14        133.2635
340.59        133.2502
341.05        133.7757
341.50        134.7135
341.95        135.7313
342.40        136.2958
342.85         136.285
343.30        135.8816
343.75        135.4223
344.20        135.4223
344.66        135.9939
345.11        136.9582
345.56         138.043
346.01        138.7941
346.46        139.0786
346.91          139.06
347.36        138.9131
347.81        138.8971
348.26        139.0932
348.72          139.41
349.17        139.7708
349.62        140.1411
350.07        140.4594
350.52        140.7059
350.97        140.8206
351.42        140.6937
351.87        140.3199
352.32        139.7789
352.77        139.0591
353.22        138.1528
353.67        137.1091
354.13        135.9698
354.58        134.9333
355.03         134.423
355.48        134.4816
355.93         135.017
356.38        135.5659
356.83        135.3526
357.28        134.2322
357.73        132.4558
358.18        130.6261
358.63        129.6333
359.08        129.6303
359.53        130.3184
359.98        131.1433
360.43        131.1911
360.88        130.2195
361.33        128.5412
361.78         126.626
362.23        125.1356
362.68        124.2336
363.13        123.7161
363.58        123.2889
364.03        122.5122
364.48        121.2751
364.93        119.7239
365.38        118.1594
365.83        117.0033
366.28        116.3327
366.73        116.0233
367.18        115.6992
367.63        114.7773
368.08        113.1779
368.53        111.1279
368.98        109.1309
369.43        107.9084
369.88        107.5854
370.33        107.9315
370.78        108.4755
371.23        108.3996
371.68        107.4771
372.13        105.9822
372.58        104.3379
373.03        103.1701
373.48        102.6203
373.93        102.4549
374.38        102.4251
374.83        102.1461
375.28        101.4971
375.72        100.6168
376.17        99.63575
376.62        98.66547
377.07        97.76604
377.52        96.89182
377.97         96.0857
378.42        95.43165
378.87        94.93544
379.32        94.58076
379.77        94.28642
380.22        93.91006
380.67        93.41615
381.11        92.84776
381.56        92.24702
382.01        91.71684
382.46        91.29292
382.91        90.93689
383.36        90.63436
383.81         90.3637
384.26        90.10138
384.71        89.85182
385.15        89.56091
385.60        89.19378
386.05        88.73515
386.50        88.20903
386.95        87.66781
387.40         87.2054
387.85         86.8395
388.29        86.47781
388.74        86.19804
389.19        85.90963
389.64        85.59606
390.09        85.27258
390.54        84.89925
390.98        84.44487
391.43        83.98708
391.88         83.3934
392.33        82.78342
392.78        82.64648
393.23        82.84284
393.67        82.55287
394.12        81.90566
394.57        81.69108
395.02        81.80507
395.47         81.3613
395.91        80.52224
396.36        80.17739
396.81        80.37785
397.26        80.72093
397.71        80.97573
398.15        80.87308
398.60        80.44274
399.05        79.78453
399.50        79.13199
399.95        78.69701
400.39          78.604
400.84        78.93642
401.29        79.43859
401.74        79.51208
402.18         79.0024
402.63         77.9836
403.08        76.83005
403.53        76.17188
403.97        76.11554
404.42        76.41814
404.87        76.81592
405.32        76.94411
405.76        76.68785
406.21        76.23304
406.66        75.72574
407.11        75.29999
407.55        75.10291
408.00        75.23613
408.45        75.56263
408.90        75.70375
409.34        75.50716
409.79        74.95036
410.24        74.23073
410.68        73.80815
411.13        73.75983
411.58        73.83855
412.03        73.96225
412.47        74.09401
412.92         74.1546
413.37        74.17294
413.81        74.13721
414.26        74.08665
414.71        74.01205
415.15        73.91721
415.60        73.79247
416.05          73.692
416.49        73.63176
416.94        73.59332
417.39        73.57269
417.83        73.54299
418.28        73.50061
418.73        73.46347
419.17        73.41241
419.62        73.32054
420.07        73.18085
420.51        72.98639
420.96        72.84251
421.41        72.77053
421.85        72.74834
422.30        72.99731
422.74        73.36629
423.19        73.27444
423.64        72.83971
424.08        73.19484
424.53        73.88485
424.98        74.22874
425.42        74.01601
425.87        73.96749
426.31        74.09789
426.76        73.61465
427.21        72.82545
427.65        73.16119
428.10        74.26465
428.54        74.48183
428.99        73.85728
429.44        72.93098
429.88        72.14202
430.33        72.92759
430.77        74.61591
431.22         74.6019
431.66         73.0458
432.11        72.16714
432.56        72.23142
433.00        72.76966
433.45        73.55141
433.89        73.62984
434.34        72.61927
434.78        74.14586
435.23         73.7775
435.67        73.90958
436.12        73.45138
436.57        73.76241
437.01        74.67966
437.46        75.15898
437.90        74.92708
438.35         74.4639
438.79        74.62579
439.24        74.30033
439.68         73.8733
440.13         73.9355
440.57        74.46722
441.02        74.80544
441.46         74.8306
441.91         75.1749
442.35        75.63008
442.80        75.24474
443.24        74.84624
443.69         74.6403
444.13        74.84415
444.58        74.87086
445.02        74.69583
445.47        74.73766
445.91         75.0062
446.36        75.21729
446.80        75.30738
447.24        75.91302
447.69        75.96252
448.13        76.19791
448.58        76.31104
449.02        76.31231
449.47         76.2466
449.91        76.16766
450.36        76.12453
450.80        76.07285
451.25        76.01565
451.69        75.91035
452.13        75.75864
452.58        75.58048
453.02        75.38681
453.47        75.23032
453.91        75.11119
454.36         75.0458
454.80        74.98906
455.24         74.8597
455.69        74.65157
456.13        74.38634
456.58        74.23299
457.02        73.99337
457.46        74.32173
457.91        74.65598
458.35        74.97465
458.79         74.9034
459.24        74.42445
459.68        73.75473
460.13        73.20948
460.57        72.34679
461.01        72.42793
461.46        72.58321
461.90        73.00336
462.34        72.81277
462.79        72.49899
463.23        72.58991
463.68        73.08323
464.12        73.17998
464.56        72.86984
465.01        72.50484
465.45        72.15127
465.89        72.30613
466.34        72.78105
466.78         72.5565
467.22        71.71555
467.67        71.43164
468.11        71.49294
468.55        71.53606
468.99        71.42632
469.44        71.37141
469.88        71.36677
470.32        71.35339
470.77         71.3278
471.21         71.2996
471.65        71.24677
472.10        71.18024
472.54        71.08934
472.98        70.94303
473.42        70.73335
473.87        70.63055
474.31        70.57967
474.75        70.21185
475.20        69.69384
475.64        69.84827
476.08         70.5186
476.52        70.66459
476.97        70.18546
477.41        70.40582
477.85        69.28082
478.29        70.06238
478.74        70.25871
479.18        70.27243
479.62        69.64699
480.06        69.43311
480.50        69.66821
480.95         69.2317
481.39        69.51395
481.83        68.91245
482.27        69.53049
482.72        69.47837
483.16        69.05654
483.60        69.05946
484.04        69.36506
484.48        69.45149
484.93        69.64754
485.37        70.09665
485.81        69.87306
486.25        71.11036
486.69        71.53068
487.14        68.44218
487.58         67.3288
488.02        69.57393
488.46        68.70407
488.90        68.25497
489.34        69.50052
489.79        68.58492
490.23        68.73437
490.67         68.3435
491.11        68.24275
491.55        68.43069
491.99        68.77606
492.43        68.88472
492.88         68.6842
493.32        68.46775
493.76        68.30708
494.20        68.22301
494.64        68.23537
495.08        68.29386
495.52        68.38239
495.96        68.48934
496.41        68.55199
496.85        68.63794
497.29        68.46241
497.73         68.1797
498.17        67.80773
498.61        67.44832
499.05        67.26087
499.49        67.46246
499.93        67.87309
500.37        68.09858
500.82        68.21123
501.26         67.6656
501.70        68.09063
502.14        68.52949
502.58         68.1097
503.02        67.98988
503.46        67.80259
503.90        67.52406
504.34        67.23824
504.78        67.16485
505.22        67.33365
505.66        67.68112
506.10        68.07546
506.54        68.23901
506.98         68.0468
507.42        67.91602
507.86        67.13924
508.30        66.84763
508.74        66.85815
509.18         67.0094
509.62        67.22251
510.06        67.43794
510.50        67.61317
510.94        67.75494
511.38        67.85277
511.82        67.89001
512.26         67.8718
512.70        67.76631
513.14        67.58543
513.58         67.4463
514.02        67.38676
514.46        67.05284
514.90        67.06757
515.34        66.93512
515.78        66.84396
516.22        66.78634
516.66        66.77177
517.10        66.79693
517.54        66.85072
517.98        66.93193
518.42        67.02296
518.86        67.09585
519.30        67.14227
519.74        67.17109
520.18        67.18632
520.62          67.189
521.06        67.18478
521.50        67.18562
521.93        67.19884
522.37         67.1904
522.81        67.15925
523.25        67.15623
523.69        67.15403
524.13        66.95979
524.57         66.8014
525.01        66.53053
525.45        66.29469
525.89        66.21461
526.32        66.31136
526.76        66.53493
527.20         66.7996
527.64        66.97412
528.08        67.01664
528.52         66.9706
528.96        66.86525
529.40        66.74854
529.83        66.63933
530.27        66.53955
530.71        66.47394
531.15        66.50014
531.59        66.62253
532.03        66.82172
532.46        67.03286
532.90        67.16852
533.34        67.20314
533.78        67.10938
534.22         66.9348
534.66        66.87246
535.09        66.88081
535.53        66.69946
535.97        66.37291
536.41        66.21078
536.85        66.23421
537.28        66.28656
537.72         66.3344
538.16        66.38184
538.60        66.40953
539.04        66.41138
539.47        66.39355
539.91        66.40491
540.35        66.43349
540.79        66.48958
541.22        66.54784
541.66        66.47718
542.10        66.43974
542.54          66.314
542.97        66.17686
543.41        66.10213
543.85        66.09299
544.29        66.13371
544.72        66.17955
545.16        66.19582
545.60        66.16301
546.04        66.09486
546.47        66.02341
546.91        66.03035
547.35         66.1366
547.79        66.23645
548.22        66.26532
548.66        66.40343
549.10        66.57174
549.53        66.16578
549.97        65.86796
550.41        65.68733
550.84        65.83817
551.28        66.09956
551.72         66.3619
552.15        66.46147
552.59        66.39534
553.03        66.30576
553.46        66.21211
553.90        66.19705
554.34        66.28113
554.77        66.26614
555.21        66.10949
555.65        66.59673
556.08        66.39053
556.52        66.27426
556.96        65.92747
557.39        65.67348
557.83        65.59798
558.27        65.61085
558.70        65.67269
559.14         65.9356
559.57         65.8053
560.01         65.9961
560.45        66.21575
560.88        66.17167
561.32        65.95351
561.75        65.57903
562.19        65.27583
562.63        65.61548
563.06        66.35257
563.50        66.31935
563.93        65.67267
564.37        65.12767
564.80        65.85882
565.24        65.98668
565.68        65.81419
566.11        65.74321
566.55        65.80502
566.98         65.7496
567.42        65.64788
567.85         65.7095
568.29         65.9294
568.72        66.05437
569.16        66.11605
569.60         66.1636
570.03        66.14183
570.47        66.14715
570.90        66.28198
571.34        65.86423
571.77        66.04942
572.21        66.15036
572.64        66.50587
573.08        66.07629
573.51        66.22678
573.95        66.65963
574.38        66.07928
574.82        66.52254
575.25        66.61658
575.69        66.97139
576.12        66.76351
576.56        66.18059
576.99        66.67876
577.42        66.76667
577.86        66.72347
578.29        66.77036
578.73         67.6197
579.16        66.56504
579.60        66.03791
580.03         65.7726
580.47        66.67114
580.90        65.87457
581.33        66.68525
581.77        67.12988
582.20        67.59249
582.64        67.45496
583.07        66.77201
583.51        66.17837
583.94        66.05564
584.37        66.25564
584.81        66.74902
585.24        66.91141
585.68        66.61127
586.11        66.89486
586.54        66.65338
586.98        65.83182
587.41        65.62813
587.85        66.47984
588.28        66.62224
588.71        65.46049
589.15        66.65805
589.58        65.66311
590.01        65.80061
590.45         65.7323
590.88        66.04456
591.31        66.11479
591.75        65.87482
592.18        65.58231
592.61        65.34444
593.05        65.77293
593.48        65.85864
593.91        66.40461
594.35        66.15763
594.78        65.84721
595.21         65.3327
595.65        66.01459
596.08        66.19579
596.51        65.54187
596.94        65.46624
597.38        65.23701
597.81        65.53391
598.24        65.08921
598.68        65.54209
599.11          65.383
599.54        66.30481
599.97        66.37177
600.41        65.49998
600.84        65.80923
601.27        65.74889
601.70         66.3049
602.14        66.44241
602.57         66.1805
603.00        65.54578
603.43        65.27263
603.87        65.82678
604.30        65.85424
604.73        65.54834
605.16        65.28804
605.60        65.20457
606.03        65.55605
606.46        66.07459
606.89        65.98397
607.32        65.39611
607.76        65.09574
608.19        65.14972
608.62        65.53185
609.05        65.38742
609.48        65.24384
609.92        65.03036
610.35        64.92186
610.78        65.87414
611.21        65.97647
611.64        65.52545
612.07        65.68095
612.50        66.33164
612.94        65.86745
613.37        65.41979
613.80        65.84406
614.23        65.15843
614.66        65.49088
615.09         65.1461
615.52        65.22266
615.96        65.32803
616.39        65.57185
616.82        65.61963
617.25        65.46852
617.68        65.33228
618.11          65.201
618.54        65.16229
618.97        65.01272
619.40        64.81812
619.84        64.75721
620.27        64.83827
620.70        65.19275
621.13        65.68735
621.56        65.44205
621.99          64.492
622.42        64.95193
622.85        64.99871
623.28        64.95078
623.71        64.79763
624.14        65.06535
624.57        65.13765
625.00        65.27731
625.43        65.27687
625.86        65.18999
626.29        65.02596
626.72        64.95972
627.15        64.83331
627.58        64.72449
628.01        64.60449
628.44        64.62742
628.87        64.75732
629.30        64.71989
629.73        64.63647
630.16         64.6619
630.59        64.68893
631.02        64.72209
631.45        64.71135
631.88        64.69629
632.31        64.67436
632.74        64.63727
633.17        64.59965
633.60        64.57726
634.03        64.57347
634.46        64.59978
634.89         64.6392
635.32        64.62743
635.75        64.57457
636.18        64.56553
636.61        64.59548
637.04        64.59943
637.47        64.58303
637.89        64.55645
638.32        64.50172
638.75        64.51721
639.18        64.59771
639.61        64.36951
640.04        64.34093
640.47         64.2495
640.90        64.25162
641.33        64.25836
641.76         64.2448
642.18        64.28646
642.61        64.37602
643.04         64.3556
643.47        64.16772
643.90        64.63003
644.33        64.34829
644.76        64.34877
645.18        64.26771
645.61        64.42675
646.04        64.72733
646.47        64.65379
646.90        64.28249
647.33        64.16936
647.75          64.336
648.18        64.44923
648.61        64.49484
649.04        64.51142
649.47        64.47471
649.89        64.62036
650.32        64.83128
650.75        64.42188
651.18        63.65001
651.61        63.71729
652.03        64.55677
652.46        64.94275
652.89          64.715
653.32         64.4985
653.74        64.56643
654.17        64.03657
654.60        64.45643
655.03        64.89541
655.46        64.19743
655.88        64.54119
656.31        72.63815
656.74        71.59526
657.16        65.16062
657.59        63.34871
658.02        64.01833
658.45        65.08737
658.87        64.50667
659.30        63.62848
659.73        64.16928
660.15        64.94598
660.58        63.89711
661.01         63.7011
661.44        63.66708
661.86        63.93103
662.29         64.3689
662.72        64.61009
663.14        64.65475
663.57        64.78806
664.00        64.99398
664.42        65.00413
664.85        64.82322
665.27        64.55609
665.70        64.29283
666.13        64.14825
666.55        64.16455
666.98        64.29347
667.41        64.48822
667.83         64.6706
668.26         64.7906
668.69        64.86987
669.11        64.90489
669.54         64.9165
669.96        64.90311
670.39        64.79304
670.82        64.64282
671.24        64.59174
671.67        64.65839
672.09        64.78001
672.52        64.90549
672.94        64.91846
673.37        64.80331
673.80        64.59808
674.22         64.3745
674.65        64.21828
675.07        64.17712
675.50        64.20848
675.92         64.2905
676.35         64.3783
676.77        64.45379
677.20         64.5231
677.62         64.5769
678.05        64.58482
678.47        64.54518
678.90        64.47245
679.32        64.38451
679.75        64.33566
680.17        64.33296
680.60        64.36427
681.02        64.42554
681.45        64.48899
681.87        64.55539
682.30        64.63442
682.72        64.71855
683.15        64.72852
683.57        64.68253
684.00        64.65949
684.42        64.67327
684.85        64.69386
685.27        64.70876
685.70        64.75615
686.12        64.79275
686.54        64.74142
686.97        64.60001
687.39        64.43157
687.82         64.2349
688.24        64.02272
688.66        63.93524
689.09        63.69851
689.51        64.39609
689.94        64.57745
690.36        64.54732
690.78        64.52371
691.21        64.58744
691.63        64.75356
692.06        65.01555
692.48        65.34821
692.90        65.65184
693.33        65.78436
693.75        65.71917
694.17        65.44576
694.60        65.08911
695.02        64.89898
695.44        64.86385
695.87        64.86396
696.29         64.7292
696.71         64.5697
697.14        64.44271
697.56        64.71381
697.98        65.27059
698.41        65.56542
698.83        65.54535
699.25        65.50011
699.68        65.46286
700.10        65.42881
700.52        65.41489
700.94        65.37685
701.37        65.32938
701.79         65.4192
702.21        65.57648
702.64        65.61852
703.06        65.54675
703.48        65.42406
703.90        65.24151
704.33        65.39128
704.75        65.07975
705.17        65.06067
705.59        65.09741
706.01        65.26044
706.44        65.38331
706.86        65.61723
707.28        65.87753
707.70        66.21553
708.12        66.52522
708.55        66.47363
708.97        66.11572
709.39        65.88327
709.81        65.82259
710.23        65.67948
710.66        65.47848
711.08        65.42982
711.50        65.50925
711.92        65.57976
712.34        65.62206
712.76        65.67709
713.19        65.72439
713.61        65.77386
714.03        65.80372
714.45        65.80178
714.87        65.79014
715.29        65.81133
715.71        65.87219
716.13        65.96533
716.56        66.03524
716.98        66.07239
717.40        66.03933
717.82        65.94848
718.24        65.85601
718.66        65.85123
719.08        65.94826
719.50        66.11769
719.92        66.28344
720.34        66.32281
720.76        66.20941
721.19        65.98485
721.61        65.73215
722.03        65.57407
722.45        65.55286
722.87        65.64501
723.29        65.79559
723.71        65.91117
724.13        65.95798
724.55        65.94904
724.97         65.9489
725.39        66.04275
725.81        66.26984
726.23        66.57298
726.65        66.82745
727.07        66.82362
727.49        66.53492
727.91        66.03977
728.33        65.53174
728.75        65.31699
729.17        65.46185
729.59         65.8675
730.01         66.3675
730.43        66.66985
730.85        66.68977
731.27        66.53706
731.69        66.29166
732.10        66.07632
732.52         65.9395
732.94        65.81886
733.36        65.77306
733.78        65.87556
734.20        66.09202
734.62        66.55584
735.04        67.08282
735.46        67.03543
735.88        66.53252
736.30        66.44221
736.72        66.74871
737.13        66.79148
737.55        66.52449
737.97        66.22775
738.39         66.0262
738.81        66.19731
739.23        66.66295
739.65        66.85021
740.06        66.70093
740.48        66.71974
740.90        66.87537
741.32        66.88636
741.74        66.74165
742.16        66.58179
742.57        66.42784
742.99        66.28469
743.41        66.20675
743.83        66.14304
744.25        66.15085
744.67        66.48712
745.08        67.01734
745.50        67.17824
745.92        66.91579
746.34        66.48337
746.75        66.01791
747.17        65.68927
747.59        65.54774
748.01        65.55447
748.42        65.67484
748.84        65.81387
749.26        65.94671
749.68        66.09704
750.09        66.24649
750.51        66.38379
750.93        66.49598
751.35        66.56659
751.76        66.61883
752.18        66.69347
752.60        66.80186
753.01        66.95305
753.43        67.08103
753.85        67.12032
754.27        67.06304
754.68        66.93374
755.10        66.81675
755.52        66.83715
755.93        67.00368
756.35        67.26689
756.77        67.53577
757.18        67.61334
757.60        67.47508
758.02        67.32401
758.43        67.17025
758.85        66.82219
759.26        66.42252
759.68        66.50335
760.10        67.03078
760.51        67.39055
760.93        67.42633
761.34        67.52104
761.76        67.62905
762.18        67.10667
762.59        66.26929
763.01        66.39874
763.42         67.4407
763.84        67.87315
764.26        67.59196
764.67        67.43298
765.09        67.47601
765.50         67.3679
765.92        67.17896
766.33        67.00422
766.75        66.77249
767.16         66.8587
767.58        66.84248
768.00        66.75457
768.41        66.66451
768.83         67.4585
769.24        68.81365
769.66        69.30383
770.07        68.88647
770.49        68.40926
770.90        68.09452
771.32        68.06525
771.73        68.26543
772.15        68.18753
772.56        67.83568
772.97        67.64382
773.39         67.6558
773.80        67.73521
774.22        67.84629
774.63        68.07912
775.05        68.33646
775.46        68.51495
775.88        68.55393
776.29        68.50095
776.70        68.39183
777.12         68.3189
777.53        68.32761
777.95        68.36854
778.36        68.43056
778.77        68.46061
779.19         68.4461
779.60        68.44482
780.02        68.44985
780.43        68.39209
780.84        68.34436
781.26        68.37357
781.67        68.44412
782.09        68.66212
782.50         68.9211
782.91        68.25942
783.33        67.77544
783.74        67.57996
784.15        68.02712
784.57        68.62739
784.98        69.25836
785.39        69.83611
785.81        70.25967
786.22        70.32995
786.63        70.47662
787.04        70.42062
787.46        70.34346
787.87        70.17995
788.28        70.01741
788.70        69.96608
789.11        70.01598
789.52        70.16688
789.93        70.33002
790.35        70.34331
790.76        70.20321
791.17        69.95256
791.58         69.6676
792.00        69.50565
792.41        69.52568
792.82        69.51833
793.23        69.48543
793.65        69.84333
794.06        70.39518
794.47        70.19283
794.88         69.4513
795.29        69.23677
795.71        69.53336
796.12         69.8662
796.53        70.09315
796.94        70.23364
797.35        70.22057
797.76        70.06921
798.18         69.8666
798.59        69.70959
799.00        69.64445
799.41        69.63614
799.82        69.69505
800.23        69.83688
800.64        70.04849
801.06        70.31174
801.47        70.57283
801.88        70.63594
802.29        70.46838
802.70        70.12076
803.11        69.74064
803.52        69.57095
803.93         69.6824
804.34        70.00788
804.75        70.43244
805.17        70.79161
805.58        71.05655
805.99        71.07314
806.40        70.91299
806.81        71.08923
807.22        71.45468
807.63        71.09428
808.04        70.15311
808.45        69.69508
808.86        69.81863
809.27        69.94332
809.68        70.02615
810.09        70.24342
810.50        70.55723
810.91         70.9286
811.32        71.21987
811.73        71.20444
812.14        70.85279
812.55        70.23156
812.96        69.59679
813.37        69.39399
813.78        69.73003
814.19         70.4631
814.60        71.32166
815.01        71.88741
815.42        72.04431
815.83        71.90205
816.24        71.58342
816.65        71.33192
817.05        71.25002
817.46        71.23006
817.87        71.24544
818.28        71.22056
818.69        71.13109
819.10        71.02445
819.51        70.92066
819.92        70.83766
820.33        70.78608
820.74        70.74744
821.14        70.71684
821.55        70.72085
821.96        70.74952
822.37        70.82013
822.78        70.90631
823.19        70.95498
823.60        70.96269
824.00         70.9606
824.41        70.98669
824.82        71.21469
825.23        71.65535
825.64        72.23171
826.04        72.81969
826.45        73.13567
826.86         73.1263
827.27         72.8693
827.68        72.42518
828.08        71.92249
828.49        71.40099
828.90        70.85611
829.31        70.39554
829.72        70.17448
830.12        70.25584
830.53         70.5954
830.94        71.03406
831.35        71.21789
831.75        71.07617
832.16        70.65173
832.57        70.24908
832.97         70.3353
833.38        70.97163
833.79        71.98678
834.20        73.04284
834.60        73.56935
835.01        73.38335
835.42         72.7035
835.82        71.78951
836.23        71.03632
836.64        70.58673
837.04        70.34151
837.45        70.26403
837.86        70.35282
838.26        70.58117
838.67        70.93546
839.08        71.30411
839.48        71.45762
839.89         71.3345
840.29         70.9898
840.70         70.5716
841.11        70.29335
841.51        70.23795
841.92        70.33084
842.33        70.54314
842.73        70.82839
843.14        71.10707
843.54        71.43975
843.95        71.76905
844.35        72.07327
844.76        72.29657
845.17        72.40966
845.57         72.4323
845.98        72.40012
846.38        72.34322
846.79         72.2546
847.19        72.09195
847.60        71.70384
848.00        71.13206
848.41        70.44238
848.81        69.85829
849.22         69.6878
849.62        70.00008
850.03        70.66651
850.43        71.49117
850.84        71.98087
851.24        72.05162
851.65        71.79839
852.05        71.41893
852.46        71.21678
852.86         71.2672
853.27        71.45374
853.67        71.70297
854.07        72.10292
854.48        72.57067
854.88        73.21481
855.29        73.68439
855.69        73.57757
856.10         72.7037
856.50         71.3067
856.90        69.86672
857.31        69.07705
857.71         69.0755
858.12        69.62909
858.52        70.48777
858.92        70.95673
859.33        70.78842
859.73        70.23618
860.13        69.47314
860.54         68.7957
860.94        68.32799
861.34        67.96851
861.75        67.75272
862.15        67.80898
862.55        68.11678
862.96        68.62627
863.36        69.22581
863.76        69.63118
864.17        69.75526
864.57        69.67319
864.97        69.43716
865.38        69.15976
865.78        68.92204
866.18        68.67383
866.58        68.45423
866.99        68.34199
867.39        68.38992
867.79        68.58324
868.19        68.82087
868.60        68.91412
869.00        68.81619
869.40        68.56492
869.80        68.30286
870.21        68.29195
870.61        68.63934
871.01        69.20155
871.41        69.72219
871.81        69.82349
872.22        69.43175
872.62        68.67661
873.02        67.82453
873.42        67.30862
873.82        67.26608
874.22        67.59622
874.63        68.09106
875.03        68.41086
875.43        68.46706
875.83        68.35331
876.23        68.26125
876.63        68.49404
877.03         69.0902
877.44        69.89147
877.84        70.66389
878.24        70.97952
878.64        70.73833
879.04        70.10749
879.44        69.30909
879.84        68.66975
880.24        68.29776
880.64        68.10791
881.04        68.07542
881.44         68.1491
881.84        68.29981
882.24        68.57077
882.65        68.86487
883.05         69.0939
883.45        69.18152
883.85        69.13253
884.25        69.06802
884.65        69.19385
885.05        69.54482
885.45        70.05629
885.85        70.57267
886.25        70.82847
886.65        70.74184
887.05        70.38369
887.45        69.91793
887.85        69.59496
888.25        69.49552
888.65        69.58105
889.04        69.70987
889.44        69.62915
889.84        69.30314
890.24        68.79469
890.64        68.34904
891.04        68.31047
891.44        68.73267
891.84        69.54307
892.24        70.36464
892.64        70.56064
893.04        70.00833
893.44        68.89665
893.83        67.79316
894.23         67.5746
894.63        68.37072
895.03        69.91581
895.43        71.57316
895.83        72.18291
896.23        71.46315
896.63        69.88159
897.02        68.05209
897.42         66.9285
897.82         66.6721
898.22        67.02837
898.62        67.76529
899.01        68.51903
899.41        69.06973
899.81        69.54778
900.21        70.00844
900.61        70.52374
901.00         71.0862
901.40        71.58152
901.80        71.88265
902.20        71.84324
902.59        71.46684
902.99        70.84131
903.39        70.15556
903.79        69.69807
904.18        69.54162
904.58         69.6301
904.98        69.85637
905.38        70.05607
905.77        70.16525
906.17        70.25229
906.57        70.27947
906.96        70.20137
907.36        70.00832
907.76        69.71194
908.15        69.44936
908.55        69.40681
908.95        69.63643
909.34        70.09444
909.74        70.58816
910.14        70.87334
910.53        70.86883
910.93         70.6457
911.33        70.32372
911.72        70.08986
912.12        70.02363
912.52        70.06681
912.91        70.12817
913.31        70.05841
913.70        69.83494
914.10        69.51643
914.49        69.24075
914.89        69.19131
915.29        69.40912
915.68        69.83497
916.08        70.31436
916.47        70.60886
916.87        70.64802
917.26        70.49981
917.66        70.30778
918.05        70.28996
918.45        70.49252
918.84        70.89125
919.24        71.33672
919.64         71.6432
920.03        71.76245
920.42         71.7208
920.82        71.65557
921.21        71.80167
921.61        72.15819
922.00        72.64634
922.40        73.04762
922.79        73.05584
923.19        72.59376
923.58         71.8269
923.98        70.93396
924.37        70.08082
924.77        69.37698
925.16        68.77927
925.55        68.40772
925.95        68.42632
926.34        68.86943
926.74        69.64158
927.13        70.62286
927.52        71.51622
927.92         72.1899
928.31        72.67891
928.70        72.95747
929.10        73.04667
929.49        72.98684
929.89        72.75954
930.28        72.41722
930.67        72.01136
931.07        71.57658
931.46         71.1339
931.85        70.77324
932.24        70.62065
932.64        70.68855
933.03        70.97921
933.42        71.28533
933.82         71.2979
934.21         70.9595
934.60        70.33733
934.99        69.73286
935.39        69.57951
935.78        69.99369
936.17        70.87918
936.56        71.83643
936.96        72.14587
937.35        71.66448
937.74        70.57033
938.13        69.40511
938.53        68.88628
938.92        69.10085
939.31        69.88254
939.70         70.7847
940.09        70.99746
940.49        70.33496
940.88        69.12063
941.27        67.86541
941.66        67.32082
942.05        67.66318
942.44        68.65223
942.84        69.95367
943.23        71.01856
943.62        71.55349
944.01        71.73277
944.40        71.64765
944.79         71.4576
945.18        71.25172
945.57        70.94068
945.97        70.63259
946.36        70.62307
946.75        70.91747
947.14        71.47675
947.53        72.05917
947.92        72.20395
948.31        71.80006
948.70         71.0066
949.09        70.11476
949.48        69.55286
949.87        69.45887
950.26        69.75719
950.65        70.29614
951.04        70.80543
951.43         71.1647
951.82        71.37556
952.21        71.60742
952.60        72.14468
952.99        72.98377
953.38        73.99373
953.77        74.73729
954.16        74.47202
954.55        73.11646
954.94        71.05757
955.33        68.88995
955.72        67.50651
956.11        67.13513
956.50        67.44535
956.89         68.2886
957.28        69.40861
957.66        70.65572
958.05        72.02039
958.44        72.99633
958.83        72.63093
959.22        70.84058
959.61        68.01065
960.00        65.14431
960.39        63.67636
960.78         63.8833
961.16        65.40404
961.55        67.53503
961.94        69.15093
962.33        69.82998
962.72         69.8561
963.11        69.46617
963.49        69.13805
963.88        69.01806
964.27        68.93651
964.66        68.80909
965.04        68.57172
965.43        68.19865
965.82        67.74597
966.21        67.32893
966.60        67.10442
966.98         67.1385
967.37        67.39653
967.76        67.67221
968.15        67.60538
968.53        67.14005
968.92         66.3655
969.31        65.64082
969.69        65.53822
970.08        66.12949
970.47        67.24879
970.86        68.46297
971.24        68.99092
971.63        68.54929
972.02        67.43843
972.40        66.06516
972.79        65.07989
973.17        64.69541
973.56        64.71726
973.95        65.00203
974.33        65.34643
974.72        65.60395
975.11        65.79932
975.49         66.0387
975.88        66.45216
976.26        67.10204
976.65        67.87707
977.04        68.37077
977.42        67.93638
977.81        66.51926
978.19        64.33358
978.58        62.44532
978.96        62.21172
979.35        63.86475
979.74        67.12749
980.12        71.05059
980.51        73.10525
980.89        72.65029
981.28         70.2245
981.66        67.16082
982.05        65.74221
982.43        66.52911
982.82        68.79632
983.20        71.80684
983.59        74.11298
983.97        75.26569
984.35        75.66467
984.74        75.31425
985.12        74.33401
985.51        72.88335
985.89        70.90707
986.28        68.99548
986.66        67.96737
987.04        68.13332
987.43        69.31685
987.81        71.03381
988.20        72.18885
988.58        72.47092
988.96        71.97011
989.35        71.21689
989.73         71.0816
990.12        71.69497
990.50        72.83331
990.88        73.68617
991.27        72.98685
991.65        70.66415
992.03        67.29509
992.42        64.03111
992.80        62.34368
993.18        62.69816
993.56        64.58282
993.95        67.26429
994.33        69.72894
994.71        71.28252
995.10        72.17058
995.48        72.30486
995.86         71.5796
996.24        70.17017
996.63        68.16694
997.01        66.04235
997.39        64.50501
997.77         63.7332
998.15         63.6083
998.54        64.05347
998.92         64.8417
999.30        65.81407
999.68        67.01215
1000.06        68.14297
1000.45        68.67001
1000.83        68.57852
1001.21        67.85918
1001.59        66.83853
1001.97          66.187
1002.35        66.11002
1002.73        66.41284
1003.12        66.93503
1003.50        67.31529
1003.88        67.45766
1004.26        67.54704
1004.64        67.46632
1005.02        67.00051
1005.40        66.17268
1005.78        65.00288
1006.16        63.94468
1006.54        63.82427
1006.92        64.80739
1007.30        66.63559
1007.69        68.55993
1008.07        69.57692
1008.45        69.31382
1008.83        68.08509
1009.21        66.44569
1009.59        65.33811
1009.97          65.102
1010.35         65.5211
1010.73        66.34991
1011.11        67.14656
1011.49        67.77177
1011.86        68.52763
1012.24        69.37756
1012.62         70.6748
1013.00        72.47803
1013.38        74.57156
1013.76        76.66866
1014.14        78.37919
1014.52        79.49516
1014.90        80.05302
1015.28        79.93777
1015.66        79.07845
1016.04        77.68954
1016.41        75.97565
1016.79        74.37017
1017.17        73.06192
1017.55        71.89742
1017.93        70.67458
1018.31        69.19875
1018.69        67.47892
1019.06        65.99073
1019.44        65.10883
1019.82        64.58486
1020.20        63.94355
1020.58         63.0379
1020.95        61.74026
1021.33        60.56617
1021.71        60.58685
1022.09        62.27972
1022.46        65.27268
1022.84           68.33
1023.22        70.00231
1023.60        69.97186
1023.97        68.63235
1024.35        66.62325
1024.73        65.16637
