SpectraSmart Spectrum 2.9.0.0
--------- Device Information -----------
Spectrum Name :  反射率_0
Saving Time :  2024/05/01 15:54:50
Spectro-Module Model Name : SE2030-DUVN
Spectro-Module Serial Number : OS361AC55029948
Wavelength Start : 200
Wavelength End : 1025
Wavelength Unit : Wavelength(nm)
Spectrum Unit : Reflectance(%)
-----------Spectrum Setting ------------
Integration Time : 20ms
Average : 10
Boxcar : 0
Background removal :  enabled
linearity correction :  enabled
SC :  disabled
Intensity correction :  disabled
DWT denoise :  enabled
savitzky-golay :  disabled
FFT :  disabled
Running average :  disabled
Kalman :  disabled
High pass :  disabled
---------------BEGIN--------------------
Wavelength(nm)             Reflectance(%)
200.29               0
200.75        41.14129
201.21         288.366
201.67       -140.0214
202.13        -43.8382
202.58       -4.848307
203.04        21.17015
203.50         38.3556
203.96        46.79719
204.42        48.75485
204.88        43.11562
205.34       -142.3668
205.80        75.47809
206.26           53.91
206.72        26.02856
207.18       -101.2208
207.64        260.2955
208.10        132.9235
208.55        101.8065
209.01        86.74942
209.47        80.23176
209.93        78.29697
210.39        77.25677
210.85        77.59752
211.31        81.19855
211.77        96.68858
212.23       -46.85735
212.69        46.19887
213.14        73.00576
213.60        148.2223
214.06       -647.7189
214.52       -92.94802
214.98       -52.43493
215.44        -35.9144
215.90       -14.79769
216.36        221.2679
216.81       -131.9273
217.27       -138.9572
217.73        98.16219
218.19       -32.05952
218.65       -53.17788
219.11       -77.53926
219.57        -140.445
220.02       -359.6682
220.48       -157.4201
220.94       -42.56422
221.40       -15.15281
221.86       -4.891687
222.32        1.488114
222.77         8.04155
223.23        16.31335
223.69        26.33064
224.15        31.64949
224.61        29.22909
225.06        23.88055
225.52        19.71377
225.98        18.06997
226.44        18.53981
226.90        20.49326
227.36        23.92597
227.81        27.31778
228.27        28.87983
228.73        29.09954
229.19        28.65936
229.65        27.97111
230.10        27.05781
230.56        25.90903
231.02        24.34398
231.48        22.64684
231.93        21.39627
232.39        20.73572
232.85        21.05523
233.31        22.72181
233.77        25.34225
234.22        28.54084
234.68        31.46235
235.14        33.32265
235.60        34.06823
236.05        33.82277
236.51        32.85954
236.97        32.40338
237.43        33.30723
237.88        35.35008
238.34         37.1339
238.80         37.1417
239.26         34.7689
239.71        29.59611
240.17        21.39487
240.63        14.16895
241.08        13.79033
241.54        20.30869
242.00        29.33113
242.46        37.94313
242.91        47.80445
243.37        61.43453
243.83        83.12601
244.28        105.5893
244.74        110.6244
245.20        104.1414
245.66        95.66808
246.11        88.41473
246.57         81.1329
247.03        70.37641
247.48        52.85408
247.94        30.58628
248.40        13.21465
248.85        5.189324
249.31        8.885223
249.77         19.3543
250.22        30.84616
250.68        41.26849
251.14        49.09825
251.59        54.29199
252.05        58.19645
252.51         61.9255
252.96        67.24582
253.42        77.63857
253.88        82.55557
254.33        76.28335
254.79        69.22182
255.25        62.58546
255.70        56.50323
256.16        51.96085
256.62        49.31077
257.07         48.9982
257.53        50.38381
257.99        52.10307
258.44        53.35982
258.90         53.9302
259.35        53.59606
259.81        52.92068
260.27        51.87259
260.72        50.50616
261.18        49.22085
261.63        47.82477
262.09        46.65245
262.55        45.73721
263.00        44.94935
263.46         44.3194
263.91         43.6176
264.37        42.80346
264.83        41.82925
265.28        40.76986
265.74        39.70644
266.19        38.52481
266.65         37.3456
267.11        36.14091
267.56        35.10538
268.02        34.63292
268.47        34.71694
268.93        35.17591
269.38        35.69299
269.84        35.69452
270.30        35.05546
270.75        33.94038
271.21        32.58217
271.66        31.22934
272.12        30.05458
272.57        28.95479
273.03        28.02932
273.48        27.38318
273.94        27.02658
274.39        26.90405
274.85        26.87556
275.31        26.68093
275.76        26.25797
276.22        25.70957
276.67        25.08867
277.13        24.55986
277.58        24.10873
278.04        23.71346
278.49        23.31879
278.95         22.9496
279.40         22.5612
279.86        22.19221
280.31        21.79749
280.77         21.3745
281.22        20.89826
281.68        20.43399
282.13        19.95997
282.59        19.50679
283.04        19.07229
283.50        18.68944
283.95        18.40843
284.41        18.34458
284.86        18.48732
285.32        18.78539
285.77        19.14081
286.22        19.44171
286.68        19.66213
287.13        19.81596
287.59        19.91453
288.04        19.93943
288.50        19.92544
288.95         19.8448
289.41        19.78761
289.86        19.82605
290.32        19.99265
290.77        20.26866
291.22        20.58538
291.68        20.82341
292.13        20.97174
292.59        21.10961
293.04        21.31934
293.50        21.77365
293.95        22.49198
294.40        23.42193
294.86        24.49366
295.31        25.60697
295.77        26.70705
296.22        27.80662
296.68        28.88856
297.13        29.91968
297.58        30.92855
298.04        31.95583
298.49        33.03927
298.95        34.27286
299.40         35.6472
299.85        37.11594
300.31        38.69123
300.76        40.39151
301.21        42.20961
301.67        44.14494
302.12        46.02259
302.58        47.58727
303.03        48.76088
303.48        49.64749
303.94        50.51595
304.39        51.68797
304.84         53.2771
305.30        55.16871
305.75         57.1619
306.20         58.9591
306.66        60.46844
307.11        61.73705
307.57        62.86715
308.02        63.92373
308.47        64.97247
308.93         65.9849
309.38        66.93093
309.83        67.84997
310.29        68.75967
310.74        69.66017
311.19        70.53687
311.65        71.33648
312.10         72.0369
312.55        72.65107
313.00        73.26154
313.46        74.00245
313.91         74.8779
314.36        75.83857
314.82        76.72103
315.27        77.27632
315.72        77.44098
316.18        77.32271
316.63        77.07066
317.08        76.96336
317.53        77.08003
317.99        77.35136
318.44        77.69442
318.89        77.95489
319.35        78.08789
319.80        78.16327
320.25         78.2291
320.70        78.35626
321.16        78.55585
321.61        78.80347
322.06        79.08555
322.51        79.40321
322.97        79.72218
323.42        80.06593
323.87        80.36579
324.32        80.52916
324.78        80.53274
325.23        80.43462
325.68        80.29063
326.13         80.2131
326.59        80.22667
327.04        80.34502
327.49        80.54604
327.94        80.80721
328.39        81.10704
328.85        81.41669
329.30        81.76441
329.75        82.07453
330.20        82.32932
330.66        82.51723
331.11        82.67937
331.56        82.79276
332.01        82.87727
332.46        82.94219
332.92        83.04151
333.37        83.35156
333.82        83.87915
334.27         84.5993
334.72          85.399
335.17         86.0698
335.63        86.51464
336.08        86.80841
336.53        87.02322
336.98          87.338
337.43        87.80845
337.88        88.39381
338.34        88.96773
338.79         89.3908
339.24        89.59458
339.69        89.62533
340.14        89.65378
340.59        89.93997
341.05        90.53091
341.50         91.3779
341.95        92.24063
342.40        92.73202
342.85        92.78258
343.30        92.52151
343.75        92.27225
344.20        92.53831
344.66        93.41389
345.11        94.72069
345.56        96.13127
346.01        97.09389
346.46        97.45443
346.91        97.40059
347.36        97.16698
347.81        97.11256
348.26        97.35357
348.72        97.78186
349.17        98.30422
349.62        98.84289
350.07        99.32788
350.52        99.75916
350.97        100.1008
351.42        100.2745
351.87         100.273
352.32        100.1544
352.77        99.86954
353.22        99.35923
353.67        98.66708
354.13        97.84898
354.58        97.15157
355.03        97.04243
355.48        97.57588
355.93        98.63238
356.38        99.74302
356.83          100.11
357.28        99.56136
357.73        98.35142
358.18        97.02284
358.63        96.39268
359.08        96.61969
359.53        97.42279
359.98        98.37031
360.43        98.74401
360.88        98.33141
361.33        97.38655
361.78        96.20325
362.23        95.18681
362.68        94.46465
363.13        93.91718
363.58        93.44307
364.03        92.90823
364.48        92.27163
364.93         91.5819
365.38         90.9426
365.83        90.48011
366.28        90.19978
366.73        90.05775
367.18        89.84308
367.63         89.2361
368.08        88.20782
368.53        86.88364
368.98        85.58787
369.43        84.79084
369.88        84.57166
370.33        84.78533
370.78        85.12889
371.23        85.06805
371.68        84.45704
372.13        83.48317
372.58        82.40407
373.03        81.60018
373.48        81.16221
373.93         80.9402
374.38        80.82541
374.83        80.65531
375.28        80.36157
375.72        80.00287
376.17        79.57198
376.62        78.99508
377.07        78.28677
377.52        77.46358
377.97        76.65897
378.42        76.09365
378.87        75.80735
379.32         75.7361
379.77        75.73322
380.22        75.56177
380.67        75.16738
381.11        74.63041
381.56        74.04906
382.01        73.60842
382.46        73.36111
382.91        73.23232
383.36        73.16174
383.81        73.06157
384.26        72.89263
384.71        72.68664
385.15        72.41203
385.60        72.05985
386.05        71.63049
386.50        71.13841
386.95        70.65154
387.40        70.28265
387.85        70.05264
388.29         69.8832
388.74        69.79453
389.19        69.64483
389.64        69.40375
390.09        69.09495
390.54        68.74868
390.98        68.40268
391.43        68.12316
391.88        67.88287
392.33        67.66618
392.78        67.47899
393.23        67.32058
393.67        67.08855
394.12        66.85863
394.57         66.8129
395.02        66.85135
395.47        66.50522
395.91        65.89938
396.36        65.62908
396.81        65.74562
397.26          65.965
397.71         66.1158
398.15        66.05713
398.60        65.82657
399.05        65.32534
399.50         64.7837
399.95        64.75279
400.39        65.18209
400.84        65.39919
401.29        65.26698
401.74        65.06507
402.18        64.77261
402.63        64.14632
403.08        63.40284
403.53        62.99474
403.97        62.97662
404.42        63.21122
404.87        63.54005
405.32        63.68999
405.76        63.57874
406.21        63.41526
406.66        63.23031
407.11        62.87292
407.55        62.51247
408.00        62.52234
408.45        62.85181
408.90        63.15557
409.34        63.23636
409.79        62.86278
410.24        62.20909
410.68        61.88985
411.13        61.97239
411.58        62.08883
412.03        62.17397
412.47        62.29763
412.92        62.40302
413.37        62.48053
413.81        62.51913
414.26        62.55599
414.71        62.58223
415.15        62.60522
415.60        62.60714
416.05        62.61356
416.49        62.63152
416.94        62.64879
417.39        62.67477
417.83        62.70907
418.28        62.75521
418.73        62.82416
419.17        62.88593
419.62        62.89421
420.07        62.84236
420.51        62.73252
420.96        62.67352
421.41        62.72588
421.85        62.87842
422.30        63.25032
422.74          63.694
423.19        63.82209
423.64        63.69546
424.08        63.90905
424.53        64.41837
424.98        64.67707
425.42        64.62962
425.87        64.72277
426.31        64.93296
426.76         64.6386
427.21        64.08105
427.65        64.37077
428.10        65.27255
428.54        65.63875
428.99        65.45882
429.44        64.91641
429.88        64.34735
430.33        65.08402
430.77        66.60195
431.22        66.67677
431.66        65.49091
432.11        65.08217
432.56        65.56416
433.00        66.14964
433.45        66.66394
433.89         66.3702
434.34        65.77294
434.78        67.07444
435.23         67.0976
435.67        67.39019
436.12        67.10345
436.57        67.40721
437.01        68.19109
437.46        68.88531
437.90        68.59473
438.35        68.64626
438.79        68.79652
439.24         68.6213
439.68        68.22723
440.13        68.22517
440.57        68.68167
441.02        69.00085
441.46         69.0801
441.91         69.7478
442.35        70.54842
442.80        70.05076
443.24        70.14125
443.69        70.02007
444.13         70.2515
444.58        70.32665
445.02        70.23006
445.47        70.33867
445.91        70.66856
446.36        70.88016
446.80        70.89159
447.24        71.85315
447.69        71.79556
448.13        72.16108
448.58        72.37175
449.02        72.45853
449.47        72.47955
449.91        72.52712
450.36        72.65813
450.80         72.8115
451.25        72.93667
451.69        72.90963
452.13        72.72012
452.58        72.41246
453.02        72.08428
453.47        71.92052
453.91        71.94661
454.36        72.14791
454.80        72.38576
455.24        72.38204
455.69        72.09301
456.13        71.70369
456.58        71.48801
457.02         71.0705
457.46        71.48943
457.91        72.17014
458.35        72.61414
458.79         72.6963
459.24        72.22267
459.68        71.49717
460.13        70.90257
460.57         69.7995
461.01        70.31531
461.46        70.11932
461.90        71.08756
462.34        70.73055
462.79        70.07088
463.23        70.19151
463.68         71.0534
464.12        71.27423
464.56        70.80404
465.01        70.38347
465.45        70.09177
465.89        70.18584
466.34        70.53143
466.78        70.42992
467.22        69.92335
467.67        69.69619
468.11        69.71922
468.55        69.85117
468.99        69.98045
469.44        70.02163
469.88        69.96082
470.32        69.87572
470.77        69.81348
471.21        69.81096
471.65        69.85493
472.10        69.97879
472.54         70.1256
472.98        70.10413
473.42        69.87175
473.87        69.99479
474.31        69.66218
474.75        69.44413
475.20        69.19733
475.64        69.18279
476.08        69.33895
476.52        69.37015
476.97        69.25795
477.41        69.16125
477.85        68.83778
478.29        69.12642
478.74        69.14549
479.18        69.09347
479.62        68.63706
480.06        68.59688
480.50        68.97517
480.95         68.3018
481.39        68.89262
481.83        68.65791
482.27        68.40574
482.72        68.83926
483.16        68.53366
483.60        68.75055
484.04        68.97768
484.48        69.04261
484.93        69.19128
485.37        69.59686
485.81        69.46046
486.25        70.15737
486.69        69.70431
487.14        67.50269
487.58        66.78261
488.02        68.89999
488.46          67.891
488.90        68.18185
489.34        68.92979
489.79        68.93014
490.23        68.64321
490.67        68.39574
491.11        68.39507
491.55        68.60371
491.99        68.91124
492.43         68.9889
492.88        68.79814
493.32        68.58759
493.76        68.43755
494.20        68.38264
494.64        68.43526
495.08        68.55259
495.52        68.73446
495.96        68.84149
496.41        68.79727
496.85        68.94784
497.29        69.24844
497.73        68.26357
498.17        68.03371
498.61        67.70941
499.05        67.91466
499.49        68.23701
499.93        68.51653
500.37        68.63863
500.82        68.64301
501.26         68.5099
501.70        68.56056
502.14         69.1132
502.58        68.68349
503.02        68.61795
503.46        68.46997
503.90        68.24133
504.34        68.00268
504.78        67.92521
505.22        68.04324
505.66        68.28882
506.10        68.56819
506.54        68.71746
506.98        68.63017
507.42        68.52557
507.86        67.92236
508.30        67.72333
508.74        67.80338
509.18        67.99017
509.62        68.20993
510.06        68.41288
510.50        68.56169
510.94        68.66915
511.38        68.72679
511.82        68.71873
512.26        68.64739
512.70         68.5067
513.14        68.34396
513.58        68.24042
514.02        68.21498
514.46        68.25751
514.90         68.3091
515.34        68.26673
515.78        68.11577
516.22        67.89703
516.66        67.69198
517.10        67.62454
517.54        67.71952
517.98        67.93133
518.42        68.18703
518.86        68.36727
519.30        68.43378
519.74        68.41982
520.18        68.35973
520.62        68.31158
521.06        68.29202
521.50        68.27267
521.93        68.25213
522.37        68.22166
522.81        68.18359
523.25        68.15543
523.69        68.11293
524.13        68.01037
524.57        67.85234
525.01         67.6585
525.45        67.49758
525.89         67.4775
526.32        67.61207
526.76         67.8589
527.20        68.13549
527.64        68.31127
528.08        68.34785
528.52        68.28716
528.96        68.16926
529.40        68.05883
529.83        67.97707
530.27         67.9236
530.71        67.90417
531.15        67.94604
531.59         68.0471
532.03        68.19395
532.46        68.34585
532.90        68.45631
533.34        68.50618
533.78        68.45296
534.22        68.31344
534.66        68.23507
535.09        68.17009
535.53        67.87804
535.97        67.43505
536.41        67.20316
536.85        67.21604
537.28         67.2925
537.72        67.39546
538.16        67.52444
538.60        67.64668
539.04        67.75561
539.47        67.81709
539.91        67.81811
540.35        67.74429
540.79        67.63241
541.22        67.51995
541.66        67.37642
542.10        67.39135
542.54         67.4088
542.97        67.46236
543.41        67.55458
543.85        67.66153
544.29        67.78408
544.72        67.87912
545.16        67.91667
545.60        67.87793
546.04        67.76969
546.47        67.63613
546.91        67.56458
547.35        67.58237
547.79        67.64868
548.22        67.68367
548.66        67.70727
549.10          67.706
549.53        67.38137
549.97        67.37393
550.41        67.33636
550.84        67.45853
551.28        67.68961
551.72        67.95731
552.15        68.10808
552.59        68.12894
553.03        68.09219
553.46        67.99978
553.90        67.95746
554.34        67.98485
554.77        67.89737
555.21        67.66197
555.65        68.04615
556.08        67.73951
556.52        67.67428
556.96        67.49582
557.39        67.42911
557.83        67.50309
558.27        67.52589
558.70        67.49126
559.14        67.75872
559.57        67.70989
560.01        67.91161
560.45        68.07082
560.88        67.94955
561.32        67.66678
561.75        67.34383
562.19        67.14317
562.63        67.42017
563.06        67.97603
563.50        67.84436
563.93        67.14142
564.37        66.94124
564.80        67.24891
565.24        67.51047
565.68        67.60472
566.11        67.60713
566.55        67.54313
566.98        67.34953
567.42         67.1731
567.85        67.30537
568.29        67.69781
568.72        67.86872
569.16        67.87412
569.60        67.88842
570.03        67.84095
570.47        67.86952
570.90        68.20791
571.34        67.19292
571.77        67.76488
572.21        67.65427
572.64        67.71233
573.08        67.62175
573.51        67.76815
573.95        68.01536
574.38        67.88408
574.82        68.03045
575.25        68.25756
575.69        68.43397
576.12        68.15442
576.56        67.87529
576.99         68.2241
577.42        68.11674
577.86        67.92892
578.29        68.03444
578.73        69.03003
579.16        67.82081
579.60        67.13196
580.03        67.21583
580.47        68.00596
580.90        67.10462
581.33        67.98212
581.77        68.47865
582.20        68.39304
582.64        68.46844
583.07        68.23575
583.51         67.8616
583.94        67.57677
584.37        67.72604
584.81        68.29646
585.24        68.41633
585.68        68.03387
586.11         68.0547
586.54        67.91969
586.98        67.32375
587.41        66.86722
587.85        68.00462
588.28        68.17542
588.71        66.86507
589.15        68.32578
589.58        67.30162
590.01         67.4895
590.45        67.38795
590.88        67.66643
591.31        67.71423
591.75        67.43232
592.18        67.41969
592.61        66.80108
593.05          67.619
593.48        67.07702
593.91        67.86864
594.35        67.38249
594.78        67.30287
595.21         66.9787
595.65        67.50703
596.08        67.46159
596.51        66.98919
596.94        66.81986
597.38        66.84309
597.81        67.49605
598.24        66.74632
598.68        67.71464
599.11        67.00777
599.54        68.25072
599.97        67.56917
600.41        67.38419
600.84        67.52137
601.27        67.42268
601.70        67.94975
602.14        68.15923
602.57         67.9612
603.00        67.36085
603.43        67.06052
603.87        67.54144
604.30        67.73795
604.73        67.55066
605.16        67.18509
605.60        67.32362
606.03        67.51922
606.46        67.78159
606.89        67.54918
607.32        67.06451
607.76         66.8348
608.19        66.95568
608.62        67.52912
609.05        67.59493
609.48        67.72057
609.92        67.41326
610.35        67.21728
610.78        68.05183
611.21        68.32446
611.64        67.79897
612.07        68.12246
612.50        68.30454
612.94        68.28703
613.37        67.94128
613.80        67.88876
614.23         67.6129
614.66        67.93365
615.09        67.62909
615.52        67.48807
615.96        67.52716
616.39        67.64154
616.82         67.8625
617.25        67.91656
617.68        67.78909
618.11        67.66113
618.54        67.55407
618.97        67.37166
619.40        67.19019
619.84        67.07511
620.27        67.03912
620.70         67.3548
621.13        67.98181
621.56        67.47803
621.99        67.08616
622.42        67.46193
622.85        67.60452
623.28        67.15768
623.71         67.1591
624.14        67.93314
624.57         67.5491
625.00        67.73055
625.43        67.79639
625.86        67.60595
626.29        67.69546
626.72        67.26608
627.15        67.30463
627.58        66.99732
628.01        66.67364
628.44        66.88219
628.87         67.2857
629.30        67.32167
629.73        66.97311
630.16        66.93423
630.59        67.19606
631.02        67.41692
631.45        67.54596
631.88        67.47403
632.31        67.14227
632.74        67.42137
633.17        66.85369
633.60        66.77747
634.03        66.76989
634.46        66.84699
634.89        66.95762
635.32        67.03975
635.75        67.08029
636.18        67.08031
636.61        67.05378
637.04         67.0205
637.47         66.9871
637.89        66.94965
638.32        66.87902
638.75         66.7803
639.18        66.66045
639.61        66.48714
640.04        66.37733
640.47        66.30618
640.90        66.31023
641.33         66.3624
641.76        66.42474
642.18        66.53314
642.61        66.67457
643.04        66.68958
643.47        66.51778
643.90        67.00839
644.33        66.71727
644.76        66.70434
645.18        66.60027
645.61        66.75387
646.04        67.06812
646.47        67.00661
646.90        66.63747
647.33        66.52967
647.75        66.70618
648.18        66.78932
648.61        66.77964
649.04        66.83643
649.47        66.89365
649.89        66.96776
650.32        66.98174
650.75        66.50004
651.18        65.78709
651.61        65.93912
652.03        66.85529
652.46         67.1864
652.89        66.82411
653.32        66.71867
653.74        67.05815
654.17        66.62964
654.60        67.01903
655.03        67.43356
655.46        66.14001
655.88        66.67648
656.31         72.1708
656.74        71.17958
657.16        66.58547
657.59        65.33504
658.02        66.32781
658.45        66.54528
658.87         66.7381
659.30        65.95699
659.73        66.41816
660.15        66.87337
660.58        66.36925
661.01        66.19932
661.44        66.02156
661.86        66.17332
662.29         66.5608
662.72        66.74285
663.14        66.71323
663.57        66.76168
664.00        66.89748
664.42        66.91743
664.85        66.82835
665.27        66.69765
665.70        66.57558
666.13        66.52014
666.55        66.55833
666.98        66.66528
667.41        66.80355
667.83         66.9131
668.26        66.95403
668.69        66.93737
669.11        66.90558
669.54           66.93
669.96        67.00786
670.39        67.12091
670.82        67.22599
671.24        67.12928
671.67        66.90774
672.09        66.93352
672.52        67.16801
672.94        67.19263
673.37        66.99946
673.80         66.7969
674.22        66.66221
674.65         66.6377
675.07        66.73307
675.50        66.81079
675.92        66.85054
676.35        66.91696
676.77        66.99927
677.20        67.03008
677.62        67.01688
678.05        66.99622
678.47        66.97409
678.90         66.9465
679.32        66.91119
679.75        66.88981
680.17         66.8811
680.60        66.88603
681.02        66.91203
681.45        66.95151
681.87        67.01476
682.30         67.0937
682.72        67.17995
683.15        67.22544
683.57        67.22514
684.00        67.17876
684.42        67.12322
684.85        67.10722
685.27        67.11782
685.70        67.22227
686.12        67.33751
686.54        67.15585
686.97        66.74048
687.39        66.62717
687.82         66.7828
688.24        66.63516
688.66        66.26195
689.09        66.31068
689.51        66.76418
689.94        67.03854
690.36        67.09617
690.78        67.25718
691.21        67.51764
691.63        67.62933
692.06        67.64847
692.48        67.90663
692.90        68.31065
693.33        68.43848
693.75        68.26396
694.17        67.93957
694.60         67.6128
695.02        67.48936
695.44         67.5514
695.87        67.64463
696.29        67.69664
696.71        67.46258
697.14        67.09509
697.56        67.26875
697.98        67.88178
698.41        68.15054
698.83        68.02402
699.25        67.95087
699.68        67.95104
700.10        67.91756
700.52        67.85857
700.94        67.75867
701.37        67.65926
701.79        67.75307
702.21        67.97311
702.64        68.10506
703.06        68.11636
703.48         68.0253
703.90        67.81134
704.33        67.89091
704.75        67.45393
705.17        67.33166
705.59        67.29939
706.01        67.32511
706.44        67.42251
706.86        67.63694
707.28        67.93707
707.70        68.34363
708.12        68.72715
708.55        68.76452
708.97        68.47407
709.39         68.1793
709.81        67.97536
710.23        67.80235
710.66        67.70849
711.08        67.80829
711.50        68.02112
711.92        68.15672
712.34        68.17579
712.76        68.13629
713.19        68.06171
713.61        68.03735
714.03        68.06352
714.45        68.10833
714.87        68.15874
715.29        68.20252
715.71        68.23406
716.13        68.26512
716.56        68.27077
716.98        68.29445
717.40        68.31036
717.82         68.3098
718.24        68.31596
718.66         68.3693
719.08        68.47031
719.50        68.60529
719.92        68.71873
720.34        68.72018
720.76         68.5956
721.19         68.3828
721.61        68.16448
722.03        68.02667
722.45        67.99979
722.87        68.13297
723.29        68.40029
723.71        68.38328
724.13        68.63522
724.55        68.68655
724.97        68.74573
725.39        68.84757
725.81        68.99783
726.23        69.19383
726.65        69.30236
727.07        69.22522
727.49        68.94106
727.91        68.50917
728.33        68.08115
728.75        67.89429
729.17        67.99812
729.59        68.31407
730.01        68.70921
730.43        68.95059
730.85        68.96632
731.27        68.83896
731.69        68.62658
732.10        68.41902
732.52        68.26311
732.94        68.12167
733.36        68.04585
733.78        68.12051
734.20        68.34164
734.62        68.70879
735.04        69.11298
735.46        69.28524
735.88        69.23159
736.30        69.21475
736.72        69.23167
737.13        69.15593
737.55        68.99026
737.97         68.7235
738.39        68.47192
738.81        68.68671
739.23        69.24468
739.65        69.34319
740.06        68.97754
740.48        68.91693
740.90        69.14158
741.32        69.23256
741.74        69.15511
742.16        69.05918
742.57        68.94813
742.99         68.8612
743.41        68.83924
743.83        68.72027
744.25        68.60617
744.67         68.9678
745.08        69.65595
745.50        69.88428
745.92        69.58598
746.34        69.14686
746.75        68.71047
747.17        68.40038
747.59         68.2661
748.01        68.27433
748.42        68.39724
748.84         68.5506
749.26        68.70885
749.68        68.89165
750.09        69.05179
750.51         69.1354
750.93        69.12737
751.35        69.02945
751.76        68.91327
752.18        68.89826
752.60        69.01295
753.01        69.24062
753.43        69.47709
753.85        69.58264
754.27        69.51551
754.68        69.37063
755.10        69.25002
755.52         69.1661
755.93        69.10751
756.35        69.58044
756.77        69.55259
757.18        69.67408
757.60         69.6476
758.02        69.64098
758.43        69.55857
758.85         69.2113
759.26        68.85732
759.68        68.29503
760.10        69.13015
760.51        69.43589
760.93        69.37739
761.34        69.03651
761.76        69.62354
762.18        69.46861
762.59        69.08948
763.01        69.17836
763.42        69.73033
763.84        69.93801
764.26        69.75908
764.67        69.53667
765.09        69.39428
765.50        69.37218
765.92        69.46155
766.33        69.38303
766.75        69.09684
767.16        69.06247
767.58        69.26981
768.00        69.34627
768.41        69.39306
768.83        69.96456
769.24        70.85209
769.66        71.24472
770.07        71.08881
770.49        70.68175
770.90        70.25539
771.32        70.34766
771.73        70.86647
772.15        70.98671
772.56        70.67995
772.97        70.49715
773.39        70.48624
773.80        70.49259
774.22        70.49361
774.63        70.58399
775.05        70.70012
775.46        70.80432
775.88        70.85065
776.29        70.87073
776.70        70.86971
777.12        70.88678
777.53        70.94572
777.95        71.00392
778.36        71.05199
778.77        71.04839
779.19         70.9895
779.60        70.91637
780.02        70.83183
780.43        70.72704
780.84        70.65316
781.26        70.59777
781.67        70.57742
782.09        70.78844
782.50        71.08189
782.91        70.82185
783.33        70.18791
783.74        70.09409
784.15        70.61655
784.57        71.22379
784.98        71.79294
785.39        72.29231
785.81        72.64561
786.22        72.63712
786.63        72.71693
787.04        72.60168
787.46        72.48073
787.87        72.28702
788.28        72.13145
788.70        72.14603
789.11        72.31332
789.52        72.65036
789.93        73.00517
790.35        73.03696
790.76        72.75688
791.17        72.40617
791.58        72.09013
792.00        71.87051
792.41        71.82206
792.82        71.79859
793.23         71.7942
793.65        72.20516
794.06        72.80341
794.47        72.56034
794.88        71.72358
795.29        71.48083
795.71        71.82079
796.12        72.20811
796.53         72.4743
796.94        72.62225
797.35        72.57331
797.76        72.34939
798.18        72.07116
798.59        71.88371
799.00        71.84548
799.41        71.91124
799.82        72.06158
800.23        72.26041
800.64        72.47867
801.06        72.70719
801.47         72.9256
801.88        72.99306
802.29        72.88659
802.70        72.63355
803.11        72.33636
803.52        72.16978
803.93        72.19212
804.34        72.36127
804.75        72.60452
805.17        72.84802
805.58        73.10061
805.99         73.1329
806.40        72.99982
806.81        73.33485
807.22         73.9043
807.63        73.45487
808.04        72.22832
808.45        71.74828
808.86        72.15548
809.27        72.64246
809.68         73.0158
810.09         73.2976
810.50        73.39752
810.91        73.31748
811.32        73.12528
811.73        72.93556
812.14        72.80247
812.55        72.70251
812.96         72.6667
813.37        72.74509
813.78        72.93536
814.19        73.22129
814.60        73.54252
815.01        73.79956
815.42        73.96338
815.83        74.05396
816.24        74.06361
816.65         73.9901
817.05        73.85288
817.46        73.63481
817.87         73.4253
818.28        73.31253
818.69        73.30931
819.10        73.39113
819.51        73.51249
819.92        73.57903
820.33        73.55396
820.74        73.46774
821.14        73.32019
821.55        73.13718
821.96        72.92764
822.37        72.70747
822.78          72.533
823.19        72.50373
823.60        72.65247
824.00        72.97182
824.41        73.38278
824.82        73.85814
825.23         74.3449
825.64        74.81143
826.04        75.20773
826.45        75.38308
826.86        75.33547
827.27        75.10712
827.68        74.72737
828.08        74.27468
828.49        73.77334
828.90        73.24359
829.31        72.81866
829.72        72.68784
830.12        72.91703
830.53        73.43433
830.94        74.03971
831.35        74.31196
831.75        74.15518
832.16        73.63004
832.57        73.06644
832.97        72.96848
833.38        73.41859
833.79        74.24822
834.20        75.13746
834.60         75.5462
835.01        75.30152
835.42        74.61764
835.82        73.75133
836.23        73.08507
836.64        72.75245
837.04         72.6582
837.45         72.7233
837.86        72.88447
838.26        73.09541
838.67        73.33405
839.08         73.5652
839.48        73.68967
839.89        73.66965
840.29        73.53638
840.70        73.29897
841.11        72.94798
841.51        72.53779
841.92        72.06971
842.33        71.72736
842.73        71.80951
843.14        72.31676
843.54        73.20979
843.95        74.20604
844.35        74.89359
844.76        75.09974
845.17        74.91225
845.57        74.53115
845.98        74.28098
846.38         74.2733
846.79        74.39767
847.19        74.51532
847.60        74.31337
848.00        73.76771
848.41        73.00037
848.81        72.26362
849.22        71.89491
849.62        71.98632
850.03        72.40752
850.43        72.97626
850.84        73.22828
851.24        73.10764
851.65        72.71865
852.05        72.31356
852.46        72.26613
852.86        72.63436
853.27         73.2442
853.67        73.90976
854.07        74.59366
854.48        75.18645
854.88        75.82124
855.29        76.18411
855.69        75.97175
856.10        75.03848
856.50        73.62345
856.90        72.16863
857.31        71.30659
857.71        71.16412
858.12         71.5202
858.52        72.21768
858.92        72.71644
859.33        72.79713
859.73        72.66129
860.13        72.29324
860.54        71.70782
860.94        70.97059
861.34        70.04626
861.75        69.18938
862.15        68.90863
862.55         69.2915
862.96        70.19921
863.36        71.27855
863.76        71.84716
864.17        71.72646
864.57        71.11096
864.97        70.32292
865.38        69.91033
865.78        70.05369
866.18        70.56107
866.58        71.17834
866.99        71.45998
867.39         71.3098
867.79        70.90057
868.19         70.4021
868.60        70.01178
869.00        69.79079
869.40         69.6571
869.80        69.67031
870.21         69.9418
870.61        70.49776
871.01        71.24121
871.41        71.89323
871.81        72.03219
872.22        71.58681
872.62        70.68692
873.02        69.63761
873.42        68.95731
873.82        68.81233
874.22        69.08253
874.63         69.5651
875.03        69.91855
875.43        70.04354
875.83        70.04095
876.23         70.0488
876.63        70.28033
877.03        70.76514
877.44        71.37409
877.84        71.96068
878.24        72.24494
878.64         72.1599
879.04        71.81818
879.44        71.36167
879.84        70.99848
880.24        70.79771
880.64        70.69952
881.04        70.70344
881.44        70.79914
881.84        70.97122
882.24        71.24641
882.65        71.50375
883.05        71.63126
883.45        71.54952
883.85        71.27943
884.25        70.99649
884.65        70.96838
885.05         71.2467
885.45        71.77635
885.85        72.32899
886.25        72.51322
886.65        72.23094
887.05        71.58115
887.45         70.8904
887.85        70.66781
888.25        71.01696
888.65        71.79335
889.04         72.5996
889.44        72.77115
889.84        72.18951
890.24        71.07565
890.64        69.90426
891.04         69.3554
891.44        69.57208
891.84        70.37103
892.24        71.31377
892.64         71.6568
893.04        71.21886
893.44        70.23497
893.83        69.21259
894.23        68.92567
894.63        69.49967
895.03        70.68829
895.43        71.97589
895.83        72.43891
896.23        71.85667
896.63        70.61476
897.02        69.20143
897.42        68.40293
897.82        68.33691
898.22        68.79364
898.62        69.57722
899.01        70.38161
899.41        71.00985
899.81        71.57902
900.21        72.11768
900.61        72.66293
901.00        73.20221
901.40        73.62742
901.80        73.88357
902.20         73.9319
902.59        73.78111
902.99        73.47791
903.39         73.0722
903.79        72.62989
904.18        72.18597
904.58         71.7688
904.98        71.43349
905.38        71.26205
905.77        71.25569
906.17        71.41822
906.57        71.61285
906.96        71.62688
907.36        71.40028
907.76        70.99992
908.15        70.63163
908.55        70.58453
908.95        70.94007
909.34        71.61656
909.74        72.35535
910.14        72.81695
910.53        72.88879
910.93        72.65559
911.33        72.30692
911.72        72.14214
912.12         72.2545
912.52         72.5464
912.91        72.81013
913.31         72.7049
913.70        72.18172
914.10         71.3838
914.49        70.59795
914.89        70.23448
915.29        70.39179
915.68        70.93526
916.08        71.63485
916.47        72.12038
916.87        72.26188
917.26        72.16721
917.66         71.9576
918.05        71.81334
918.45        71.78992
918.84        71.86952
919.24        71.98957
919.64        72.13049
920.03        72.29235
920.42        72.46246
920.82        72.68714
921.21        73.05802
921.61        73.53276
922.00         74.0631
922.40        74.47218
922.79         74.5321
923.19        74.17959
923.58        73.54077
923.98        72.74513
924.37        71.89265
924.77        71.08956
925.16         70.3263
925.55        69.77438
925.95        69.68613
926.34        70.12418
926.74        70.95728
927.13        72.04163
927.52        73.03835
927.92          73.795
928.31        74.36894
928.70        74.69518
929.10        74.72714
929.49        74.51057
929.89        74.05235
930.28        73.50946
930.67        73.10969
931.07        72.91743
931.46        72.88152
931.85        72.98107
932.24        73.15761
932.64        73.35763
933.03        73.63876
933.42        73.80427
933.82        73.56631
934.21         72.9074
934.60        71.90517
934.99        70.95696
935.39        70.64344
935.78          71.114
936.17        72.24727
936.56        73.56033
936.96        74.14989
937.35        73.79617
937.74        72.71455
938.13        71.50357
938.53        70.96734
938.92        71.22697
939.31         72.1043
939.70        73.12684
940.09        73.44656
940.49        72.85473
940.88        71.65564
941.27        70.43531
941.66        70.06243
942.05        70.71903
942.44        72.14376
942.84        73.77995
943.23        74.68652
943.62         74.4971
944.01        73.53902
944.40        72.29443
944.79        71.52679
945.18        71.45982
945.57        71.81805
945.97        72.39673
946.36        72.98693
946.75        73.44191
947.14          73.871
947.53        74.16024
947.92        74.07846
948.31        73.60914
948.70        72.81563
949.09        71.97733
949.48        71.53011
949.87        71.59018
950.26        72.09035
950.65         72.8263
951.04        73.40871
951.43        73.69572
951.82        73.74483
952.21        73.75715
952.60        74.06743
952.99        74.70406
953.38        75.51387
953.77        76.15855
954.16        76.06583
954.55        75.15061
954.94        73.71658
955.33        72.13902
955.72         70.9715
956.11        70.38191
956.50         70.1659
956.89        70.34209
957.28        70.93153
957.66        71.89261
958.05        73.13834
958.44        74.19827
958.83        74.15958
959.22        72.88669
959.61         70.7304
960.00        68.48969
960.39          67.311
960.78        67.42355
961.16        68.52214
961.55        70.08186
961.94        71.31023
962.33        71.88403
962.72        72.00639
963.11        71.76935
963.49        71.37576
963.88        70.91628
964.27        70.37372
964.66        69.79883
965.04        69.28235
965.43        68.83744
965.82         68.4506
966.21        68.24107
966.60        68.37796
966.98        68.88242
967.37        69.68873
967.76        70.45595
968.15        70.60568
968.53        70.04129
968.92        68.92224
969.31        67.73306
969.69        67.25283
970.08        67.61941
970.47        68.60759
970.86        69.80645
971.24        70.45954
971.63        70.25562
972.02        69.49882
972.40        68.44047
972.79        67.48553
973.17        66.83101
973.56        66.37587
973.95        66.17582
974.33        66.34598
974.72        66.81019
975.11        67.48764
975.49        68.37331
975.88        69.34743
976.26        70.34499
976.65        71.32368
977.04        71.81984
977.42        71.11279
977.81        69.19331
978.19        66.30437
978.58        63.75297
978.96        63.25575
979.35        65.10905
979.74        68.97128
980.12        73.64536
980.51        76.06351
980.89        75.39342
981.28        72.30537
981.66        68.42881
982.05        66.52557
982.43        67.29521
982.82        69.88224
983.20        73.35534
983.59        75.92744
983.97         77.0547
984.35        77.26722
984.74        76.72402
985.12         75.7803
985.51           74.64
985.89        73.11438
986.28        71.69238
986.66        71.05343
987.04        71.44257
987.43        72.73311
987.81        74.37229
988.20        75.14854
988.58        74.76579
988.96        73.35488
989.35        71.69135
989.73         71.0247
990.12        71.58781
990.50        73.10931
990.88         74.5176
991.27         74.0855
991.65         71.6285
992.03        67.83091
992.42        64.15811
992.80        62.58403
993.18        63.65347
993.56        66.67339
993.95        70.49941
994.33        73.39767
994.71        74.46284
995.10        74.18534
995.48        72.88166
995.86        71.12727
996.24        69.33315
996.63        67.38279
997.01        65.60428
997.39        64.48855
997.77        64.11003
998.15         64.4371
998.54        65.28146
998.92        66.18175
999.30        66.93769
999.68        67.63853
1000.06        68.19775
1000.45         68.4744
1000.83        68.58857
1001.21        68.43787
1001.59        68.24277
1001.97        68.46434
1002.35        69.16566
1002.73         70.1424
1003.12         71.1321
1003.50        71.62678
1003.88        71.51892
1004.26        71.06662
1004.64        70.23725
1005.02        68.93143
1005.40        67.25149
1005.78        65.23695
1006.16        63.49737
1006.54        63.12586
1006.92        64.34109
1007.30        66.78782
1007.69        69.52523
1008.07        71.20951
1008.45        71.34791
1008.83         70.3539
1009.21        68.73647
1009.59        67.39613
1009.97        66.71301
1010.35        66.43729
1010.73         66.6479
1011.11        67.48933
1011.49        68.95325
1011.86        71.24545
1012.24        73.77884
1012.62        75.81796
1013.00        77.02245
1013.38         77.3715
1013.76        77.20838
1014.14        77.35201
1014.52        78.04418
1014.90        79.04654
1015.28        79.84698
1015.66        79.57123
1016.04        78.18468
1016.41        76.24223
1016.79        74.38943
1017.17        73.01698
1017.55        72.02036
1017.93        71.06827
1018.31        70.02136
1018.69        68.93174
1019.06          68.051
1019.44        67.64355
1019.82        67.29938
1020.20        66.38795
1020.58        64.80824
1020.95        62.48796
1021.33        60.05178
1021.71        59.14625
1022.09        60.61758
1022.46        63.82463
1022.84        67.57947
1023.22        70.47054
1023.60        72.02535
1023.97        72.71684
1024.35        72.08334
1024.73        69.50516
