SpectraSmart Spectrum 2.9.0.0
--------- Device Information -----------
Spectrum Name :  反射率_0
Saving Time :  2024/05/01 16:18:55
Spectro-Module Model Name : SE2030-DUVN
Spectro-Module Serial Number : OS361AC55029948
Wavelength Start : 200
Wavelength End : 1025
Wavelength Unit : Wavelength(nm)
Spectrum Unit : Reflectance(%)
-----------Spectrum Setting ------------
Integration Time : 20ms
Average : 10
Boxcar : 0
Background removal :  enabled
linearity correction :  enabled
SC :  disabled
Intensity correction :  disabled
DWT denoise :  enabled
savitzky-golay :  disabled
FFT :  disabled
Running average :  disabled
Kalman :  disabled
High pass :  disabled
---------------BEGIN--------------------
Wavelength(nm)             Reflectance(%)
200.29               0
200.75        111.2274
201.21        524.5764
201.67       -223.1788
202.13       -76.17907
202.58       -25.89227
203.04        4.676833
203.50        24.03627
203.96         33.6768
204.42        36.58038
204.88        31.96127
205.34       -145.5587
205.80        64.99058
206.26        46.40625
206.72        24.92614
207.18       -70.04526
207.64         199.427
208.10        104.9519
208.55        82.85282
209.01        72.61357
209.47        68.84205
209.93        68.66599
210.39        69.24524
210.85        71.95789
211.31        81.53268
211.77        119.8976
212.23       -203.6669
212.69       -3.363366
213.14        24.64714
213.60        70.36958
214.06       -359.5674
214.52       -56.72281
214.98       -33.40678
215.44       -22.32891
215.90       -5.413105
216.36        217.8174
216.81       -134.9799
217.27       -187.5755
217.73          360.21
218.19        56.55561
218.65         19.7556
219.11       -6.860093
219.57       -69.19082
220.02       -308.0945
220.48       -144.0487
220.94       -19.21443
221.40        13.35852
221.86        25.30236
222.32        30.44894
222.77        33.40073
223.23        35.81931
223.69        37.38321
224.15        36.20691
224.61        32.94871
225.06        29.34242
225.52        27.23786
225.98        26.97181
226.44        28.14119
226.90        30.58158
227.36         33.6094
227.81        34.33273
228.27        31.97248
228.73        28.68918
229.19        25.74393
229.65        23.35003
230.10        21.18128
230.56        19.10004
231.02        17.50421
231.48        17.78858
231.93        20.14102
232.39        23.43105
232.85        26.87167
233.31         30.0059
233.77        32.71382
234.22        35.12986
234.68        36.94577
235.14         37.9451
235.60        38.20729
236.05        37.74314
236.51         36.8966
236.97        37.07113
237.43        39.18497
237.88        43.00013
238.34        46.87222
238.80        49.37286
239.26        50.36031
239.71        50.13462
240.17        48.54417
240.63        46.87392
241.08           46.96
241.54        48.76924
242.00        52.04516
242.46         57.3965
242.91        66.59805
243.37        81.93859
243.83        106.3037
244.28        125.0634
244.74        120.1301
245.20        105.1421
245.66        91.84995
246.11        82.57989
246.57        74.95667
247.03        65.48494
247.48         50.8388
247.94        31.39651
248.40        14.44012
248.85        4.085951
249.31        5.339425
249.77        16.44443
250.22        30.53149
250.68        43.74368
251.14        53.15823
251.59        57.51447
252.05        57.61267
252.51        52.64621
252.96        38.35044
253.42         22.4549
253.88        35.87502
254.33        60.01384
254.79        71.67104
255.25        74.24342
255.70        72.92915
256.16         71.1192
256.62        69.56638
257.07        68.76641
257.53        68.99086
257.99        69.39508
258.44        69.45768
258.90        69.30498
259.35        68.57131
259.81        67.67685
260.27        66.60773
260.72        65.46812
261.18        64.58796
261.63        63.61224
262.09        62.66407
262.55        61.42656
263.00        59.82907
263.46        58.17815
263.91        56.47248
264.37        55.05097
264.83        53.87809
265.28         52.8677
265.74        51.99168
266.19        50.94226
266.65        49.79679
267.11        48.54982
267.56        47.41753
268.02        46.83496
268.47        46.79547
268.93        47.10997
269.38         47.3955
269.84        46.99357
270.30        45.79438
270.75        44.01815
271.21        42.06564
271.66        40.41001
272.12        39.25626
272.57        38.40768
273.03        37.79062
273.48        37.23023
273.94        36.68048
274.39        36.16358
274.85          35.672
275.31         35.1095
275.76        34.45586
276.22        33.78129
276.67        33.06531
277.13        32.40293
277.58         31.7559
278.04        31.13967
278.49        30.56431
278.95        30.16565
279.40        29.89211
279.86        29.73641
280.31        29.52923
280.77        29.12738
281.22        28.48007
281.68        27.72667
282.13        26.93795
282.59          26.298
283.04        25.82108
283.50        25.49483
283.95        25.29941
284.41        25.25448
284.86        25.32529
285.32        25.51577
285.77        25.75489
286.22         25.9803
286.68        26.17568
287.13        26.32118
287.59        26.43837
288.04        26.52535
288.50        26.60684
288.95        26.63872
289.41        26.65289
289.86        26.62022
290.32        26.57841
290.77        26.54386
291.22        26.53834
291.68        26.57748
292.13        26.67972
292.59        26.88872
293.04        27.22727
293.50         27.7745
293.95        28.52455
294.40        29.46264
294.86        30.54893
295.31        31.72632
295.77         32.9528
296.22         34.2099
296.68        35.47632
297.13        36.71529
297.58        37.94411
298.04        39.19728
298.49         40.4795
298.95        41.83526
299.40        43.24875
299.85         44.7029
300.31        46.24607
300.76        47.94286
301.21        49.80984
301.67        51.83487
302.12        53.85933
302.58         55.6522
303.03        57.12144
303.48        58.36275
303.94        59.59253
304.39        61.04374
304.84        62.83077
305.30        64.86532
305.75        67.01132
306.20        69.08106
306.66        71.00093
307.11        72.76994
307.57         74.4258
308.02        75.92071
308.47        77.30733
308.93        78.60169
309.38        79.81839
309.83        81.07523
310.29        82.41093
310.74        83.78739
311.19        85.17178
311.65        86.48524
312.10        87.68025
312.55        88.76871
313.00        89.81369
313.46        90.92018
313.91        92.08756
314.36        93.27823
314.82        94.33329
315.27        95.01697
315.72        95.27749
316.18        95.23204
316.63        95.06214
317.08        95.10891
317.53        95.46394
317.99        96.04518
318.44        96.71915
318.89        97.23929
319.35        97.53677
319.80        97.69547
320.25        97.81223
320.70        98.11481
321.16        98.51923
321.61         99.0563
322.06        99.63478
322.51        100.1912
322.97        100.6621
323.42        101.1045
323.87        101.4506
324.32        101.6094
324.78        101.5714
325.23        101.4043
325.68         101.202
326.13        101.1438
326.59        101.2638
327.04        101.5675
327.49        101.9909
327.94        102.4398
328.39        102.8654
328.85        103.2457
329.30        103.6351
329.75        103.9712
330.20        104.2493
330.66        104.4475
331.11        104.6294
331.56        104.7843
332.01        104.9372
332.46        105.0941
332.92         105.307
333.37        105.7654
333.82        106.4676
334.27        107.3929
334.72        108.3906
335.17        109.1877
335.63        109.6696
336.08        109.9326
336.53        110.1094
336.98        110.4971
337.43         111.169
337.88        112.0378
338.34        112.8842
338.79        113.4312
339.24        113.5642
339.69         113.386
340.14        113.1217
340.59        113.1179
341.05        113.4613
341.50        114.0828
341.95        114.7811
342.40        115.2268
342.85        115.3556
343.30        115.2951
343.75         115.274
344.20        115.6414
344.66        116.4559
345.11        117.5634
345.56        118.7625
346.01        119.7156
346.46        120.3031
346.91        120.6391
347.36        120.7755
347.81        120.7959
348.26        120.7679
348.72        120.6765
349.17        120.6194
349.62        120.8284
350.07        121.3078
350.52        121.9605
350.97        122.5812
351.42        122.8146
351.87        122.5848
352.32        122.0514
352.77        121.2927
353.22        120.4402
353.67         119.583
354.13        118.7008
354.58        117.9669
355.03        117.7622
355.48        118.1096
355.93        118.9329
356.38        119.7565
356.83        119.7722
357.28         118.829
357.73        117.1871
358.18        115.4648
358.63        114.5857
359.08        114.7177
359.53        115.5525
359.98         116.558
360.43        116.8455
360.88        116.1667
361.33        114.8297
361.78        113.2388
362.23        111.9637
362.68         111.159
363.13        110.6424
363.58        110.2184
364.03        109.6068
364.48        108.7249
364.93        107.6693
365.38        106.6084
365.83        105.7618
366.28        105.1672
366.73         104.763
367.18        104.3086
367.63        103.4393
368.08        102.1265
368.53        100.5227
368.98        99.00318
369.43        98.10551
369.88        97.90969
370.33        98.23482
370.78        98.70808
371.23         98.6774
371.68        97.96058
372.13        96.78186
372.58        95.44408
373.03        94.39756
373.48        93.75732
373.93        93.35152
374.38          93.083
374.83        92.81003
375.28        92.46262
375.72        92.09575
376.17        91.66329
376.62        91.01801
377.07        90.16091
377.52        89.12698
377.97        88.09702
378.42        87.36942
378.87        87.00237
379.32        86.90849
379.77         86.8994
380.22        86.67442
380.67        86.16323
381.11        85.46622
381.56        84.71925
382.01        84.16844
382.46        83.88512
382.91        83.78091
383.36         83.7515
383.81        83.64315
384.26        83.40144
384.71         83.0707
385.15        82.67765
385.60        82.30901
386.05        81.97453
386.50        81.65501
386.95         81.3211
387.40        80.93998
387.85        80.51394
388.29        80.01564
388.74        79.58998
389.19        79.25116
389.64        78.99458
390.09        78.78662
390.54        78.56433
390.98        78.21523
391.43        77.78165
391.88        77.29453
392.33        76.80926
392.78        76.42915
393.23        76.17692
393.67          75.905
394.12        75.66563
394.57        75.61714
395.02        75.63538
395.47        75.20956
395.91         74.5009
396.36        74.21265
396.81        74.39646
397.26        74.70402
397.71        74.92469
398.15        74.84885
398.60        74.51263
399.05        73.91605
399.50        73.29196
399.95        73.03893
400.39         73.1896
400.84        73.40878
401.29        73.53536
401.74        73.50288
402.18        73.23112
402.63         72.5872
403.08         71.8011
403.53        71.33352
403.97        71.24534
404.42        71.36913
404.87        71.55421
405.32        71.57448
405.76         71.3567
406.21        71.09195
406.66         70.8228
407.11        70.42219
407.55        70.04811
408.00        70.06792
408.45        70.41402
408.90        70.64053
409.34        70.59496
409.79        70.27053
410.24        69.79272
410.68        69.50967
411.13        69.47638
411.58        69.47268
412.03        69.45676
412.47        69.47728
412.92        69.49054
413.37        69.49487
413.81        69.48588
414.26        69.51301
414.71        69.56071
415.15        69.63371
415.60        69.67787
416.05         69.6619
416.49        69.58414
416.94        69.45112
417.39        69.31691
417.83        69.25445
418.28        69.28294
418.73         69.3828
419.17        69.49868
419.62        69.54576
420.07        69.49772
420.51        69.36695
420.96        69.24623
421.41        69.17054
421.85        69.13749
422.30        69.27075
422.74        69.46544
423.19        69.45181
423.64         69.2751
424.08        69.39958
424.53        69.79239
424.98        70.00135
425.42        69.96837
425.87        70.17432
426.31        70.52263
426.76        70.08155
427.21        69.17234
427.65        69.40732
428.10        70.51391
428.54        70.87051
428.99        70.46295
429.44        69.70205
429.88        68.95955
430.33         69.6091
430.77        71.12887
431.22        70.95673
431.66        69.88526
432.11        69.20086
432.56        69.29305
433.00        69.75952
433.45        70.47688
433.89        70.27083
434.34        70.00902
434.78        71.08279
435.23        70.76097
435.67        70.76847
436.12        70.42709
436.57        70.88548
437.01        71.94881
437.46        72.39968
437.90        72.18272
438.35        71.71321
438.79        71.74721
439.24        71.34732
439.68        70.85476
440.13        70.83231
440.57        71.27455
441.02        71.61971
441.46        71.76247
441.91        72.21847
442.35        72.71156
442.80        72.61953
443.24        72.04372
443.69        71.85496
444.13        72.07956
444.58         72.1701
445.02        72.09095
445.47        72.19483
445.91        72.50719
446.36         72.8027
446.80        73.01381
447.24        73.72283
447.69        73.90562
448.13        74.03192
448.58         73.8735
449.02        73.70531
449.47        73.61575
449.91        73.52106
450.36        73.48112
450.80         73.5665
451.25        73.73356
451.69        73.78464
452.13        73.70386
452.58         73.5868
453.02        73.45544
453.47        73.34278
453.91        73.24825
454.36        73.20448
454.80        73.18092
455.24        73.00994
455.69        72.67731
456.13        72.44322
456.58        72.47981
457.02         71.7788
457.46        72.10848
457.91        72.39212
458.35        72.89555
458.79        72.87835
459.24        72.29978
459.68        71.62072
460.13         71.1972
460.57        70.12898
461.01        70.49718
461.46        70.77726
461.90        71.27278
462.34        71.22832
462.79        70.28597
463.23        70.31085
463.68        71.04152
464.12        71.23256
464.56        70.84727
465.01        70.62811
465.45        70.57616
465.89        70.69809
466.34        70.85059
466.78        70.80325
467.22        70.00962
467.67        69.80999
468.11        69.81822
468.55        69.94093
468.99        70.01661
469.44        70.06322
469.88        70.06538
470.32         70.0312
470.77        69.97618
471.21        69.91958
471.65        69.85576
472.10        69.79469
472.54         69.7131
472.98        69.59257
473.42        69.43363
473.87        69.31351
474.31        69.21107
474.75        69.03298
475.20        68.82916
475.64        68.86518
476.08        69.11467
476.52        69.06065
476.97        68.88891
477.41        69.12244
477.85        68.68589
478.29        68.90399
478.74        68.70588
479.18        68.87148
479.62        68.55386
480.06        68.53951
480.50        68.68088
480.95        67.91679
481.39        68.44267
481.83        67.77422
482.27         68.2254
482.72        68.21204
483.16        68.20448
483.60        68.35519
484.04        68.60523
484.48        68.53515
484.93        68.44569
485.37        69.13898
485.81        68.98729
486.25        70.01791
486.69        69.62074
487.14          67.425
487.58        66.75536
488.02        68.47414
488.46        67.96114
488.90        67.29118
489.34         68.3175
489.79        68.01962
490.23        67.81396
490.67        67.62351
491.11        67.67448
491.55        67.83289
491.99        67.99786
492.43        68.05209
492.88        67.96315
493.32        67.84328
493.76        67.74543
494.20        67.73734
494.64        67.83607
495.08        67.95507
495.52         68.0472
495.96        68.15536
496.41         68.2016
496.85        67.96429
497.29        67.50111
497.73        67.17654
498.17        67.04411
498.61        66.84424
499.05        66.66477
499.49        66.84458
499.93        67.25628
500.37        67.54697
500.82        67.71511
501.26        67.57174
501.70        67.53584
502.14        68.08083
502.58        67.49108
503.02        67.41502
503.46        67.32772
503.90        67.22937
504.34        67.13889
504.78        67.14546
505.22        67.26564
505.66        67.44843
506.10        67.63147
506.54        67.72237
506.98        67.64407
507.42        67.49884
507.86        66.99144
508.30        66.79386
508.74          66.835
509.18        66.96805
509.62        67.14038
510.06        67.32417
510.50        67.48614
510.94        67.62651
511.38        67.72576
511.82        67.75182
512.26        67.70027
512.70        67.57396
513.14        67.40594
513.58        67.25565
514.02        67.14243
514.46        67.05951
514.90        66.99229
515.34        66.91003
515.78        66.81052
516.22        66.71597
516.66        66.64034
517.10        66.59951
517.54        66.59583
517.98        66.61655
518.42        66.66663
518.86        66.74482
519.30        66.84352
519.74        66.98851
520.18        67.13645
520.62        67.15639
521.06        67.06757
521.50        67.02788
521.93         67.0637
522.37        67.07418
522.81        67.06739
523.25        67.12402
523.69        67.18191
524.13        67.10056
524.57          66.874
525.01        66.55566
525.45        66.25816
525.89         66.1551
526.32        66.27968
526.76        66.57004
527.20        66.91049
527.64        67.12743
528.08        67.16907
528.52        67.06004
528.96        66.86978
529.40        66.77934
529.83         66.7823
530.27        66.70285
530.71        66.55785
531.15        66.53002
531.59        66.62657
532.03        66.75377
532.46        66.86665
532.90        66.95152
533.34         66.9913
533.78        66.93211
534.22        66.80927
534.66        66.79816
535.09        66.84885
535.53        66.70724
535.97        66.40137
536.41        66.22355
536.85        66.19592
537.28        66.14216
537.72         66.0657
538.16        66.09111
538.60        66.18243
539.04        66.18481
539.47         66.1031
539.91        66.09743
540.35        66.15462
540.79        66.21484
541.22        66.26165
541.66        66.21178
542.10        66.23041
542.54        66.18369
542.97        66.12883
543.41        66.11115
543.85        66.12601
544.29        66.16024
544.72        66.19536
545.16        66.23729
545.60        66.26691
546.04        66.28478
546.47        66.27612
546.91        66.22709
547.35        66.14923
547.79        66.03757
548.22        65.88572
548.66        65.82288
549.10        65.85624
549.53        65.65456
549.97        65.79462
550.41        65.85492
550.84        65.99542
551.28        66.21474
551.72         66.4484
552.15        66.51508
552.59        66.41528
553.03        66.32716
553.46        66.29746
553.90        66.27512
554.34        66.24187
554.77        66.68048
555.21        66.47711
555.65        66.86288
556.08        66.49079
556.52         66.3122
556.96        66.06535
557.39        65.83432
557.83        65.69944
558.27        65.66566
558.70        65.70277
559.14        65.93053
559.57        65.76198
560.01        65.96409
560.45        66.22933
560.88        66.15155
561.32         65.8399
561.75        65.49043
562.19        65.28778
562.63        65.59313
563.06        66.21867
563.50        66.20659
563.93        65.62408
564.37        65.47662
564.80        65.75682
565.24        65.90832
565.68        65.88081
566.11        65.87278
566.55        65.91285
566.98         65.8823
567.42        65.82902
567.85        65.87384
568.29        66.06136
568.72        65.92648
569.16        66.25046
569.60        66.24372
570.03        66.04327
570.47        66.13898
570.90        66.54269
571.34        65.56777
571.77        66.14809
572.21        66.17088
572.64        66.53041
573.08        66.12085
573.51        66.05438
573.95        66.87161
574.38        66.17606
574.82        66.45531
575.25         66.7835
575.69        66.81638
576.12        66.54958
576.56        66.36414
576.99        66.48448
577.42        66.33826
577.86        66.56664
578.29        66.66446
578.73        67.79047
579.16        66.46628
579.60        65.90657
580.03        65.84064
580.47        66.53716
580.90         65.7434
581.33        66.70843
581.77         66.9912
582.20         67.3885
582.64        66.87715
583.07         67.0195
583.51        66.52679
583.94        66.15002
584.37        66.33517
584.81        67.08952
585.24         66.9612
585.68         66.7159
586.11        66.53206
586.54        66.54585
586.98        65.66805
587.41        65.35535
587.85        66.71066
588.28        66.56655
588.71        64.96678
589.15        66.30002
589.58        65.84904
590.01        65.64281
590.45         65.7603
590.88         66.2731
591.31        66.36599
591.75        65.97524
592.18        65.84726
592.61        65.17355
593.05        65.99983
593.48        65.86524
593.91        65.89214
594.35        65.81432
594.78        65.61276
595.21        65.35948
595.65        65.84207
596.08        66.14603
596.51        65.72127
596.94        65.45956
597.38        65.26699
597.81        65.57737
598.24        65.23242
598.68        65.70887
599.11        65.16483
599.54        66.43996
599.97        65.99972
600.41        65.49803
600.84        65.93591
601.27        65.73646
601.70        66.30813
602.14        66.48558
602.57         66.2877
603.00        65.70828
603.43        65.42629
603.87        65.86926
604.30        65.97945
604.73        65.67494
605.16        65.39121
605.60        65.26299
606.03        65.57597
606.46        66.09698
606.89         65.9519
607.32        65.38467
607.76        65.13072
608.19        65.27863
608.62        65.86907
609.05         65.9727
609.48        65.83075
609.92        65.25099
610.35         65.2523
610.78        66.28342
611.21          66.446
611.64        65.81091
612.07        66.26505
612.50        66.39755
612.94        66.08669
613.37        65.52183
613.80        66.09827
614.23        65.41521
614.66        65.73392
615.09        65.31335
615.52        65.48492
615.96        65.83588
616.39        65.97814
616.82        65.91931
617.25        65.82096
617.68        65.97684
618.11        65.88594
618.54        65.66265
618.97        65.48719
619.40        65.40787
619.84        65.34806
620.27        65.33128
620.70        65.56487
621.13        65.87151
621.56         65.7273
621.99        65.16185
622.42         65.1779
622.85        65.65578
623.28        65.39796
623.71        65.36395
624.14        65.79174
624.57        65.79129
625.00          65.914
625.43         65.7925
625.86        65.62048
626.29        65.45767
626.72        65.05776
627.15        65.23361
627.58        65.01189
628.01        65.16445
628.44        65.11047
628.87        65.05519
629.30        64.85745
629.73        65.06693
630.16         65.1086
630.59        65.12633
631.02        65.19912
631.45        65.29926
631.88        65.32753
632.31        65.26804
632.74        65.15266
633.17         65.0321
633.60        64.98875
634.03        65.04108
634.46         65.1628
634.89        65.29563
635.32        65.34459
635.75        65.28457
636.18        65.14416
636.61        64.97524
637.04         64.8612
637.47        64.82664
637.89        64.84882
638.32        64.87087
638.75         64.8567
639.18        64.79588
639.61        64.62377
640.04        64.53489
640.47        64.45748
640.90        64.45274
641.33        64.48465
641.76        64.51443
642.18        64.57526
642.61        64.65753
643.04        64.61666
643.47        64.40071
643.90        64.83875
644.33         64.5361
644.76        64.51375
645.18        64.42093
645.61        64.60661
646.04        64.97307
646.47        64.99275
646.90        64.70391
647.33        64.61725
647.75        64.75407
648.18        64.76416
648.61        64.67504
649.04        64.71536
649.47        64.83682
649.89        64.94215
650.32        64.96435
650.75        64.69437
651.18        64.27712
651.61        64.34881
652.03        64.88581
652.46        65.00446
652.89        64.65179
653.32        64.66717
653.74        65.22539
654.17        64.48238
654.60        64.95474
655.03        65.24615
655.46         64.3799
655.88        64.92308
656.31        72.39256
656.74        70.94665
657.16        64.94068
657.59        63.55027
658.02        64.67567
658.45        64.73639
658.87        65.15401
659.30        63.87885
659.73        64.61347
660.15        65.55672
660.58        64.87076
661.01         64.6378
661.44        64.21706
661.86        64.20644
662.29        64.55107
662.72        64.82648
663.14        64.98127
663.57        65.10564
664.00        65.18358
664.42        65.16898
664.85        65.06196
665.27         64.7986
665.70        64.46703
666.13         64.2742
666.55        64.27008
666.98        64.37883
667.41        64.55383
667.83        64.72388
668.26        64.83781
668.69        64.91521
669.11        64.96535
669.54        65.01637
669.96        65.06405
670.39        65.06127
670.82        65.02172
671.24        64.95536
671.67        64.90229
672.09        64.95633
672.52        65.09707
672.94        65.13885
673.37        65.07272
673.80        64.99412
674.22        64.93208
674.65         64.8621
675.07        64.81144
675.50        64.77103
675.92        64.75942
676.35        64.79704
676.77        64.88347
677.20        64.99989
677.62        65.11446
678.05        65.16221
678.47         65.1294
678.90        65.04602
679.32        64.93135
679.75        64.84001
680.17        64.78418
680.60        64.74946
681.02         64.7503
681.45        64.79276
681.87        64.88172
682.30        65.01196
682.72        65.14919
683.15        65.17825
683.57        65.10332
684.00        64.99893
684.42        64.90509
684.85        64.85791
685.27        64.86242
685.70        64.91407
686.12        64.97105
686.54        64.99799
686.97        64.97869
687.39        64.85128
687.82        64.88493
688.24        64.64795
688.66        64.32246
689.09        64.31794
689.51        64.61629
689.94        64.77222
690.36        64.76573
690.78        64.83051
691.21        65.00138
691.63        65.21819
692.06        65.47754
692.48        65.81345
692.90        66.12684
693.33        66.23179
693.75        66.10575
694.17        65.75294
694.60        65.32742
695.02        65.12177
695.44        65.13122
695.87        65.18353
696.29        65.21706
696.71        65.00403
697.14          64.691
697.56        64.93571
697.98        65.61364
698.41        65.92033
698.83        65.79827
699.25        65.69163
699.68        65.65204
700.10        65.63167
700.52        65.64922
700.94        65.66895
701.37        65.69109
701.79        65.83932
702.21        66.03249
702.64         66.0845
703.06        65.99364
703.48        65.82523
703.90        65.57524
704.33        65.63206
704.75        65.20647
705.17        65.09176
705.59        65.06696
706.01         65.1095
706.44        65.22449
706.86        65.44532
707.28        65.74065
707.70        66.11205
708.12        66.45474
708.55        66.53264
708.97        66.34746
709.39        66.10508
709.81        65.89001
710.23        65.72105
710.66        65.64288
711.08        65.71216
711.50        65.86102
711.92        65.94752
712.34        65.94165
712.76        65.89648
713.19        65.81932
713.61         65.7664
714.03        65.73645
714.45        65.70689
714.87        65.70744
715.29        65.78924
715.71        65.95438
716.13          66.195
716.56         66.4174
716.98        66.54363
717.40         66.5163
717.82        66.35878
718.24        66.17371
718.66        66.12965
719.08        66.25917
719.50        66.51153
719.92        66.76447
720.34        66.81774
720.76        66.62994
721.19         66.2748
721.61        65.88458
722.03        65.65765
722.45        65.65575
722.87        65.82755
723.29        66.08697
723.71        66.29107
724.13        66.38554
724.55        66.39447
724.97        66.38131
725.39        66.44825
725.81        66.61131
726.23        66.83388
726.65        67.00281
727.07        66.94469
727.49        66.64083
727.91         66.1638
728.33        65.68541
728.75         65.4725
729.17        65.58292
729.59        65.93035
730.01        66.36683
730.43        66.63443
730.85        66.65508
731.27        66.51985
731.69        66.30111
732.10        66.11122
732.52          65.998
732.94        65.91137
733.36        65.88942
733.78        65.98948
734.20         66.2015
734.62        66.55647
735.04         66.9398
735.46        67.04016
735.88        66.88826
736.30        66.81088
736.72        66.82383
737.13        66.80222
737.55        66.70325
737.97        66.45039
738.39        66.16514
738.81        66.26031
739.23        66.70026
739.65        67.01483
740.06        67.06987
740.48        67.13183
740.90        67.15089
741.32        66.96384
741.74        66.64614
742.16        66.42899
742.57        66.36471
742.99        66.43178
743.41        66.59017
743.83        66.63712
744.25         66.6041
744.67        66.81133
745.08        67.18948
745.50        67.27533
745.92        67.04442
746.34        66.70906
746.75         66.3802
747.17        66.16803
747.59        66.09838
748.01        66.22001
748.42        66.45135
748.84        66.45658
749.26        66.28677
749.68        66.33878
750.09        66.58971
750.51        66.75323
750.93        66.78768
751.35        66.76512
751.76        66.73145
752.18        66.76661
752.60        66.88033
753.01        67.05006
753.43        67.22277
753.85        67.30595
754.27         67.2654
754.68        67.44345
755.10        67.28987
755.52        67.34841
755.93        67.45017
756.35        67.59213
756.77        67.71383
757.18        67.70811
757.60        67.57965
758.02        67.41502
758.43        67.25397
758.85        67.11654
759.26        67.04855
759.68        67.20491
760.10        67.54552
760.51        67.71958
760.93        67.65262
761.34        67.73725
761.76         67.9128
762.18        67.46635
762.59        66.66426
763.01        66.71957
763.42        67.59835
763.84        67.94852
764.26         67.6941
764.67        67.50847
765.09        67.49328
765.50         67.5023
765.92        67.52454
766.33        67.33321
766.75         66.9312
767.16        66.85526
767.58        67.11673
768.00        67.28972
768.41        67.42693
768.83        68.05656
769.24        68.94334
769.66        69.20667
770.07        68.84311
770.49        68.35971
770.90        67.96614
771.32        67.94837
771.73        68.23795
772.15        68.24789
772.56        67.96302
772.97        67.80967
773.39        67.82052
773.80        67.86739
774.22        67.92102
774.63        68.06646
775.05        68.23627
775.46        68.38529
775.88        68.46692
776.29        68.50919
776.70        68.53026
777.12        68.59178
777.53        68.71536
777.95        68.84856
778.36        68.95757
778.77        68.94848
779.19        68.81086
779.60        68.64626
780.02        68.47225
780.43        68.22391
780.84        68.01515
781.26        67.98051
781.67        68.10857
782.09        68.47966
782.50        68.95613
782.91        68.57209
783.33        68.30697
783.74        68.20719
784.15        68.58658
784.57        68.95559
784.98        69.28595
785.39        69.68293
785.81        70.09975
786.22        70.29111
786.63        70.59446
787.04        70.58255
787.46        70.40643
787.87        70.05705
788.28        69.70964
788.70        69.59863
789.11        69.73902
789.52        70.09415
789.93        70.49796
790.35        70.63577
790.76        70.47925
791.17        70.17095
791.58        69.82816
792.00        69.61763
792.41        69.61948
792.82        69.63312
793.23        69.63202
793.65        69.99358
794.06          70.495
794.47        70.15881
794.88        69.26585
795.29        68.98132
795.71        69.29613
796.12        69.76129
796.53        70.16518
796.94        70.24316
797.35        69.96145
797.76        69.73834
798.18        69.68687
798.59        69.61169
799.00        69.55717
799.41        69.67988
799.82        69.93102
800.23        70.12186
800.64        70.21101
801.06        70.23681
801.47        70.23928
801.88        70.18597
802.29        70.08545
802.70        69.93071
803.11        69.77265
803.52        69.70274
803.93        69.75476
804.34        69.91287
804.75        70.11795
805.17        70.33474
805.58        70.58224
805.99        70.57298
806.40        70.38339
806.81        70.76539
807.22        71.45097
807.63        71.01069
808.04        69.66161
808.45        69.04623
808.86        69.31121
809.27        69.55669
809.68        69.67622
810.09        69.89622
810.50        70.16094
810.91        70.41471
811.32        70.58893
811.73        70.56852
812.14        70.34717
812.55        69.96785
812.96         69.5854
813.37        69.46806
813.78        69.68254
814.19        70.14308
814.60        70.70683
815.01        71.15062
815.42          71.406
815.83         71.5341
816.24        71.54565
816.65        71.46777
817.05        71.33044
817.46        71.09114
817.87        70.84352
818.28        70.69088
818.69        70.65038
819.10        70.71245
819.51         70.8101
819.92        70.80392
820.33         70.6605
820.74        70.43035
821.14         70.1842
821.55        70.05464
821.96        70.06274
822.37         70.1824
822.78        70.37871
823.19        70.58517
823.60        70.77345
824.00        70.97684
824.41        71.16956
824.82        71.41837
825.23        71.71637
825.64        72.01478
826.04        72.28056
826.45        72.39349
826.86        72.35209
827.27        72.19599
827.68        71.92986
828.08        71.57825
828.49        71.14481
828.90        70.65906
829.31        70.23769
829.72        70.05188
830.12        70.16927
830.53        70.51862
830.94        70.95949
831.35        71.18022
831.75         71.1126
832.16         70.7952
832.57        70.46499
832.97        70.48072
833.38        70.89137
833.79        71.56005
834.20        72.26144
834.60         72.6194
835.01        72.50263
835.42        72.07397
835.82        71.47078
836.23        70.89382
836.64        70.43724
837.04         70.0585
837.45        69.81097
837.86        69.84651
838.26        70.18131
838.67        70.74456
839.08        71.35497
839.48        71.67446
839.89        71.60574
840.29         71.2412
840.70        70.75955
841.11        70.42035
841.51        70.32195
841.92        70.36698
842.33        70.52699
842.73        70.76018
843.14        70.98611
843.54        71.27703
843.95        71.55359
844.35        71.75063
844.76        71.81397
845.17        71.73478
845.57        71.58891
845.98        71.49887
846.38        71.50858
846.79        71.57758
847.19        71.60847
847.60        71.35349
848.00        70.81548
848.41        70.08452
848.81        69.39946
849.22        69.09209
849.62         69.2498
850.03        69.74436
850.43        70.40335
850.84        70.78155
851.24        70.80842
851.65         70.5667
852.05        70.25586
852.46        70.16902
852.86        70.36448
853.27        70.72932
853.67        71.12917
854.07        71.57133
854.48        71.97236
854.88        72.45217
855.29        72.77301
855.69        72.75574
856.10        72.25871
856.50        71.43189
856.90        70.56431
857.31        70.09668
857.71        70.11035
858.12        70.42565
858.52        70.90486
858.92        71.07127
859.33        70.77434
859.73        70.23695
860.13        69.52619
860.54        68.76939
860.94        68.05114
861.34        67.30653
861.75           66.75
862.15        66.79704
862.55        67.47645
862.96        68.65439
863.36        69.89821
863.76        70.41124
864.17        70.01384
864.57        68.94243
864.97        67.66363
865.38        66.96669
865.78        67.09904
866.18        67.81236
866.58        68.76578
866.99        69.33737
867.39        69.34353
867.79        68.98895
868.19        68.45135
868.60        67.94392
869.00        67.54282
869.40        67.16132
869.80        66.87003
870.21        66.82269
870.61        67.08772
871.01        67.59245
871.41        68.11859
871.81        68.31496
872.22         68.1106
872.62        67.60712
873.02        67.01667
873.42         66.6992
873.82        66.76689
874.22         67.1255
874.63        67.62334
875.03        68.01765
875.43        68.23114
875.83        68.31859
876.23        68.39258
876.63        68.63025
877.03        69.05241
877.44        69.56448
877.84        70.00872
878.24        70.08203
878.64        69.73548
879.04        69.09863
879.44        68.39819
879.84        67.96546
880.24        67.88332
880.64        68.05531
881.04        68.36794
881.44        68.62701
881.84        68.77075
882.24        68.87112
882.65        68.91435
883.05        68.97999
883.45        69.04507
883.85         69.0621
884.25        69.09811
884.65        69.27454
885.05        69.60194
885.45        70.05651
885.85        70.48191
886.25        70.60379
886.65        70.35892
887.05        69.82672
887.45        69.22415
887.85        68.89043
888.25        68.91106
888.65        69.19891
889.04        69.55528
889.44        69.63313
889.84        69.35568
890.24        68.81274
890.64         68.2248
891.04        67.89925
891.44        67.90608
891.84        68.19419
892.24        68.50166
892.64         68.3921
893.04        67.80498
893.44        66.89185
893.83        66.09859
894.23        66.10976
894.63        67.00632
895.03        68.55944
895.43        70.22487
895.83        71.00425
896.23        70.63022
896.63         69.4824
897.02        68.03231
897.42        67.05676
897.82        66.69634
898.22        66.75937
898.62        67.13682
899.01        67.67577
899.41        68.22507
899.81        68.86123
900.21         69.5418
900.61        70.16431
901.00        70.67159
901.40        71.01379
901.80        71.13554
902.20        70.99961
902.59        70.63602
902.99        70.07846
903.39        69.48898
903.79        69.11892
904.18        69.02229
904.58        69.16955
904.98        69.42086
905.38        69.55403
905.77        69.51442
906.17        69.39503
906.57        69.25656
906.96        69.21748
907.36        69.29526
907.76        69.43664
908.15         69.6684
908.55        69.99623
908.95        70.40983
909.34        70.91077
909.74        71.33214
910.14        71.48199
910.53        71.31417
910.93        70.88732
911.33         70.3683
911.72        70.02154
912.12        69.93924
912.52        70.05131
912.91        70.21569
913.31        70.18267
913.70        69.90805
914.10        69.49133
914.49        69.09614
914.89        68.95096
915.29        69.10944
915.68        69.47425
916.08        69.92683
916.47        70.29298
916.87        70.49219
917.26        70.57076
917.66        70.53651
918.05        70.39753
918.45        70.17078
918.84        69.89516
919.24        69.61089
919.64        69.47488
920.03        69.54686
920.42        69.76856
920.82        70.09841
921.21        70.49113
921.61        70.87952
922.00        71.27333
922.40        71.56947
922.79        71.65929
923.19        71.50399
923.58        71.15101
923.98        70.68603
924.37        70.17545
924.77        69.69418
925.16        69.23556
925.55        68.88972
925.95        68.76409
926.34        68.90565
926.74        69.25141
927.13        69.78973
927.52         70.3933
927.92        70.97929
928.31        71.55302
928.70        72.02248
929.10        72.28155
929.49        72.32505
929.89        72.16411
930.28        71.86832
930.67        71.52509
931.07        71.17108
931.46        70.78677
931.85        70.45211
932.24        70.29009
932.64         70.3114
933.03        70.53973
933.42        70.74252
933.82        70.56358
934.21        69.95982
934.60        69.03027
934.99        68.16907
935.39        67.94991
935.78        68.51704
936.17        69.73663
936.56        71.11637
936.96        71.74561
937.35        71.39691
937.74        70.28583
938.13        69.02332
938.53        68.43079
938.92        68.63515
939.31        69.45936
939.70        70.42481
940.09        70.66861
940.49        69.99397
940.88        68.73215
941.27        67.49114
941.66         67.1681
942.05        67.95216
942.44        69.56117
942.84        71.45166
943.23        72.69136
943.62        72.87904
944.01        72.30603
944.40        71.34812
944.79        70.61605
945.18         70.3204
945.57        70.25243
945.97        70.32335
946.36         70.5097
946.75        70.72211
947.14        71.01535
947.53        71.27615
947.92        71.25887
948.31        70.92251
948.70        70.35583
949.09        69.71825
949.48        69.25368
949.87        69.05822
950.26        69.10218
950.65        69.38724
951.04        69.90294
951.43        70.57388
951.82        71.30015
952.21         72.0191
952.60        72.67279
952.99        73.18982
953.38        73.54572
953.77        73.51762
954.16        72.75049
954.55        71.28976
954.94        69.40744
955.33        67.54599
955.72        66.35106
956.11        65.98644
956.50        66.22947
956.89         66.9801
957.28        68.05221
957.66         69.3266
958.05        70.73209
958.44        71.83126
958.83        71.80073
959.22        70.53651
959.61        68.36531
960.00        66.05799
960.39        64.72264
960.78        64.59711
961.16         65.4137
961.55        66.73783
961.94        67.90757
962.33        68.64465
962.72        69.13824
963.11        69.37725
963.49        69.36172
963.88        69.09748
964.27        68.57487
964.66        67.97245
965.04        67.58784
965.43        67.45869
965.82        67.50947
966.21        67.65627
966.60        67.70044
966.98        67.58682
967.37        67.40258
967.76        67.10567
968.15        66.60056
968.53        65.93161
968.92        65.11655
969.31        64.45924
969.69        64.44818
970.08        65.11539
970.47        66.31662
970.86        67.61688
971.24         68.2196
971.63        67.82336
972.02        66.71101
972.40        65.25778
972.79        64.07482
973.17        63.40165
973.56        63.10421
973.95        63.10686
974.33        63.29851
974.72        63.56582
975.11        63.89878
975.49        64.44225
975.88          65.382
976.26        66.72345
976.65        68.28456
977.04         69.4407
977.42        69.22376
977.81        67.54716
978.19        64.76727
978.58         62.1566
978.96        61.37627
979.35         62.7504
979.74        65.90699
980.12        69.94122
980.51        72.38577
980.89        72.55116
981.28        70.95747
981.66        68.63711
982.05        67.40247
982.43        67.72459
982.82        68.98013
983.20        70.80434
983.59        72.41764
983.97        73.58845
984.35        74.57256
984.74        75.05016
985.12        74.60799
985.51        73.23931
985.89        70.99257
986.28        68.73631
986.66        67.74218
987.04        68.39127
987.43        70.34059
987.81        72.65623
988.20        73.50132
988.58        72.43723
988.96        69.87052
989.35         66.9543
989.73        65.51504
990.12        65.96612
990.50        67.82967
990.88        69.93336
991.27        70.37289
991.65        68.81435
992.03        65.97012
992.42         63.0812
992.80        61.77826
993.18        62.56884
993.56        64.82886
993.95        67.72928
994.33        70.14614
994.71        71.36832
995.10        71.72587
995.48        71.27821
995.86        70.13292
996.24        68.54591
996.63        66.57088
997.01        64.59901
997.39        63.20296
997.77        62.51361
998.15        62.43481
998.54        62.91727
998.92        63.78273
999.30        64.87538
999.68        66.20242
1000.06        67.40927
1000.45        67.86424
1000.83        67.55249
1001.21        66.54293
1001.59         65.2636
1001.97        64.54389
1002.35        64.65523
1002.73        65.34532
1003.12        66.46679
1003.50        67.67379
1003.88        68.76928
1004.26        69.83465
1004.64        70.56293
1005.02        70.47634
1005.40        69.58008
1005.78        68.03262
1006.16        66.35984
1006.54        65.55207
1006.92        65.88853
1007.30        67.04208
1007.69         68.5688
1008.07        69.92647
1008.45        70.77664
1008.83         71.3485
1009.21        71.46448
1009.59        70.84144
1009.97        69.52021
1010.35        67.51308
1010.73        65.55226
1011.11        64.95056
1011.49        66.12139
1011.86        69.08353
1012.24        72.64827
1012.62        74.90094
1013.00        75.09594
1013.38         73.4589
1013.76        71.34075
1014.14         71.3275
1014.52        74.12738
1014.90        79.01588
1015.28        83.89327
1015.66        84.99564
1016.04        81.82268
1016.41        76.31794
1016.79        70.96886
1017.17        67.96491
1017.55         67.3855
1017.93        68.42702
1018.31        70.55302
1018.69        71.85322
1019.06        71.24408
1019.44        69.91508
1019.82        68.17514
1020.20         65.8466
1020.58        62.87999
1020.95        58.86028
1021.33        54.85227
1021.71        53.92915
1022.09        57.57177
1022.46        64.73749
1022.84        72.97894
1023.22        79.08914
1023.60        82.18043
1023.97        83.14259
1024.35        81.75934
1024.73        78.04784
