SpectraSmart Spectrum 2.9.0.0
--------- Device Information -----------
Spectrum Name :  反射率_0
Saving Time :  2024/05/01 16:36:29
Spectro-Module Model Name : SE2030-DUVN
Spectro-Module Serial Number : OS361AC55029948
Wavelength Start : 200
Wavelength End : 1025
Wavelength Unit : Wavelength(nm)
Spectrum Unit : Reflectance(%)
-----------Spectrum Setting ------------
Integration Time : 20ms
Average : 10
Boxcar : 0
Background removal :  enabled
linearity correction :  enabled
SC :  disabled
Intensity correction :  disabled
DWT denoise :  enabled
savitzky-golay :  disabled
FFT :  disabled
Running average :  disabled
Kalman :  disabled
High pass :  disabled
---------------BEGIN--------------------
Wavelength(nm)             Reflectance(%)
200.29               0
200.75        59.27324
201.21        326.7099
201.67        -138.889
202.13       -40.37336
202.58       -3.111577
203.04        20.83585
203.50        37.32054
203.96        48.67157
204.42        59.90573
204.88        85.27374
205.34        705.1388
205.80       -61.11483
206.26       -45.86312
206.72       -81.11353
207.18       -324.5566
207.64        415.6518
208.10           169.3
208.55        115.4419
209.01        92.08141
209.47        81.45546
209.93        77.41661
210.39        76.18485
210.85        79.01423
211.31        91.66267
211.77        144.5428
212.23       -301.1488
212.69       -29.53849
213.14       -3.111662
213.60        14.49895
214.06       -83.15381
214.52       -8.130016
214.98        2.932113
215.44        17.20999
215.90        58.40789
216.36        689.4941
216.81       -293.3525
217.27       -384.2428
217.73        774.4445
218.19        148.6996
218.65         96.2635
219.11        95.86311
219.57        143.4821
220.02        350.5661
220.48        173.4835
220.94        62.55882
221.40        36.85808
221.86        30.30805
222.32        32.00385
222.77        39.31372
223.23        52.79766
223.69        70.69783
224.15        78.47782
224.61        70.71814
225.06        57.52962
225.52        48.22264
225.98        45.87103
226.44        49.40708
226.90        58.08241
227.36        69.60495
227.81        74.02621
228.27         68.1205
228.73        58.55405
229.19        51.18659
229.65        49.08353
230.10        51.58344
230.56        57.73484
231.02        65.71375
231.48        69.84598
231.93        67.59315
232.39         62.2579
232.85        56.79084
233.31        53.76305
233.77        53.19497
234.22        53.91898
234.68        55.31731
235.14        56.89943
235.60        58.67326
236.05        61.34359
236.51        65.20714
236.97        69.91545
237.43        74.25536
237.88        77.00345
238.34        78.03465
238.80        79.51212
239.26        82.45654
239.71        87.69224
240.17           93.81
240.63        94.15641
241.08        84.26591
241.54        68.97018
242.00        57.22976
242.46        54.68456
242.91        62.39627
243.37        82.47163
243.83        119.7345
244.28        152.4383
244.74        150.5619
245.20        132.0927
245.66        114.9743
246.11        104.5024
246.57        98.15442
247.03        91.33972
247.48        80.64262
247.94        63.42866
248.40        44.08139
248.85        29.36597
249.31        25.66911
249.77        32.21617
250.22        43.18805
250.68        54.59946
251.14        64.09808
251.59        71.63987
252.05        79.55602
252.51        92.34283
252.96        120.8022
253.42         173.846
253.88        194.9666
254.33        162.9178
254.79        135.3136
255.25        120.5808
255.70        111.6499
256.16        106.0882
256.62        101.4436
257.07        96.46329
257.53        92.35027
257.99        88.98172
258.44        86.36179
258.90        85.17379
259.35        84.63905
259.81        84.73313
260.27        84.86169
260.72        84.40253
261.18        83.65452
261.63        82.45542
262.09        81.31195
262.55        80.19514
263.00         78.9658
263.46        77.78883
263.91        76.41831
264.37        75.04305
264.83        73.59853
265.28        72.12115
265.74        70.70272
266.19        69.08519
266.65        67.41562
267.11        65.64594
267.56         64.0621
268.02        63.23182
268.47        63.14143
268.93        63.56571
269.38        63.97367
269.84        63.46476
270.30        61.88557
270.75        59.54723
271.21        56.98389
271.66        54.85645
272.12        53.42166
272.57        52.38457
273.03        51.66436
273.48        51.05378
273.94        50.48578
274.39        49.98703
274.85        49.44345
275.31        48.56637
275.76        47.34029
276.22        45.93742
276.67        44.53132
277.13        43.53166
277.58         42.9066
278.04        42.56183
278.49        42.29414
278.95        41.94495
279.40        41.39328
279.86        40.77148
280.31        40.02889
280.77        39.22091
281.22        38.32372
281.68        37.42054
282.13        36.53374
282.59        35.81592
283.04        35.25118
283.50        34.86179
283.95        34.59426
284.41        34.43034
284.86        34.32759
285.32        34.30383
285.77        34.33604
286.22        34.45474
286.68        34.64623
287.13        34.85355
287.59        35.02042
288.04        35.01617
288.50        34.85307
288.95        34.53811
289.41         34.1968
289.86        33.90538
290.32        33.73816
290.77        33.67656
291.22        33.70835
291.68         33.7918
292.13        33.92766
292.59        34.18362
293.04        34.60919
293.50        35.32723
293.95        36.33464
294.40        37.59435
294.86        39.02376
295.31        40.50156
295.77        41.96724
296.22        43.40801
296.68        44.84308
297.13        46.29167
297.58        47.78828
298.04        49.35491
298.49        50.94583
298.95        52.53321
299.40        54.08421
299.85        55.60783
300.31        57.23287
300.76        59.12811
301.21        61.33888
301.67        63.83072
302.12        66.34569
302.58        68.50074
303.03        70.16555
303.48         71.4837
303.94        72.80941
304.39        74.55436
304.84        76.86691
305.30         79.5919
305.75        82.43847
306.20        84.98476
306.66        87.11613
307.11        88.91167
307.57        90.55847
308.02        92.20724
308.47        93.96263
308.93        95.76092
309.38        97.52898
309.83          99.266
310.29        100.9698
310.74        102.6402
311.19        104.2483
311.65        105.7136
312.10        106.9988
312.55        108.1157
313.00        109.1832
313.46        110.4015
313.91        111.7839
314.36        113.2654
314.82        114.6196
315.27        115.4948
315.72        115.8068
316.18        115.7214
316.63        115.4534
317.08        115.4136
317.53        115.7198
317.99        116.2661
318.44         116.937
318.89        117.5026
319.35        117.8865
319.80        118.1816
320.25        118.4405
320.70        118.7484
321.16        119.1142
321.61        119.5059
322.06        119.9078
322.51        120.3289
322.97        120.7325
323.42         121.171
323.87        121.5567
324.32        121.7725
324.78        121.7935
325.23        121.6935
325.68        121.5781
326.13        121.6468
326.59        121.9287
327.04        122.4306
327.49        123.0309
327.94          123.55
328.39        123.9219
328.85        124.1325
329.30        124.3501
329.75        124.6746
330.20        125.1424
330.66        125.6846
331.11        126.2436
331.56        126.5714
332.01        126.6388
332.46        126.5238
332.92        126.4171
333.37        126.7647
333.82        127.6265
334.27        128.8986
334.72        130.3191
335.17        131.4214
335.63        132.0089
336.08         132.246
336.53        132.2902
336.98        132.4847
337.43        132.9457
337.88        133.5899
338.34        134.2412
338.79        134.7179
339.24         134.923
339.69        134.9333
340.14        134.9632
340.59         135.332
341.05        136.0851
341.50        137.1366
341.95        138.1816
342.40        138.7361
342.85          138.71
343.30        138.2785
343.75        137.8023
344.20        137.8398
344.66        138.5123
345.11        139.6307
345.56        140.9176
346.01        141.8977
346.46        142.4146
346.91         142.627
347.36        142.6593
347.81        142.6992
348.26        142.8244
348.72        142.9667
349.17        143.1241
349.62        143.3875
350.07        143.7236
350.52        144.0751
350.97        144.3253
351.42        144.2646
351.87         143.864
352.32        143.2534
352.77        142.4415
353.22        141.4489
353.67        140.3455
354.13         139.159
354.58        138.1364
355.03        137.7822
355.48        138.1414
355.93        139.0961
356.38        140.0765
356.83        140.1222
357.28        139.0437
357.73        137.1461
358.18        135.1461
358.63        134.1121
359.08        134.2386
359.53        135.1693
359.98        136.2758
360.43         136.515
360.88         135.601
361.33        133.8931
361.78        131.8984
362.23        130.3307
362.68        129.3739
363.13        128.8046
363.58        128.3321
364.03        127.5262
364.48        126.2775
364.93        124.7385
365.38        123.1954
365.83        122.0418
366.28        121.3487
366.73        120.9948
367.18        120.6235
367.63        119.6867
368.08        118.1095
368.53        116.1044
368.98        114.1442
369.43        112.9049
369.88        112.5007
370.33        112.7135
370.78        113.1039
371.23        112.9113
371.68        111.9332
372.13        110.4388
372.58        108.8201
373.03         107.652
373.48        107.0647
373.93        106.8339
374.38        106.7582
374.83        106.5295
375.28        106.0327
375.72         105.372
376.17         104.591
376.62        103.6708
377.07        102.6488
377.52        101.5213
377.97        100.4258
378.42        99.59483
378.87        99.06944
379.32        98.78964
379.77        98.59432
380.22        98.21705
380.67        97.59546
381.11        96.81697
381.56        95.99308
382.01        95.33761
382.46        94.91623
382.91        94.65234
383.36        94.47266
383.81        94.26791
384.26        93.99118
384.71        93.67363
385.15        93.30019
385.60        92.89903
386.05        92.46461
386.50        91.99133
386.95        91.49809
387.40        91.02736
387.85        90.59271
388.29        90.13672
388.74         89.7518
389.19        89.35545
389.64        88.93247
390.09        88.48396
390.54        88.02121
390.98        87.55113
391.43        87.14598
391.88        86.77724
392.33        86.44438
392.78        86.14931
393.23        85.86319
393.67        85.49908
394.12        85.20943
394.57        84.76493
395.02        84.94808
395.47        84.48781
395.91        83.79525
396.36        83.20156
396.81        83.43544
397.26        83.50331
397.71        83.46609
398.15        83.38924
398.60        83.25931
399.05        82.69332
399.50        81.89789
399.95        81.56981
400.39        81.73816
400.84        81.71129
401.29        81.44546
401.74        81.53732
402.18        81.79463
402.63        81.20273
403.08        80.00722
403.53        79.38292
403.97        79.40567
404.42        79.50224
404.87        79.51102
405.32        79.41818
405.76        79.17709
406.21        78.83361
406.66        78.46687
407.11        78.28637
407.55        78.36239
408.00        78.36349
408.45        78.28387
408.90        78.66127
409.34        79.18281
409.79        78.62292
410.24        77.27908
410.68        76.65186
411.13        76.85282
411.58        77.07237
412.03        77.17696
412.47        77.30046
412.92        77.35296
413.37        77.32963
413.81         77.2318
414.26        77.11667
414.71        76.98291
415.15        76.83595
415.60        76.68587
416.05        76.61845
416.49        76.64724
416.94        76.73589
417.39        76.84053
417.83        76.86819
418.28        76.81165
418.73         76.7227
419.17        76.59385
419.62        76.46481
420.07        76.35075
420.51        76.08505
420.96        75.84668
421.41        76.06291
421.85        76.54806
422.30        76.84698
422.74        76.85159
423.19        76.53944
423.64        76.12717
424.08        76.46446
424.53        77.39206
424.98         77.7839
425.42        77.51476
425.87        77.40173
426.31        77.52762
426.76        77.17492
427.21        76.61006
427.65        77.13187
428.10        78.32118
428.54        78.45078
428.99        77.60635
429.44        76.56948
429.88        75.76314
430.33        76.34805
430.77        77.76947
431.22        77.80128
431.66        76.58076
432.11        76.13715
432.56        76.56979
433.00        77.01578
433.45         77.3912
433.89        77.07907
434.34        76.89125
434.78         78.2515
435.23        77.72658
435.67        77.61104
436.12        77.19981
436.57        77.69342
437.01        78.69211
437.46        80.42623
437.90        79.10995
438.35        78.80827
438.79        78.57942
439.24        78.24731
439.68        77.87292
440.13        77.80591
440.57        78.15618
441.02        78.43349
441.46        78.49802
441.91        79.25146
442.35        80.38914
442.80        79.02584
443.24        78.84503
443.69        78.30743
444.13        78.54337
444.58        78.59865
445.02        78.46187
445.47        78.78191
445.91        79.46688
446.36        79.84941
446.80         79.7832
447.24        80.71212
447.69        80.35211
448.13        80.52798
448.58        80.58984
449.02        80.54753
449.47        80.44857
449.91        80.37978
450.36         80.3978
450.80        80.44006
451.25        80.47659
451.69        80.40079
452.13        80.21117
452.58        79.95665
453.02         79.6773
453.47        79.50215
453.91        79.44681
454.36        79.41859
454.80        79.38456
455.24        79.46886
455.69        79.56487
456.13        79.31531
456.58        78.89934
457.02        78.57713
457.46        78.59585
457.91        79.11917
458.35        79.86985
458.79        79.95635
459.24        79.33813
459.68         78.5827
460.13        78.04607
460.57        77.00904
461.01        77.43954
461.46        77.26089
461.90        77.65034
462.34         77.9419
462.79        77.63318
463.23        77.73296
463.68        77.90759
464.12        77.91434
464.56        77.75912
465.01        77.08919
465.45        76.85488
465.89        77.04723
466.34        77.57327
466.78        77.80847
467.22         76.2978
467.67        76.03026
468.11        76.32422
468.55        76.57859
468.99        76.58276
469.44        76.61123
469.88        76.67435
470.32        76.64249
470.77         76.5342
471.21        76.54022
471.65        76.68612
472.10        76.39375
472.54         76.6264
472.98        76.54849
473.42        76.44054
473.87        76.40097
474.31        76.37817
474.75        76.14027
475.20        75.80818
475.64        75.82641
476.08        76.09691
476.52        76.20612
476.97        76.12607
477.41        75.83478
477.85         75.3864
478.29        76.01161
478.74        75.74944
479.18         76.1138
479.62        75.15579
480.06        75.04581
480.50        75.38861
480.95        74.64898
481.39        75.44157
481.83        74.56804
482.27        75.14419
482.72        75.16381
483.16        75.11569
483.60        75.21218
484.04        75.30235
484.48         75.6833
484.93         75.4076
485.37        76.04023
485.81        76.26785
486.25        76.83527
486.69        76.88251
487.14        74.17529
487.58        73.12582
488.02        75.75033
488.46        74.53123
488.90         74.0113
489.34        74.92388
489.79        74.87099
490.23        74.96861
490.67        74.76317
491.11        74.52489
491.55        74.58738
491.99        74.86649
492.43        74.89186
492.88        74.63589
493.32        74.43798
493.76        74.35157
494.20        74.32207
494.64        74.32356
495.08        74.38377
495.52        74.54693
495.96         74.5551
496.41        74.31995
496.85        75.01697
497.29        75.07788
497.73        74.31007
498.17        73.49606
498.61        73.08713
499.05        73.46768
499.49        74.07269
499.93         74.6571
500.37        74.80605
500.82        74.52787
501.26        74.36684
501.70        74.40301
502.14        74.42783
502.58        74.39558
503.02        74.26295
503.46         74.0415
503.90        73.83774
504.34        73.71109
504.78        73.68378
505.22         73.7514
505.66         73.9202
506.10        74.14551
506.54        74.26893
506.98        74.16624
507.42        74.37124
507.86        73.68593
508.30        73.53587
508.74        73.58445
509.18        73.67508
509.62        73.76252
510.06        73.87258
510.50        73.99368
510.94        74.10471
511.38        74.19357
511.82        74.23763
512.26        74.22702
512.70        74.15938
513.14          74.046
513.58        73.90919
514.02        73.76237
514.46        73.61462
514.90        73.46523
515.34        73.30898
515.78        73.15572
516.22        73.01778
516.66        72.92817
517.10        72.93176
517.54           73.03
517.98        73.20126
518.42        73.39647
518.86        73.53441
519.30        73.59168
519.74        73.58951
520.18        73.55304
520.62        73.52911
521.06        73.53012
521.50        73.53009
521.93        73.53719
522.37        73.55592
522.81        73.58538
523.25        73.63224
523.69        73.64616
524.13        73.54252
524.57         73.3227
525.01        73.02648
525.45        72.74962
525.89        72.64198
526.32        72.73114
526.76        72.96113
527.20        73.25092
527.64        73.47249
528.08        73.58374
528.52        73.61353
528.96        73.56314
529.40        73.47946
529.83        73.38176
530.27        73.11459
530.71        73.01968
531.15        72.97855
531.59        73.09224
532.03        73.32266
532.46        73.57011
532.90        73.68603
533.34        73.63463
533.78        73.41322
534.22        73.11642
534.66        73.01727
535.09         73.0807
535.53        72.99542
535.97        72.77321
536.41        72.69707
536.85        72.77104
537.28        72.83784
537.72        72.86847
538.16        72.88148
538.60        72.86481
539.04        72.80811
539.47        72.73079
539.91        72.70601
540.35        72.72659
540.79        72.80582
541.22        72.90462
541.66        72.85655
542.10        72.83496
542.54        72.71284
542.97        72.58948
543.41        72.56926
543.85        72.65568
544.29        72.81516
544.72        72.97412
545.16        73.06036
545.60        73.03737
546.04        72.92708
546.47        72.77636
546.91        72.67412
547.35        72.65324
547.79        72.67138
548.22        72.65097
548.66        72.63039
549.10        72.60079
549.53        72.23368
549.97        72.22102
550.41        72.21301
550.84        72.40658
551.28        72.70676
551.72        73.02735
552.15        73.23698
552.59        73.30746
553.03        73.25492
553.46         73.1114
553.90         73.0736
554.34        73.16597
554.77        73.17707
555.21        73.02155
555.65        73.39635
556.08        72.90572
556.52        72.72254
556.96        72.48184
557.39        72.32515
557.83        72.30171
558.27        72.28943
558.70        72.25327
559.14        72.53884
559.57        72.48617
560.01        72.57774
560.45        72.58498
560.88        72.69258
561.32        72.87286
561.75        72.53514
562.19        71.92066
562.63        72.05156
563.06        72.76302
563.50        72.72646
563.93        72.03511
564.37        71.87501
564.80        72.24038
565.24         72.5929
565.68        72.77586
566.11         72.7301
566.55        72.51839
566.98        72.25645
567.42        72.10696
567.85        72.26495
568.29        72.65628
568.72        72.82131
569.16        72.81868
569.60        72.81425
570.03        72.70937
570.47        72.97261
570.90        72.91698
571.34        72.30311
571.77        72.64471
572.21        72.80261
572.64        73.26479
573.08        72.78544
573.51        72.88891
573.95        73.32531
574.38         72.9236
574.82        73.16473
575.25        73.57908
575.69         73.8289
576.12        73.61937
576.56        72.53672
576.99        72.95357
577.42         73.4909
577.86        73.06189
578.29        73.54961
578.73        74.53492
579.16        73.49255
579.60         72.5614
580.03        72.67623
580.47        73.37447
580.90        72.44166
581.33        73.67932
581.77        73.49885
582.20        74.03107
582.64        73.65858
583.07        73.33819
583.51         72.7289
583.94        72.38382
584.37        72.65073
584.81        73.48666
585.24        73.73631
585.68        73.47067
586.11        73.67198
586.54        73.30908
586.98        72.58759
587.41        72.46504
587.85        73.43759
588.28        73.52331
588.71        72.20824
589.15        73.14156
589.58        72.37928
590.01         72.2775
590.45        72.39149
590.88        72.94839
591.31        73.12056
591.75         72.8014
592.18        72.40583
592.61         72.1432
593.05        72.16013
593.48        72.86289
593.91        72.92406
594.35         72.4594
594.78        72.11352
595.21        71.79827
595.65        72.92509
596.08        73.14891
596.51        72.55654
596.94        72.33553
597.38        72.01105
597.81        72.20976
598.24         72.0639
598.68        72.72511
599.11        71.73077
599.54        73.15872
599.97        72.68982
600.41        72.17503
600.84        73.05335
601.27        72.46811
601.70         73.0762
602.14        73.32959
602.57        72.92355
603.00        72.59354
603.43        72.26006
603.87        72.64574
604.30        73.02714
604.73        72.48669
605.16        72.24545
605.60        72.03399
606.03        72.30148
606.46        72.76836
606.89        72.68418
607.32        72.10702
607.76        71.87476
608.19        72.05669
608.62        72.59893
609.05        72.45869
609.48        72.58446
609.92        72.21962
610.35        71.61899
610.78        73.41312
611.21         73.4854
611.64        72.64685
612.07        72.99204
612.50         73.3827
612.94         73.3571
613.37        72.50465
613.80        72.89681
614.23        72.36994
614.66        72.44166
615.09        71.80721
615.52        71.93554
615.96        72.46576
616.39         72.7452
616.82        72.73624
617.25         72.5789
617.68        72.64011
618.11        72.63827
618.54        72.64454
618.97        72.49139
619.40        72.26779
619.84        72.11882
620.27        72.05131
620.70        72.37089
621.13         73.0152
621.56        72.14087
621.99        71.67831
622.42        71.94932
622.85        72.29532
623.28        72.35557
623.71        71.91638
624.14        72.57294
624.57        72.42338
625.00        72.62366
625.43        72.68064
625.86        72.44273
626.29        72.59315
626.72        72.15788
627.15        72.21057
627.58        71.89362
628.01        71.52282
628.44        71.80201
628.87        71.92019
629.30        72.04762
629.73        71.94949
630.16        71.98403
630.59         72.1366
631.02        72.20046
631.45        72.16493
631.88        72.10476
632.31        72.02686
632.74        71.90827
633.17        71.78743
633.60        71.72816
634.03        71.74329
634.46        71.82333
634.89        71.92282
635.32        71.95899
635.75        71.91215
636.18        71.80753
636.61        71.68661
637.04        71.61964
637.47         71.6288
637.89        71.67992
638.32        71.71853
638.75        71.75584
639.18        71.78979
639.61        71.59288
640.04        71.61057
640.47        71.52139
640.90        71.46522
641.33        71.41203
641.76        71.35569
642.18        71.38798
642.61        71.50983
643.04         71.5441
643.47        71.40644
643.90         71.9734
644.33        71.68163
644.76        71.67773
645.18        71.57191
645.61        71.75018
646.04         72.1113
646.47        72.07127
646.90        71.69387
647.33         71.5852
647.75        71.77216
648.18        71.83899
648.61        71.80017
649.04        71.89494
649.47        72.04404
649.89        72.13882
650.32        72.10368
650.75         71.6581
651.18        71.03911
651.61          71.133
652.03        71.88013
652.46        72.16407
652.89        71.86489
653.32        71.73961
653.74        72.03201
654.17        71.28392
654.60        72.02109
655.03        72.17743
655.46        71.00838
655.88        71.83417
656.31        80.17684
656.74        78.99045
657.16        72.04985
657.59        70.26595
658.02        71.48924
658.45        71.62283
658.87        72.09389
659.30        71.00335
659.73        71.42529
660.15        72.53237
660.58        71.87107
661.01        71.65449
661.44        71.13628
661.86        71.28287
662.29        71.96398
662.72        72.22456
663.14        72.07415
663.57         72.1852
664.00        72.53719
664.42        72.62954
664.85        72.45187
665.27        72.19237
665.70        71.93482
666.13        71.76268
666.55        71.72414
666.98        71.77964
667.41        71.90065
667.83        72.04625
668.26        72.16982
668.69        72.27333
669.11         72.3597
669.54        72.43852
669.96        72.49407
670.39        72.51832
670.82        72.50652
671.24         72.3455
671.67        72.12514
672.09        72.16663
672.52        72.42789
672.94        72.49701
673.37        72.35498
673.80        72.22389
674.22        72.15196
674.65         72.0806
675.07        72.04037
675.50        72.03274
675.92        72.05759
676.35        72.08234
676.77        72.09904
677.20        72.14405
677.62        72.23148
678.05        72.15482
678.47         72.2538
678.90        72.25965
679.32        72.26031
679.75        72.25186
680.17        72.22867
680.60        72.18875
681.02        72.15002
681.45        72.11607
681.87        72.10162
682.30        72.15134
682.72         72.2459
683.15         72.1834
683.57        72.02208
684.00        72.06573
684.42        72.29317
684.85        72.41013
685.27        72.37891
685.70        72.42252
686.12        72.50472
686.54        72.37774
686.97        72.08721
687.39        72.03086
687.82        72.15864
688.24        71.99148
688.66        71.61611
689.09        71.60052
689.51         72.0173
689.94        72.22106
690.36        72.21368
690.78        72.30646
691.21        72.52099
691.63        72.68356
692.06        72.82867
692.48        73.17614
692.90        73.62337
693.33        73.81453
693.75         73.7175
694.17        73.43489
694.60        73.08995
695.02        72.89771
695.44        72.84399
695.87        72.72409
696.29        72.54723
696.71        72.29925
697.14         72.1167
697.56        72.43723
697.98        73.11745
698.41        73.47501
698.83        73.44076
699.25        73.37704
699.68        73.32406
700.10        73.27052
700.52        73.23769
700.94        73.17212
701.37        73.10503
701.79        73.22408
702.21        73.45298
702.64        73.57978
703.06        73.56886
703.48        73.43355
703.90        73.15527
704.33        73.18021
704.75        72.66797
705.17        72.56767
705.59        72.64188
706.01         72.8427
706.44        73.11606
706.86        73.39266
707.28        73.61686
707.70        73.86108
708.12        74.07399
708.55        74.01559
708.97        73.74763
709.39        73.63776
709.81        73.70113
710.23         73.6639
710.66        73.52995
711.08        73.50774
711.50        73.57217
711.92        73.59658
712.34        73.57037
712.76        73.53172
713.19        73.48608
713.61        73.49486
714.03        73.54475
714.45         73.6117
714.87        73.68644
715.29        73.76021
715.71         73.8248
716.13        73.88392
716.56        73.89664
716.98        73.89069
717.40        73.83795
717.82        73.74327
718.24        73.64898
718.66        73.62744
719.08        73.69743
719.50        73.81603
719.92        73.92299
720.34         73.9959
720.76        74.03032
721.19        73.74194
721.61        73.71982
722.03        73.60765
722.45        73.59351
722.87        73.65021
723.29        73.75017
723.71        73.83762
724.13        73.88611
724.55        73.90208
724.97        73.92564
725.39        74.01984
725.81        74.19077
726.23        74.42243
726.65         74.6114
727.07        74.59421
727.49        74.34866
727.91        73.93134
728.33        73.51328
728.75        73.34492
729.17        73.47735
729.59        73.89125
730.01        74.40703
730.43        74.57018
730.85        74.36803
731.27        74.22919
731.69        74.21003
732.10         74.1172
732.52        73.98923
732.94        73.95923
733.36        74.04031
733.78        74.17767
734.20        74.35599
734.62        74.58086
735.04        74.80406
735.46        74.95499
735.88        75.02502
736.30        74.99097
736.72        74.87563
737.13        74.81197
737.55        75.00283
737.97        74.60816
738.39        73.91942
738.81        74.01515
739.23        74.80345
739.65        75.08726
740.06        74.78299
740.48        74.77271
740.90        75.01652
741.32        75.04768
741.74         74.8629
742.16        74.68324
742.57        74.53201
742.99        74.45394
743.41        74.48039
743.83        74.37142
744.25        74.24936
744.67        74.73101
745.08        75.62054
745.50        75.91705
745.92        75.53043
746.34        74.94366
746.75        74.36397
747.17         73.9795
747.59        73.86063
748.01        73.96336
748.42        74.19931
748.84        74.37607
749.26        74.44865
749.68        74.47291
750.09        74.48344
750.51        74.55405
750.93        74.69025
751.35        74.84586
751.76        75.00737
752.18        75.15788
752.60        75.28743
753.01        75.41964
753.43         75.5058
753.85        75.50957
754.27        75.43759
754.68        75.31763
755.10        75.20652
755.52        75.18661
755.93        75.25546
756.35        75.36917
756.77        75.51495
757.18        75.57947
757.60        75.55767
758.02        75.71932
758.43        75.90385
758.85        75.49323
759.26        74.78181
759.68        74.51855
760.10        75.60646
760.51         76.1298
760.93        76.13588
761.34        76.08342
761.76        76.00443
762.18         75.4781
762.59        74.79517
763.01        74.93182
763.42        75.81104
763.84        76.14253
764.26        75.84184
764.67        75.56992
765.09        75.47143
765.50        75.40532
765.92        75.39639
766.33        75.33081
766.75          75.137
767.16        75.12304
767.58        75.28191
768.00        75.30276
768.41        75.34715
768.83        76.14284
769.24        77.38811
769.66        77.89506
770.07        77.59532
770.49        77.04258
770.90         76.5146
771.32        76.50956
771.73        76.94176
772.15        76.96132
772.56        76.55299
772.97        76.31033
773.39         76.2918
773.80        76.36479
774.22        76.47119
774.63         76.5962
775.05        76.67107
775.46        76.76739
775.88        76.83954
776.29        76.84912
776.70        76.79918
777.12        76.76833
777.53        76.78771
777.95        76.80383
778.36        76.81956
778.77        76.81145
779.19        76.77866
779.60        76.75343
780.02        76.71574
780.43        76.64587
780.84         76.5998
781.26        76.47653
781.67        76.30634
782.09        76.55141
782.50        77.09836
782.91        76.46182
783.33        76.09839
783.74         75.9611
784.15        76.50808
784.57        77.13512
784.98        77.73347
785.39        78.28638
785.81        78.70325
786.22        78.74629
786.63        78.89961
787.04        78.85388
787.46        78.80785
787.87        78.69176
788.28        78.59174
788.70        78.60064
789.11        78.70102
789.52        78.91998
789.93         79.1538
790.35         79.1708
790.76        78.98121
791.17        78.72507
791.58        78.48453
792.00        78.31607
792.41        78.27916
792.82        78.27968
793.23        78.24744
793.65        78.43298
794.06         78.7207
794.47        78.27881
794.88         77.3223
795.29        77.66374
795.71        77.65202
796.12        78.28207
796.53        78.83979
796.94        79.12275
797.35        78.98707
797.76        78.53313
798.18        78.02709
798.59        77.79021
799.00        77.92202
799.41        78.31222
799.82        78.80729
800.23        79.14721
800.64        79.24095
801.06        79.15028
801.47         78.9745
801.88        78.76972
802.29        78.58284
802.70        78.38171
803.11        78.21767
803.52        78.18251
803.93         78.3046
804.34        78.57583
804.75         78.9091
805.17        79.22167
805.58        79.52505
805.99        79.50024
806.40        79.25259
806.81         79.6776
807.22        80.47746
807.63        80.00056
808.04        78.49831
808.45        77.84982
808.86        78.21979
809.27         78.5935
809.68        78.80248
810.09        79.02233
810.50        79.17987
810.91        79.23125
811.32         79.2085
811.73        79.16582
812.14        79.13074
812.55         79.0935
812.96        79.08358
813.37        79.14951
813.78        79.29752
814.19        79.51535
814.60        79.76389
815.01        79.97712
815.42        80.13603
815.83        80.25631
816.24        80.32887
816.65        80.33853
817.05        80.29362
817.46        80.17711
817.87         80.0603
818.28        80.00449
818.69        80.02065
819.10        80.08598
819.51        80.18623
819.92        80.28664
820.33        80.36018
820.74        80.41319
821.14        80.39863
821.55        80.27563
821.96        80.03562
822.37        79.71454
822.78        79.39693
823.19        79.23461
823.60        79.28601
824.00        79.53885
824.41        79.90236
824.82        80.33692
825.23        80.78355
825.64        81.21581
826.04        81.59901
826.45        81.79434
826.86        81.80289
827.27        81.66155
827.68        81.35948
828.08        80.91541
828.49         80.3381
828.90        79.65761
829.31         79.0741
829.72        78.88632
830.12        79.18525
830.53         79.8714
830.94        80.65229
831.35        80.93389
831.75        80.58796
832.16        79.74207
832.57        78.85654
832.97        78.63192
833.38        79.19144
833.79        80.29161
834.20        81.53111
834.60        82.22796
835.01        82.14171
835.42         81.5305
835.82        80.63599
836.23        79.81936
836.64        79.23263
837.04        78.78867
837.45        78.50581
837.86         78.4965
838.26        78.76373
838.67        79.25059
839.08        79.81665
839.48        80.17372
839.89         80.2235
840.29        80.03642
840.70        79.70066
841.11        79.33988
841.51        79.03195
841.92        78.71988
842.33        78.50455
842.73        78.55582
843.14         78.8491
843.54        79.41785
843.95        80.04896
844.35        80.45394
844.76        80.51086
845.17        80.27151
845.57        79.95661
845.98        79.91872
846.38        80.25163
846.79         80.8347
847.19        81.40334
847.60        81.41029
848.00        80.78293
848.41        79.70818
848.81        78.60501
849.22        78.08054
849.62        78.29116
850.03         79.0225
850.43        79.98616
850.84        80.50881
851.24        80.46591
851.65        80.02505
852.05        79.47292
852.46        79.23598
852.86        79.41312
853.27        79.81734
853.67        80.31083
854.07        80.94093
854.48        81.60023
854.88        82.43042
855.29        83.03088
855.69        82.93082
856.10        81.91944
856.50         80.2836
856.90        78.60466
857.31        77.72588
857.71        77.81514
858.12        78.59546
858.52        79.77367
858.92        80.52819
859.33        80.55004
859.73         80.1282
860.13        79.41827
860.54        78.70297
860.94        78.11555
861.34        77.53891
861.75        77.08567
862.15        77.03564
862.55         77.3981
862.96        78.10058
863.36        78.90094
863.76        79.28909
864.17        79.13392
864.57        78.57957
864.97        77.85246
865.38        77.34709
865.78        77.21578
866.18        77.32272
866.58        77.52974
866.99        77.59411
867.39        77.48301
867.79         77.2951
868.19        77.08551
868.60         76.8844
869.00        76.70413
869.40          76.508
869.80        76.39772
870.21        76.56359
870.61        77.07249
871.01        77.79816
871.41        78.44345
871.81        78.56583
872.22        78.08455
872.62        77.13774
873.02        76.05885
873.42        75.40022
873.82        75.33924
874.22          75.762
874.63        76.40141
875.03        76.81551
875.43        76.89145
875.83          76.745
876.23        76.65168
876.63        77.04376
877.03         77.9806
877.44         79.2644
877.84        80.51636
878.24        81.06528
878.64        80.75698
879.04        79.82246
879.44        78.67793
879.84        77.95301
880.24        77.79871
880.64        78.01578
881.04        78.37436
881.44        78.48988
881.84        78.25743
882.24        77.85078
882.65        77.32086
883.05        76.87473
883.45         76.5628
883.85        76.30569
884.25        76.23932
884.65        76.57961
885.05          77.322
885.45        78.41681
885.85        79.51208
886.25        79.98966
886.65        79.69518
887.05        78.78398
887.45        77.71439
887.85        77.22393
888.25        77.49107
888.65         78.3142
889.04        79.26625
889.44        79.62415
889.84        79.22888
890.24        78.31298
890.64        77.30699
891.04         76.8213
891.44        76.98634
891.84        77.62864
892.24        78.34557
892.64        78.46873
893.04        77.85677
893.44        76.74881
893.83        75.64407
894.23        75.29731
894.63        75.82827
895.03        76.99747
895.43        78.32281
895.83         78.9309
896.23        78.58327
896.63        77.61398
897.02        76.42618
897.42        75.71273
897.82        75.57879
898.22        75.86286
898.62        76.40768
899.01        76.98686
899.41        77.43381
899.81        77.83327
900.21        78.27805
900.61        78.90406
901.00        79.70181
901.40        80.55116
901.80        81.20332
902.20        81.30794
902.59        80.83279
902.99        79.91764
903.39        78.89704
903.79        78.30827
904.18        78.27345
904.58        78.64659
904.98        79.18403
905.38        79.51388
905.77        79.52202
906.17        79.35945
906.57        79.05771
906.96        78.68163
907.36        78.27367
907.76        77.82017
908.15        77.48559
908.55        77.49515
908.95        77.90179
909.34        78.66054
909.74         79.5106
910.14        80.09145
910.53        80.28192
910.93        80.15794
911.33        79.88963
911.72        79.76276
912.12        79.86674
912.52        80.09769
912.91        80.29353
913.31        80.18306
913.70        79.73463
914.10        79.08576
914.49        78.43526
914.89        78.05595
915.29         78.0206
915.68        78.22168
916.08        78.57542
916.47        78.96081
916.87        79.29568
917.26        79.61713
917.66        79.82166
918.05        79.74355
918.45        79.36929
918.84         78.7746
919.24        78.15659
919.64        77.96792
920.03        78.33141
920.42        79.08494
920.82        79.96399
921.21        80.58965
921.61          80.812
922.00        80.72475
922.40        80.40707
922.79        80.10779
923.19        79.89921
923.58        79.73096
923.98        79.48761
924.37        78.92376
924.77        78.06817
925.16        77.01978
925.55         76.0848
925.95        75.73972
926.34        76.13663
926.74        77.07711
927.13        78.32082
927.52        79.37866
927.92        80.06086
928.31        80.47872
928.70        80.67476
929.10        80.76945
929.49        80.83643
929.89         80.8063
930.28         80.6917
930.67        80.48692
931.07        80.19695
931.46        79.85449
931.85        79.55679
932.24        79.44364
932.64        79.53563
933.03        79.83575
933.42        80.12395
933.82        80.07019
934.21        79.63001
934.60        78.90416
934.99        78.24802
935.39        78.17286
935.78        78.81285
936.17        80.03168
936.56        81.39882
936.96        82.11691
937.35        81.98626
937.74        81.18844
938.13        80.19488
938.53        79.63767
938.92        79.61043
939.31        79.96877
939.70        80.43788
940.09        80.53144
940.49        80.13814
940.88        79.47604
941.27        78.80814
941.66        78.51566
942.05        78.68591
942.44        79.17234
942.84        79.80365
943.23        80.38268
943.62        80.74887
944.01        81.00022
944.40        81.10419
944.79         81.0219
945.18        80.77805
945.57        80.33463
945.97        79.90861
946.36        79.95325
946.75        80.50227
947.14        81.47212
947.53        82.43459
947.92        82.61314
948.31        81.84668
948.70         80.4163
949.09        78.90933
949.48        78.20496
949.87        78.52061
950.26        79.61309
950.65        81.07357
951.04        82.16965
951.43        82.61446
951.82        82.56393
952.21        82.28172
952.60        82.18731
952.99        82.36547
953.38        82.65371
953.77        82.77094
954.16        82.26482
954.55        81.10921
954.94        79.60753
955.33        78.14967
955.72        77.28001
956.11        77.13837
956.50        77.50887
956.89        78.28896
957.28        79.32127
957.66        80.50734
958.05        81.73793
958.44        82.67396
958.83        82.65275
959.22        81.60003
959.61        79.82107
960.00        77.87889
960.39        76.56981
960.78        76.09576
961.16        76.27517
961.55        76.95526
961.94        77.96979
962.33        79.15914
962.72        80.56853
963.11        81.82893
963.49        82.27935
963.88        81.72244
964.27        80.38745
964.66        78.80306
965.04         77.7281
965.43        77.32628
965.82        77.40629
966.21        77.76251
966.60        77.98037
966.98        77.92844
967.37        77.74577
967.76        77.52855
968.15        77.37929
968.53        77.34961
968.92        77.34169
969.31        77.39592
969.69        77.63457
970.08        78.00312
970.47        78.44941
970.86        78.81631
971.24        78.83798
971.63        78.38866
972.02        77.63873
972.40        76.68025
972.79        75.68489
973.17        74.79064
973.56        74.01702
973.95        73.52755
974.33        73.57487
974.72        74.11694
975.11        75.02644
975.49        76.21389
975.88        77.38885
976.26        78.42175
976.65        79.27583
977.04        79.60069
977.42        78.85215
977.81        77.06144
978.19        74.43549
978.58        72.11221
978.96        71.54562
979.35        72.99294
979.74        76.18054
980.12         80.2095
980.51        82.56922
980.89        82.60853
981.28        80.80813
981.66        78.35876
982.05        77.32304
982.43        78.21313
982.82        80.33195
983.20        83.05293
983.59        85.12157
983.97        86.17587
984.35        86.57404
984.74         86.2901
985.12        85.38421
985.51        83.98781
985.89        82.06274
986.28        80.20423
986.66        79.23515
987.04        79.45346
987.43        80.65722
987.81        82.31373
988.20        83.24039
988.58        83.12667
988.96        82.09886
989.35        80.79034
989.73        80.22071
990.12        80.58212
990.50        81.66029
990.88        82.58421
991.27        81.97734
991.65        79.72813
992.03        76.39653
992.42         73.2408
992.80        71.91035
993.18        72.86868
993.56        75.52688
993.95        78.85196
994.33        81.33118
994.71        82.16056
995.10        81.79102
995.48        80.53345
995.86        78.93839
996.24        77.37873
996.63        75.71775
997.01        74.27018
997.39        73.51969
997.77        73.52209
998.15        74.24304
998.54         75.3494
998.92        76.16225
999.30        76.42941
999.68        76.29297
1000.06         75.9408
1000.45        75.70911
1000.83        75.86034
1001.21        76.18592
1001.59        76.61622
1001.97        77.06718
1002.35         77.4631
1002.73          77.813
1003.12        78.09413
1003.50        78.19501
1003.88        78.12951
1004.26        77.96954
1004.64        77.66446
1005.02        77.12441
1005.40        76.38733
1005.78        75.49572
1006.16        74.76228
1006.54        74.72999
1006.92         75.4875
1007.30        76.81961
1007.69        78.20167
1008.07        79.01957
1008.45        78.97674
1008.83        78.28274
1009.21        77.18187
1009.59        76.09473
1009.97        75.25237
1010.35        74.62201
1010.73        74.33412
1011.11        74.58868
1011.49        75.48515
1011.86        77.22179
1012.24        79.49617
1012.62        82.15262
1013.00        84.99396
1013.38        87.81199
1013.76        90.45192
1014.14        92.85654
1014.52        94.81009
1014.90        96.10011
1015.28         96.1217
1015.66         94.0825
1016.04         90.4024
1016.41        86.06608
1016.79        82.04237
1017.17         78.6727
1017.55        75.69695
1017.93        72.59224
1018.31        69.82239
1018.69        69.23998
1019.06         71.3332
1019.44        74.93851
1019.82        78.00192
1020.20        78.91777
1020.58        77.78595
1020.95        74.87337
1021.33        71.01158
1021.71        68.74325
1022.09        69.57489
1022.46        72.78026
1022.84        77.06955
1023.22        80.79474
1023.60        83.37559
1023.97        85.40257
1024.35        86.36584
1024.73        85.39942
