SpectraSmart Spectrum 2.9.0.0
--------- Device Information -----------
Spectrum Name :  反射率_0
Saving Time :  2024/05/01 15:50:14
Spectro-Module Model Name : SE2030-DUVN
Spectro-Module Serial Number : OS361AC55029948
Wavelength Start : 200
Wavelength End : 1025
Wavelength Unit : Wavelength(nm)
Spectrum Unit : Reflectance(%)
-----------Spectrum Setting ------------
Integration Time : 20ms
Average : 10
Boxcar : 0
Background removal :  enabled
linearity correction :  enabled
SC :  disabled
Intensity correction :  disabled
DWT denoise :  enabled
savitzky-golay :  disabled
FFT :  disabled
Running average :  disabled
Kalman :  disabled
High pass :  disabled
---------------BEGIN--------------------
Wavelength(nm)             Reflectance(%)
200.29               0
200.75       -91.34509
201.21       -89.96092
201.67       -18.02375
202.13      0.02141147
202.58        21.39123
203.04        40.70541
203.50        55.58259
203.96        64.67548
204.42        71.02467
204.88         82.6917
205.34        365.5243
205.80        8.587625
206.26         6.03292
206.72       -29.31473
207.18       -247.3532
207.64        425.0586
208.10        206.9106
208.55        162.6908
209.01        141.7446
209.47        123.2459
209.93        103.5579
210.39        80.58385
210.85        59.43551
211.31        49.36356
211.77        65.19537
212.23       -160.6193
212.69        -31.5522
213.14       -21.21994
213.60       -16.63591
214.06       -11.82341
214.52       -10.80325
214.98       -7.259212
215.44       0.2376177
215.90        22.47175
216.36         363.831
216.81       -169.3043
217.27       -222.9073
217.73        439.4023
218.19        81.77841
218.65        52.48369
219.11        54.29145
219.57        87.61219
220.02        237.7523
220.48        131.5412
220.94        50.89052
221.40        30.75476
221.86        24.81721
222.32        24.78992
222.77        28.35715
223.23        35.31109
223.69        44.31561
224.15        47.04539
224.61        41.30259
225.06        33.28307
225.52        27.78409
225.98        26.08518
226.44        27.43513
226.90        31.14826
227.36        36.48609
227.81         39.5459
228.27        38.36443
228.73        35.35802
229.19        32.45721
229.65        30.47721
230.10        29.15547
230.56        28.18991
231.02        27.43094
231.48        27.00427
231.93        27.02205
232.39        27.46406
232.85        28.44695
233.31        30.15515
233.77         32.3496
234.22        34.80311
234.68        36.94385
235.14        38.27726
235.60        38.81211
236.05         38.6884
236.51        38.19862
236.97         38.4694
237.43        40.21889
237.88        43.16515
238.34        46.06409
238.80        48.08115
239.26        49.18075
239.71        49.65619
240.17        49.47377
240.63        49.20454
241.08        49.76527
241.54        51.53912
242.00        54.24466
242.46        58.32233
242.91         65.4409
243.37        76.89116
243.83        97.09607
244.28         120.093
244.74        127.3789
245.20        123.4195
245.66        116.5936
246.11        109.8929
246.57        102.4468
247.03        90.66593
247.48        70.98357
247.94        45.71926
248.40        26.05407
248.85        16.79771
249.31        20.87873
249.77         33.1756
250.22         46.8298
250.68        59.45243
251.14        68.93211
251.59         75.0446
252.05        79.32204
252.51        82.81682
252.96        87.17998
253.42        96.24484
253.88        101.5805
254.33        95.75194
254.79        88.09262
255.25        79.62435
255.70        71.09606
256.16        64.32011
256.62        59.82503
257.07        58.24721
257.53        58.92826
257.99        60.20339
258.44        61.01793
258.90        61.02016
259.35        59.92056
259.81        58.32199
260.27        56.40334
260.72        54.52534
261.18        53.09952
261.63        51.79647
262.09        50.63071
262.55        49.24846
263.00        47.58653
263.46        45.89861
263.91        44.30906
264.37        43.22772
264.83        42.58544
265.28        42.21736
265.74        41.87845
266.19        41.02135
266.65        39.69836
267.11         38.0285
267.56        36.41447
268.02        35.56632
268.47        35.55946
268.93        36.11661
269.38        36.77391
269.84        36.72993
270.30        35.81563
270.75        34.29253
271.21        32.55101
271.66        31.05996
272.12        30.02453
272.57        29.24507
273.03        28.67062
273.48          28.183
273.94        27.74692
274.39        27.39767
274.85        27.09315
275.31        26.70792
275.76        26.21624
276.22        25.66781
276.67        25.09835
277.13         24.6546
277.58        24.30451
278.04        24.03271
278.49        23.74906
278.95        23.41932
279.40        22.99563
279.86        22.54304
280.31        22.05784
280.77        21.59931
281.22        21.15363
281.68         20.7612
282.13        20.38535
282.59        20.03883
283.04        19.70504
283.50        19.41669
283.95        19.20348
284.41        19.14983
284.86        19.24128
285.32        19.44036
285.77        19.66938
286.22        19.84615
286.68         19.9553
287.13        20.00783
287.59        20.02024
288.04        19.98139
288.50        19.92826
288.95        19.83246
289.41        19.77671
289.86        19.82092
290.32        19.99193
290.77        20.27078
291.22         20.5891
291.68        20.82849
292.13        20.98217
292.59        21.13691
293.04        21.37711
293.50        21.87671
293.95        22.66283
294.40          23.689
294.86        24.90468
295.31         26.2372
295.77        27.62896
296.22         29.0705
296.68         30.5143
297.13        31.88648
297.58        33.19956
298.04        34.49878
298.49        35.82311
298.95        37.27017
299.40         38.8405
299.85        40.50467
300.31        42.29193
300.76        44.24054
301.21        46.36812
301.67        48.68817
302.12        51.05472
302.58        53.24397
303.03        55.16058
303.48        56.87768
303.94        58.62527
304.39         60.6729
304.84        63.13221
305.30         65.8987
305.75        68.76714
306.20        71.43607
306.66        73.80566
307.11        75.90412
307.57        77.84664
308.02        79.70439
308.47        81.55726
308.93        83.38097
309.38        85.12688
309.83        86.81724
310.29        88.46826
310.74        90.07809
311.19        91.65607
311.65        93.18359
312.10        94.63303
312.55        95.99953
313.00        97.33435
313.46        98.72719
313.91        100.1687
314.36        101.6242
314.82        102.9344
315.27        103.8587
315.72         104.338
316.18        104.4901
316.63        104.4775
317.08        104.6268
317.53        105.0339
317.99        105.6241
318.44        106.3049
318.89        106.8842
319.35        107.3032
319.80         107.645
320.25        107.9604
320.70        108.3335
321.16        108.7718
321.61        109.2381
322.06         109.723
322.51        110.2418
322.97        110.7525
323.42        111.2955
323.87         111.751
324.32         111.948
324.78        111.8583
325.23        111.5815
325.68        111.2714
326.13         111.202
326.59         111.429
327.04         111.933
327.49        112.5889
327.94        113.2031
328.39        113.6929
328.85        114.0508
329.30        114.3896
329.75        114.7311
330.20        115.0951
330.66        115.4337
331.11        115.7512
331.56         115.926
332.01        115.9619
332.46        115.9008
332.92        115.8857
333.37        116.2659
333.82        117.0748
334.27        118.2469
334.72        119.5311
335.17        120.4768
335.63        120.9135
336.08        120.9984
336.53        120.9455
336.98         121.185
337.43        121.8409
337.88        122.7971
338.34        123.7995
338.79        124.5206
339.24        124.8184
339.69        124.8041
340.14        124.7286
340.59        124.9793
341.05        125.6334
341.50        126.5865
341.95        127.5545
342.40        128.0868
342.85        128.0973
343.30        127.7616
343.75        127.4015
344.20        127.5064
344.66        128.1837
345.11        129.2593
345.56        130.4917
346.01         131.471
346.46        132.0518
346.91        132.3623
347.36        132.4932
347.81        132.5836
348.26        132.7006
348.72        132.8012
349.17        132.8899
349.62        133.0645
350.07        133.3022
350.52        133.5387
350.97        133.6985
351.42        133.6385
351.87        133.3353
352.32        132.8995
352.77        132.2585
353.22        131.3057
353.67        130.0909
354.13        128.6807
354.58        127.4209
355.03        126.9598
355.48        127.3737
355.93        128.5012
356.38        129.6907
356.83        129.8444
357.28        128.7364
357.73        126.7177
358.18        124.5739
358.63        123.4754
359.08         123.638
359.53        124.6666
359.98        125.8858
360.43         126.176
360.88        125.2312
361.33        123.4482
361.78        121.3625
362.23        119.7245
362.68        118.7357
363.13        118.1618
363.58        117.7273
364.03         117.027
364.48        115.9467
364.93        114.6246
365.38        113.3051
365.83        112.3201
366.28        111.7211
366.73        111.3954
367.18        111.0096
367.63        110.0579
368.08        108.4819
368.53        106.4913
368.98        104.5417
369.43        103.2807
369.88         102.823
370.33        102.9629
370.78        103.3054
371.23        103.1637
371.68        102.3416
372.13        101.0698
372.58        99.66856
373.03        98.60876
373.48        97.99712
373.93        97.64541
374.38        97.38943
374.83        96.98717
375.28        96.35754
375.72        95.59339
376.17        94.75594
376.62        93.85566
377.07        92.92792
377.52        91.96445
377.97        91.05213
378.42        90.34048
378.87        89.84973
379.32        89.53325
379.77         89.2821
380.22        88.91505
380.67        88.38655
381.11        87.76006
381.56        87.08517
382.01        86.47285
382.46        85.97129
382.91        85.54366
383.36        85.19864
383.81        84.95036
384.26         84.7754
384.71        84.65908
385.15        84.51439
385.60        84.25233
386.05        83.83853
386.50        83.30841
386.95        82.72026
387.40        82.17847
387.85        81.71606
388.29        81.25342
388.74        80.87585
389.19        80.51208
389.64        80.14533
390.09        79.78182
390.54        79.39594
390.98        78.95567
391.43        78.52548
391.88        78.03283
392.33        77.53203
392.78        77.28663
393.23        77.22215
393.67        76.84215
394.12        76.27109
394.57        76.05268
395.02        76.07796
395.47        75.64406
395.91        74.87789
396.36        74.46635
396.81        74.45118
397.26        74.69593
397.71        74.68593
398.15        74.54558
398.60        74.22152
399.05        73.65429
399.50        73.06632
399.95        72.94419
400.39        73.26443
400.84        73.46986
401.29        73.42206
401.74        73.27286
402.18        72.98579
402.63        72.38646
403.08        71.65894
403.53         71.1666
403.97        70.96147
404.42        70.94493
404.87         71.0115
405.32        70.97148
405.76        70.76213
406.21        70.56929
406.66        70.39908
407.11        70.03542
407.55        69.63294
408.00        69.64422
408.45        69.98705
408.90        70.14143
409.34        69.95148
409.79        69.42551
410.24        68.74535
410.68        68.35802
411.13        68.33147
411.58         68.4041
412.03        68.49511
412.47        68.59028
412.92        68.62273
413.37        68.61279
413.81        68.56821
414.26         68.5586
414.71        68.57703
415.15        68.61072
415.60        68.62943
416.05        68.64652
416.49        68.65797
416.94        68.65363
417.39        68.62378
417.83        68.53503
418.28         68.3956
418.73        68.23875
419.17        68.07659
419.62        67.93075
420.07        67.80677
420.51        67.67824
420.96        67.64427
421.41        67.72202
421.85        67.87978
422.30        68.31222
422.74        68.81396
423.19        68.78697
423.64         68.3466
424.08        68.38994
424.53        68.90363
424.98        69.14593
425.42        69.02982
425.87        69.13312
426.31        69.40171
426.76        68.95581
427.21        68.11597
427.65        68.48804
428.10        69.76048
428.54        70.13014
428.99        69.63374
429.44        69.02705
429.88         68.5798
430.33        69.25269
430.77        70.51008
431.22         70.1706
431.66        68.51157
432.11        67.99464
432.56        68.70766
433.00        69.21481
433.45        69.30852
433.89        69.47499
434.34        68.60719
434.78        70.48727
435.23        69.71415
435.67        69.87138
436.12        69.61742
436.57         69.9779
437.01        70.78787
437.46        71.42548
437.90        70.98322
438.35        70.86155
438.79         70.8394
439.24        70.55439
439.68        70.11855
440.13        70.13895
440.57        70.64088
441.02        70.91732
441.46         70.8481
441.91        71.29781
442.35         72.1055
442.80        71.18807
443.24        71.33203
443.69        71.17596
444.13        71.49254
444.58         71.6114
445.02        71.50628
445.47        71.59203
445.91         71.8727
446.36        72.04354
446.80        72.03369
447.24        72.75159
447.69        72.70951
448.13        72.88602
448.58        72.89192
449.02        72.92323
449.47        73.01046
449.91        73.04652
450.36        73.06858
450.80        73.11712
451.25        73.17439
451.69        73.12206
452.13        72.95859
452.58        72.73476
453.02        72.48923
453.47         72.2925
453.91         72.1441
454.36        72.07978
454.80        72.09482
455.24        71.84687
455.69        71.90455
456.13        71.69895
456.58        71.22667
457.02        70.91846
457.46        70.97303
457.91        71.31763
458.35        71.78384
458.79        71.79374
459.24        71.30132
459.68        70.71162
460.13        70.33718
460.57        69.34693
461.01        69.43542
461.46        69.50478
461.90        69.86647
462.34        69.40861
462.79        68.71985
463.23        68.84141
463.68        69.69988
464.12        69.94814
464.56        69.52991
465.01        69.10841
465.45        68.78381
465.89        68.92287
466.34        69.30395
466.78        69.21021
467.22        68.13412
467.67         67.8148
468.11        67.91643
468.55        68.15332
468.99        68.31743
469.44        68.40042
469.88        68.37013
470.32        68.26591
470.77        68.12805
471.21        67.99648
471.65        67.88311
472.10         67.8004
472.54         67.7188
472.98        67.61138
473.42        67.47109
473.87        67.35752
474.31        67.26199
474.75        67.13885
475.20         67.0247
475.64        67.13833
476.08        67.38844
476.52        67.37116
476.97        67.02087
477.41        67.26469
477.85        66.06194
478.29        66.96081
478.74        66.73777
479.18        66.95853
479.62         66.1869
480.06        66.08676
480.50        66.48073
480.95        65.93588
481.39        66.73038
481.83        65.90402
482.27        66.33356
482.72        66.20748
483.16        66.17778
483.60        66.26739
484.04        66.45071
484.48        66.40836
484.93        66.35502
485.37        67.10557
485.81        66.74196
486.25        67.55946
486.69        68.26876
487.14        66.09038
487.58         64.5117
488.02         66.7371
488.46        65.71762
488.90        65.15225
489.34        65.63375
489.79        65.37959
490.23        65.37424
490.67        65.34169
491.11        65.42115
491.55        65.62148
491.99        65.83812
492.43        65.88081
492.88        65.72034
493.32        65.48476
493.76        65.23669
494.20        65.07632
494.64        65.03031
495.08        64.98363
495.52        64.95885
495.96        65.10773
496.41        65.35052
496.85        65.46214
497.29        65.34001
497.73        65.03349
498.17        64.64812
498.61         64.1957
499.05        63.87675
499.49        64.24201
499.93        65.05583
500.37        65.24202
500.82        64.82018
501.26        64.71009
501.70        64.91336
502.14        65.18166
502.58        64.77227
503.02        64.63946
503.46        64.61412
503.90         64.2879
504.34        64.29899
504.78        64.28906
505.22         64.4502
505.66        64.70378
506.10         64.9658
506.54        65.15373
506.98        65.18304
507.42        64.92881
507.86        64.50889
508.30        64.26991
508.74        64.26748
509.18        64.34658
509.62        64.45744
510.06        64.56975
510.50        64.65223
510.94        64.71422
511.38        64.75459
511.82        64.76881
512.26        64.75272
512.70        64.69483
513.14        64.59892
513.58        64.47685
514.02        64.33743
514.46         64.1936
514.90         64.0434
515.34        63.87781
515.78        63.70884
516.22        63.55222
516.66        63.44542
517.10        63.44064
517.54        63.53616
517.98        63.70346
518.42        63.89612
518.86        64.01451
519.30        64.02711
519.74        64.02798
520.18        64.01501
520.62        63.82689
521.06        63.55449
521.50        63.56018
521.93        63.80474
522.37         63.8849
522.81        63.77908
523.25        63.72405
523.69        63.71647
524.13        63.64618
524.57        63.52047
525.01         63.3714
525.45        63.25251
525.89        63.24968
526.32        63.37315
526.76        63.58666
527.20        63.82045
527.64        63.96561
528.08        63.99147
528.52        63.93416
528.96        63.82881
529.40        63.73399
529.83        63.66521
530.27        63.61669
530.71        63.59597
531.15        63.63184
531.59        63.72149
532.03        63.85609
532.46        63.97861
532.90        64.01439
533.34        63.95064
533.78        63.76682
534.22        63.52617
534.66        63.43686
535.09        63.46219
535.53        63.34522
535.97        63.11193
536.41        63.02998
536.85        63.10749
537.28         63.1979
537.72        63.26351
538.16         63.3026
538.60         63.2984
539.04        63.24691
539.47        63.16783
539.91        63.13259
540.35        63.13827
540.79         63.1886
541.22        63.25067
541.66         63.2123
542.10         63.1767
542.54        63.07381
542.97        62.97238
543.41        62.95921
543.85        63.03502
544.29        63.17043
544.72         63.3061
545.16        63.38507
545.60        63.37562
546.04        63.29383
546.47        63.16957
546.91        63.06347
547.35        63.00217
547.79        62.95659
548.22        62.87484
548.66        62.80979
549.10        62.75829
549.53        62.43657
549.97        62.43357
550.41        62.41478
550.84        62.54857
551.28        62.80009
551.72        63.09682
552.15         63.2617
552.59        63.27013
553.03        63.29271
553.46        63.15776
553.90        63.13514
554.34         63.1847
554.77        63.18025
555.21        63.00662
555.65        63.32712
556.08        62.92978
556.52        62.82944
556.96        62.68158
557.39         62.5641
557.83        62.50848
558.27        62.41317
558.70        62.30742
559.14        62.55503
559.57        62.59086
560.01        62.89508
560.45        63.15843
560.88        63.15942
561.32        62.96555
561.75         62.5817
562.19        62.20469
562.63        62.35915
563.06         62.8867
563.50        62.74957
563.93        62.06477
564.37        61.97051
564.80        62.39655
565.24         62.5973
565.68        62.55986
566.11        62.36718
566.55        62.65353
566.98        62.69285
567.42        62.70295
567.85        62.72393
568.29        62.77414
568.72        62.85571
569.16        63.03356
569.60        63.02564
570.03        62.74314
570.47        63.12668
570.90        63.32509
571.34        62.54499
571.77        63.14442
572.21        63.18795
572.64          63.418
573.08        63.29506
573.51        63.09907
573.95        63.77795
574.38        63.28492
574.82        63.73817
575.25        63.72371
575.69         63.9934
576.12        63.56736
576.56        63.00131
576.99        63.53067
577.42        63.59952
577.86        63.48283
578.29        63.58826
578.73        64.50082
579.16         64.0872
579.60        62.84178
580.03        62.75831
580.47        63.51244
580.90        62.62674
581.33        63.61913
581.77        63.55026
582.20        64.32124
582.64        64.34756
583.07        64.02654
583.51        63.46434
583.94        63.04436
584.37        63.13453
584.81        63.72511
585.24        64.02317
585.68        63.88687
586.11        63.74472
586.54        63.71126
586.98        63.00537
587.41        62.33265
587.85        63.57723
588.28        63.88133
588.71        62.53699
589.15        63.33759
589.58        62.55978
590.01        62.35459
590.45        62.28946
590.88        62.60794
591.31        62.49839
591.75        62.77255
592.18        62.44453
592.61        61.91484
593.05        62.52399
593.48        62.58137
593.91        63.18664
594.35        62.72272
594.78        62.43261
595.21        62.02463
595.65        62.62785
596.08        62.89579
596.51        62.37439
596.94        62.25906
597.38        62.02107
597.81        62.22171
598.24        61.85698
598.68         62.5228
599.11        61.66121
599.54        63.01708
599.97        62.54997
600.41        62.40855
600.84        62.64402
601.27        62.56569
601.70        62.95018
602.14        63.12049
602.57        62.80726
603.00        62.12646
603.43        61.91415
603.87         62.5652
604.30        62.71964
604.73        62.43476
605.16        62.05594
605.60        61.99037
606.03        62.23418
606.46        62.59605
606.89        62.80699
607.32        61.99954
607.76        61.77464
608.19        61.92115
608.62        62.32863
609.05        62.10686
609.48        62.20077
609.92        61.78277
610.35        61.43779
610.78        62.64949
611.21        62.75993
611.64        62.25365
612.07        62.43104
612.50        62.47426
612.94         62.3187
613.37        61.84436
613.80        61.99961
614.23        61.58606
614.66        61.94535
615.09        61.73058
615.52        61.84438
615.96         61.9292
616.39        62.08246
616.82        62.08579
617.25        61.92931
617.68        61.63229
618.11        61.56228
618.54        61.68584
618.97        61.57782
619.40        61.31039
619.84         61.1938
620.27        61.31544
620.70        61.66132
621.13        62.13913
621.56        61.62903
621.99        61.32729
622.42        61.11647
622.85        61.38642
623.28        61.36277
623.71        61.23795
624.14        61.59442
624.57        61.67274
625.00        61.81608
625.43        61.78218
625.86        61.59286
626.29        61.25454
626.72        61.22055
627.15        61.04352
627.58        60.76451
628.01        60.74463
628.44        60.79379
628.87         61.0002
629.30        60.94638
629.73        60.89819
630.16        60.90306
630.59        61.02687
631.02        61.11652
631.45        61.13655
631.88        61.10382
632.31        61.01203
632.74        60.86164
633.17        60.70837
633.60        60.63337
634.03        60.65488
634.46        60.77918
634.89         60.9474
635.32        60.99179
635.75        60.91252
636.18        60.88308
636.61        60.91569
637.04        60.87915
637.47        60.83343
637.89        60.79747
638.32        60.75444
638.75        60.71276
639.18        60.68558
639.61        60.43291
640.04        60.43426
640.47        60.36123
640.90         60.3573
641.33        60.38607
641.76        60.41658
642.18        60.48169
642.61        60.56934
643.04        60.54304
643.47        60.34954
643.90        60.75988
644.33        60.46744
644.76        60.43468
645.18        60.33367
645.61        60.49175
646.04        60.81647
646.47        60.81075
646.90        60.52203
647.33        60.43395
647.75         60.5615
648.18        60.61062
648.61        60.57595
649.04        60.52191
649.47        60.43782
649.89        60.48969
650.32        60.60578
650.75        60.30867
651.18        59.78788
651.61        59.93807
652.03        60.67868
652.46        60.99616
652.89        60.79114
653.32        60.61119
653.74         60.6943
654.17        60.34489
654.60        60.65453
655.03        60.83944
655.46        60.13596
655.88        60.40965
656.31        66.76008
656.74        68.40621
657.16        64.01125
657.59        61.91876
658.02        60.77821
658.45        60.61634
658.87        60.81163
659.30         60.2284
659.73        59.83271
660.15        60.87453
660.58        60.33826
661.01        60.27313
661.44        59.80672
661.86        59.95771
662.29          60.585
662.72         60.6903
663.14        60.34771
663.57        60.42115
664.00         60.8751
664.42        61.00397
664.85        60.78633
665.27        60.53999
665.70        60.34809
666.13        60.22819
666.55        60.21981
666.98        60.29554
667.41        60.42546
667.83        60.56958
668.26        60.68742
668.69        60.78148
669.11        60.85056
669.54        60.90928
669.96        60.94847
670.39        60.93493
670.82        60.88472
671.24        60.79416
671.67        60.71242
672.09        60.76639
672.52        60.92648
672.94        60.96928
673.37        60.88087
673.80        60.77189
674.22        60.68187
674.65        60.59713
675.07         60.5467
675.50        60.52382
675.92         60.5204
676.35        60.51298
676.77        60.50074
677.20        60.48557
677.62        60.48663
678.05         60.5219
678.47        60.59055
678.90        60.68366
679.32         60.7733
679.75        60.83957
680.17        60.86792
680.60        60.86578
681.02        60.84301
681.45        60.80282
681.87        60.76477
682.30        60.72388
682.72        60.69485
683.15        60.66907
683.57        60.65306
684.00         60.6426
684.42        60.65215
684.85        60.69456
685.27        60.74756
685.70        60.86499
686.12        60.98259
686.54        60.86917
686.97        60.56938
687.39        60.49387
687.82        60.61168
688.24        60.46035
688.66        60.11363
689.09        60.13131
689.51        60.49304
689.94        60.67787
690.36         60.6576
690.78        60.72243
691.21        60.89546
691.63        60.99527
692.06        61.07463
692.48        61.41414
692.90        61.88972
693.33        62.05149
693.75        61.85829
694.17        61.47269
694.60        61.05259
695.02         60.8263
695.44         60.7966
695.87        60.80694
696.29        60.80805
696.71        60.62342
697.14         60.3794
697.56        60.63043
697.98         61.2617
698.41        61.56955
698.83        61.49814
699.25        61.43278
699.68        61.40601
700.10        61.36276
700.52        61.31961
700.94         61.2491
701.37        61.18126
701.79        61.27876
702.21        61.47969
702.64        61.60354
703.06        61.61942
703.48        61.54118
703.90        61.34975
704.33        61.41205
704.75         61.0191
705.17        60.96279
705.59        61.04251
706.01        61.21928
706.44        61.43813
706.86        61.64198
707.28        61.79083
707.70        61.90311
708.12        61.96613
708.55        61.93875
708.97        61.82585
709.39        61.66298
709.81        61.50043
710.23        61.41196
710.66         61.4221
711.08        61.53617
711.50        61.68536
711.92        61.76312
712.34        61.74467
712.76        61.65921
713.19        61.54647
713.61        61.51991
714.03        61.58326
714.45         61.6982
714.87        61.82371
715.29        61.89912
715.71         61.9079
716.13        61.87667
716.56        61.79795
716.98        61.73941
717.40         61.6929
717.82        61.64526
718.24        61.62508
718.66        61.67935
719.08        61.80764
719.50        61.99544
719.92         62.1751
720.34        62.23462
720.76        62.15137
721.19        61.95905
721.61        61.73644
722.03        61.60456
722.45        61.60262
722.87        61.70497
723.29        61.85981
723.71        61.97836
724.13        62.02983
724.55         62.0297
724.97        62.02595
725.39        62.09634
725.81        62.24839
726.23        62.44783
726.65        62.60772
727.07        62.59375
727.49         62.3878
727.91        62.04832
728.33        61.68348
728.75        61.46091
729.17        61.42647
729.59        61.52989
730.01        61.71457
730.43          61.878
730.85         61.9779
731.27        62.04768
731.69        62.08099
732.10        62.06849
732.52        62.02141
732.94        61.93127
733.36        61.84533
733.78        61.84433
734.20        61.93988
734.62        62.13319
735.04         62.3639
735.46        62.45502
735.88        62.42176
736.30        62.47596
736.72        62.58865
737.13        62.59403
737.55        62.46306
737.97        62.22584
738.39        61.98988
738.81         62.0513
739.23        62.36602
739.65         62.5273
740.06        62.44757
740.48        62.41381
740.90        62.38755
741.32         62.2085
741.74        61.92436
742.16         61.7246
742.57        61.65223
742.99        61.66046
743.41        61.74755
743.83        61.86085
744.25        61.99671
744.67        62.24686
745.08        62.54395
745.50        62.61988
745.92        62.45807
746.34        62.16344
746.75        61.81604
747.17        61.55143
747.59        61.40127
748.01        61.34087
748.42        61.36605
748.84        61.43859
749.26        61.54986
749.68        61.69294
750.09        61.83182
750.51          61.959
750.93        62.04082
751.35        62.00309
751.76        61.90107
752.18        61.89219
752.60        62.00336
753.01        62.18428
753.43        62.35714
753.85        62.45443
754.27        62.45867
754.68        62.39607
755.10        62.33826
755.52        62.39201
755.93         62.5644
756.35        62.80179
756.77        63.03809
757.18        63.13008
757.60        63.05634
758.02        62.96758
758.43         62.9038
758.85        62.55476
759.26        62.10921
759.68        62.12844
760.10        62.56288
760.51        62.95301
760.93        63.18737
761.34        62.84251
761.76        62.92223
762.18        62.68857
762.59        62.51629
763.01        62.41937
763.42         62.4553
763.84        62.46718
764.26        62.45578
764.67        62.49555
765.09        62.58954
765.50        62.56574
765.92        62.44758
766.33         62.3674
766.75        62.27562
767.16        62.14037
767.58         62.0087
768.00        62.02333
768.41        62.26197
768.83        62.91455
769.24         63.7657
769.66        64.06225
770.07        63.80761
770.49        63.64448
770.90        63.64323
771.32         63.5397
771.73          63.355
772.15        63.17596
772.56        63.03992
772.97        62.99495
773.39        63.02264
773.80        63.08376
774.22        63.13443
774.63        63.23725
775.05        63.33856
775.46        63.40848
775.88         63.4099
776.29        63.36692
776.70        63.30697
777.12        63.30342
777.53        63.38442
777.95        63.50409
778.36        63.61559
778.77         63.6221
779.19        63.51559
779.60        63.33798
780.02        63.13484
780.43        63.04144
780.84        63.10267
781.26         63.0896
781.67        63.03242
782.09        63.41325
782.50        64.00722
782.91        63.77994
783.33        62.93616
783.74        62.74278
784.15        63.29853
784.57        63.88083
784.98        64.36246
785.39        64.80378
785.81        65.13396
786.22        65.13857
786.63        65.22125
787.04        65.12412
787.46        65.01707
787.87        64.84452
788.28        64.70198
788.70        64.70923
789.11         64.8523
789.52        65.11916
789.93        65.38692
790.35        65.43733
790.76        65.25414
791.17        64.90329
791.58        64.49608
792.00        64.24041
792.41        64.21099
792.82         64.2037
793.23        64.21807
793.65           64.61
794.06        65.19131
794.47        65.12753
794.88        64.56407
795.29        64.37783
795.71        64.54768
796.12        64.68241
796.53        64.68559
796.94        64.64246
797.35        64.53412
797.76        64.35873
798.18        64.21494
798.59        64.21454
799.00        64.38577
799.41        64.68504
799.82        65.03073
800.23        65.28145
800.64        65.38424
801.06         65.3566
801.47         65.2504
801.88        65.06927
802.29        64.84702
802.70        64.59409
803.11        64.36941
803.52         64.2642
803.93        64.30312
804.34        64.46413
804.75        64.71715
805.17        65.00422
805.58        65.32249
805.99        65.58213
806.40        65.74046
806.81        65.89437
807.22        65.96888
807.63        65.63419
808.04        65.03648
808.45        64.74345
808.86         64.8337
809.27        65.04111
809.68         65.2709
810.09        65.45017
810.50        65.52364
810.91        65.52818
811.32        65.46681
811.73        65.34219
812.14        65.17734
812.55        64.96627
812.96        64.80484
813.37        64.86097
813.78        65.15791
814.19        65.63745
814.60        66.15211
815.01        66.47579
815.42        66.55101
815.83        66.42934
816.24        66.19357
816.65        66.01453
817.05        65.96191
817.46        65.96314
817.87        65.99512
818.28        65.98225
818.69        65.90176
819.10        65.78772
819.51        65.66677
819.92        65.57661
820.33         65.5359
820.74        65.53184
821.14        65.53976
821.55        65.55305
821.96        65.55575
822.37        65.56111
822.78        65.59048
823.19        65.67654
823.60        65.82587
824.00         66.0407
824.41        66.25136
824.82        66.44634
825.23        66.60104
825.64        66.70125
826.04        66.76755
826.45        66.76716
826.86        66.72695
827.27        66.66793
827.68        66.55044
828.08        66.32769
828.49        65.97427
828.90        65.51759
829.31        65.11731
829.72        65.01627
830.12         65.2924
830.53        65.86707
830.94        66.48918
831.35        66.66168
831.75        66.28693
832.16        65.46822
832.57        64.65049
832.97        64.50696
833.38         65.1469
833.79         66.3462
834.20         67.6542
834.60        68.29601
835.01        68.03666
835.42        67.16785
835.82        66.04177
836.23        65.19438
836.64        64.80882
837.04        64.72894
837.45        64.88582
837.86        65.22324
838.26        65.67828
838.67        66.25024
839.08        66.79359
839.48        67.02433
839.89        66.87463
840.29        66.41015
840.70        65.82526
841.11        65.41543
841.51         65.2865
841.92        65.34587
842.33        65.54405
842.73        65.79353
843.14        66.00433
843.54        66.25486
843.95        66.49265
844.35          66.692
844.76        66.80993
845.17        66.82185
845.57        66.77215
845.98        66.73555
846.38         66.7473
846.79        66.78841
847.19           66.79
847.60        66.56109
848.00        66.11249
848.41        65.50255
848.81        64.95136
849.22        64.76633
849.62        65.01985
850.03        65.59472
850.43        66.28281
850.84        66.58482
851.24        66.42782
851.65        65.92808
852.05        65.36179
852.46        65.15878
852.86        65.41134
853.27        65.95087
853.67        66.58813
854.07        67.25052
854.48        67.83184
854.88        68.46096
855.29        68.87917
855.69        68.84304
856.10        68.20723
856.50        67.14774
856.90        66.00208
857.31        65.26979
857.71        65.05519
858.12        65.17865
858.52         65.5368
858.92        65.72311
859.33        65.59133
859.73        65.32656
860.13        64.91901
860.54        64.37608
860.94        63.74901
861.34        63.00515
861.75        62.37029
862.15        62.28864
862.55        62.81576
862.96        63.80259
863.36        64.89208
863.76        65.41017
864.17        65.19468
864.57        64.46138
864.97        63.53724
865.38        62.97451
865.78        62.96977
866.18        63.33889
866.58        63.91543
866.99        64.39799
867.39        64.67783
867.79        64.83551
868.19        64.86883
868.60        64.73925
869.00        64.45634
869.40        64.01279
869.80        63.52576
870.21         63.2396
870.61        63.27432
871.01        63.52982
871.41        63.83718
871.81         63.9185
872.22        63.71152
872.62        63.32098
873.02        62.87056
873.42        62.56228
873.82        62.47126
874.22        62.53273
874.63        62.71927
875.03        62.99095
875.43         63.3104
875.83         63.6787
876.23         64.0431
876.63        64.31789
877.03        64.47686
877.44        64.51224
877.84        64.47242
878.24        64.40187
878.64        64.32071
879.04        64.21696
879.44        64.10098
879.84        63.98546
880.24        63.86994
880.64        63.76227
881.04        63.65321
881.44        63.50969
881.84        63.34043
882.24        63.18112
882.65        63.02579
883.05        62.96685
883.45         62.9852
883.85         63.0339
884.25        63.17787
884.65        63.51926
885.05        64.05182
885.45        64.75443
885.85        65.38383
886.25        65.52914
886.65        65.10365
887.05         64.2142
887.45        63.25224
887.85        62.83353
888.25        63.09809
888.65        63.89276
889.04        64.79322
889.44        65.07798
889.84        64.59751
890.24        63.56748
890.64        62.47305
891.04        62.01317
891.44        62.32968
891.84        63.23816
892.24        64.23672
892.64        64.48061
893.04         63.7927
893.44        62.46171
893.83        61.13885
894.23          60.801
894.63        61.61046
895.03        63.25222
895.43        65.07777
895.83        65.90981
896.23        65.42963
896.63        64.09592
897.02        62.47419
897.42        61.44373
897.82        61.17039
898.22        61.42284
898.62        62.02233
899.01        62.70146
899.41        63.27569
899.81        63.84107
900.21        64.42976
900.61        65.06961
901.00        65.72314
901.40         66.2857
901.80        66.59281
902.20        66.44078
902.59        65.83504
902.99        64.89037
903.39        63.86333
903.79        63.15664
904.18        62.88137
904.58        62.95294
904.98        63.23629
905.38         63.5152
905.77        63.70298
906.17        63.88098
906.57        63.99619
906.96        63.97625
907.36        63.80748
907.76        63.49854
908.15        63.21001
908.55        63.17628
908.95        63.45956
909.34        64.00233
909.74        64.58618
910.14        64.92155
910.53        64.91164
910.93        64.63488
911.33        64.23338
911.72        63.92889
912.12        63.81051
912.52        63.81602
912.91        63.82275
913.31        63.63261
913.70        63.22331
914.10        62.68252
914.49        62.21148
914.89        62.08716
915.29        62.36607
915.68        62.94957
916.08        63.62635
916.47        64.05734
916.87        64.13354
917.26        63.94542
917.66        63.64605
918.05        63.47548
918.45         63.4922
918.84        63.65879
919.24        63.85783
919.64        63.95428
920.03        63.92648
920.42        63.81801
920.82        63.73149
921.21           63.84
921.61         64.1367
922.00        64.55511
922.40        64.94784
922.79         65.1139
923.19        64.97614
923.58        64.62705
923.98         64.1321
924.37        63.52908
924.77        62.89333
925.16        62.21828
925.55        61.65614
925.95        61.44103
926.34        61.64285
926.74        62.16285
927.13        62.90712
927.52        63.61609
927.92        64.17147
928.31        64.62055
928.70         64.9172
929.10        65.03036
929.49        64.98977
929.89        64.79805
930.28        64.53317
930.67        64.30022
931.07        64.13601
931.46        64.01226
931.85        63.99081
932.24         64.1571
932.64        64.49039
933.03        65.00001
933.42        65.42542
933.82        65.37833
934.21        64.81525
934.60        63.84557
934.99        62.88688
935.39        62.55658
935.78        63.00776
936.17        64.09291
936.56        65.34013
936.96        65.86633
937.35        65.46081
937.74        64.37285
938.13        63.14444
938.53        62.49224
938.92         62.5335
939.31        63.08751
939.70        63.83117
940.09        64.18634
940.49        63.98399
940.88        63.43676
941.27        62.84869
941.66         62.6686
942.05        63.00198
942.44        63.69887
942.84        64.50126
943.23        65.01615
943.62         65.0649
944.01        64.79534
944.40        64.40089
944.79        64.18817
945.18        64.24024
945.57        64.42092
945.97        64.65004
946.36        64.90801
946.75        65.12543
947.14        65.35538
947.53        65.47809
947.92        65.26843
948.31        64.72033
948.70        63.92721
949.09        63.17866
949.48        62.91018
949.87        63.21398
950.26        63.97742
950.65        64.94968
951.04        65.66937
951.43        65.96072
951.82         65.9109
952.21        65.68555
952.60        65.56448
952.99        65.59842
953.38         65.6687
953.77        65.63007
954.16        65.24132
954.55        64.50755
954.94        63.65152
955.33        62.81212
955.72        62.16594
956.11        61.77906
956.50        61.52505
956.89        61.59599
957.28        62.31353
957.66        63.69704
958.05        65.55539
958.44        67.20316
958.83        67.36219
959.22        65.80029
959.61        63.01964
960.00        60.04426
960.39        58.31794
960.78        58.15728
961.16        59.19606
961.55        60.83117
961.94        62.12172
962.33        62.70987
962.72        62.85957
963.11        62.75425
963.49        62.73849
963.88        62.88259
964.27         63.0109
964.66        63.04166
965.04         62.9306
965.43        62.66296
965.82        62.30028
966.21        61.90517
966.60        61.55703
966.98        61.31692
967.37        61.17318
967.76        61.09764
968.15         61.0177
968.53        60.91776
968.92         60.8027
969.31        60.74141
969.69        60.84836
970.08        61.10728
970.47        61.48559
970.86        61.84561
971.24        61.96436
971.63        61.73922
972.02        61.26339
972.40        60.70389
972.79        60.34322
973.17        60.27729
973.56        60.43412
973.95        60.68409
974.33        60.83235
974.72        60.76249
975.11        60.45437
975.49        60.15295
975.88        60.30542
976.26        61.06041
976.65        62.26772
977.04        63.27251
977.42        63.00095
977.81        61.32526
978.19         58.6193
978.58        56.19326
978.96         55.7788
979.35        57.68962
979.74         61.4981
980.12        66.11869
980.51        68.75973
980.89        68.60781
981.28        66.28281
981.66        63.04539
982.05         61.0728
982.43        60.97645
982.82        62.10933
983.20        64.02937
983.59        65.81425
983.97        67.15313
984.35        68.28645
984.74        68.99196
985.12        69.01079
985.51        68.30914
985.89        66.85847
986.28        65.16171
986.66         63.9205
987.04        63.45271
987.43        63.63047
987.81        64.09158
988.20         64.0048
988.58        63.21115
988.96        61.82555
989.35        60.52465
989.73        60.33099
990.12        61.38584
990.50        63.44703
990.88        65.42636
991.27        65.57183
991.65         63.6626
992.03        60.32482
992.42        56.99275
992.80        55.64586
993.18        56.82386
993.56          59.823
993.95        63.54151
994.33        66.29123
994.71        67.21832
995.10        66.88109
995.48        65.51968
995.86        63.58035
996.24        61.47472
996.63        59.09739
997.01        57.05698
997.39        56.25621
997.77        56.79317
998.15        58.51476
998.54        60.73404
998.92        62.05517
999.30        62.02896
999.68        61.00744
1000.06        59.52925
1000.45        58.57764
1000.83        58.62525
1001.21        59.27706
1001.59        60.38188
1001.97        61.68585
1002.35        62.98294
1002.73        64.35811
1003.12        65.51418
1003.50        65.87814
1003.88        65.42198
1004.26        64.33945
1004.64        63.06723
1005.02        62.25863
1005.40        62.09743
1005.78        62.44538
1006.16        63.14806
1006.54        63.88894
1006.92        64.46747
1007.30        64.86855
1007.69        65.05396
1008.07        65.20007
1008.45        65.24583
1008.83        65.22121
1009.21        64.86055
1009.59        63.74635
1009.97           61.91
1010.35        59.53585
1010.73        57.46313
1011.11        57.11502
1011.49        58.91957
1011.86        62.76803
1012.24        67.44677
1012.62        70.97124
1013.00        72.49297
1013.38        72.21728
1013.76        71.11134
1014.14        71.17034
1014.52        72.98209
1014.90        75.92123
1015.28        78.64492
1015.66        78.82349
1016.04        76.23874
1016.41        72.28388
1016.79        68.49685
1017.17         66.0817
1017.55        65.01126
1017.93        64.70985
1018.31        65.00593
1018.69        65.41434
1019.06        65.54359
1019.44        65.71024
1019.82        65.52626
1020.20        64.44726
1020.58        62.44633
1020.95         59.3214
1021.33        55.87968
1021.71          54.419
1022.09        56.17317
1022.46        60.46357
1022.84        65.59796
1023.22        69.34265
1023.60        71.06143
1023.97        71.42033
1024.35        70.40804
1024.73         68.1809
