SpectraSmart Spectrum 2.9.0.0
--------- Device Information -----------
Spectrum Name :  反射率_0
Saving Time :  2024/05/01 16:08:07
Spectro-Module Model Name : SE2030-DUVN
Spectro-Module Serial Number : OS361AC55029948
Wavelength Start : 200
Wavelength End : 1025
Wavelength Unit : Wavelength(nm)
Spectrum Unit : Reflectance(%)
-----------Spectrum Setting ------------
Integration Time : 20ms
Average : 10
Boxcar : 0
Background removal :  enabled
linearity correction :  enabled
SC :  disabled
Intensity correction :  disabled
DWT denoise :  enabled
savitzky-golay :  disabled
FFT :  disabled
Running average :  disabled
Kalman :  disabled
High pass :  disabled
---------------BEGIN--------------------
Wavelength(nm)             Reflectance(%)
200.29               0
200.75       -65.53639
201.21        71.42204
201.67        -112.746
202.13       -46.09245
202.58       -8.550579
203.04        20.41764
203.50        40.18278
203.96        48.10247
204.42        44.97762
204.88        20.34912
205.34       -625.5266
205.80        136.9358
206.26        72.80035
206.72       -1.899213
207.18       -321.2865
207.64        548.9144
208.10        225.7057
208.55        138.1171
209.01        91.50657
209.47        66.92437
209.93        55.27386
210.39        47.94423
210.85        43.57391
211.31        41.64765
211.77        42.48493
212.23        1.529403
212.69        27.00028
213.14        39.09294
213.60        79.93092
214.06       -361.0179
214.52       -53.50492
214.98       -29.35545
215.44       -16.26505
215.90        6.998874
216.36        315.3773
216.81       -156.7688
217.27       -186.3034
217.73        280.2181
218.19        26.66325
218.65       -1.922193
219.11       -19.42884
219.57       -54.17358
220.02       -166.6978
220.48       -59.01788
220.94       -1.181513
221.40        12.33605
221.86        17.40221
222.32        20.53838
222.77        23.83437
223.23        28.21993
223.69        32.98529
224.15        33.59656
224.61        29.47909
225.06        24.16423
225.52        20.91906
225.98        20.81036
226.44        23.38313
226.90        28.45656
227.36        34.88756
227.81        37.31166
228.27        33.95521
228.73        28.54338
229.19        23.91388
229.65         21.2194
230.10         20.0102
230.56        19.83448
231.02        20.58908
231.48        22.01798
231.93        23.59513
232.39        25.18011
232.85        26.74036
233.31        28.40409
233.77        30.14626
234.22        31.89533
234.68        33.36778
235.14        34.44846
235.60        35.25474
236.05        35.95734
236.51        37.00528
236.97         39.2958
237.43        42.94796
237.88         47.1907
238.34         50.7045
238.80        53.16653
239.26        54.83594
239.71        56.17855
240.17        56.16165
240.63        52.42099
241.08         45.1748
241.54        37.65639
242.00        34.32204
242.46        38.27355
242.91        51.54833
243.37        78.50481
243.83        125.4602
244.28        166.3622
244.74        164.7792
245.20        141.9493
245.66        121.0918
246.11        109.7475
246.57        105.1532
247.03        102.8996
247.48        99.34623
247.94        86.10424
248.40        61.85478
248.85        35.97878
249.31        21.72574
249.77        25.20485
250.22        38.82447
250.68         54.6756
251.14        67.68486
251.59        76.06913
252.05        81.65931
252.51        87.04375
252.96        96.10258
253.42         115.841
253.88        129.7088
254.33        120.9743
254.79        109.8655
255.25        101.0394
255.70        93.42104
256.16        87.76619
256.62        83.65945
257.07        81.06904
257.53        80.15657
257.99        79.85844
258.44        79.42658
258.90        78.89419
259.35        77.77356
259.81        76.49113
260.27        75.06716
260.72        73.68407
261.18        72.70006
261.63        71.68948
262.09        70.69344
262.55        69.25031
263.00         67.2896
263.46        65.19612
263.91        63.08254
264.37        61.47938
264.83        60.32936
265.28        59.46181
265.74         58.6972
266.19        57.48902
266.65        55.91158
267.11        54.04877
267.56        52.28622
268.02        51.32843
268.47        51.21429
268.93        51.64806
269.38        52.11544
269.84        51.74657
270.30        50.37463
270.75         48.3162
271.21        46.00258
271.66        43.94105
272.12         42.3773
272.57        41.09542
273.03        40.15249
273.48         39.5679
273.94        39.30767
274.39        39.32427
274.85        39.38237
275.31        39.05571
275.76        38.27439
276.22        37.20922
276.67        36.07555
277.13        35.31142
277.58         34.9114
278.04         34.7765
278.49        34.65024
278.95         34.2796
279.40        33.56699
279.86        32.68311
280.31        31.75013
280.77        31.02982
281.22        30.51471
281.68        30.18037
282.13         29.8631
282.59        29.43002
283.04        28.83709
283.50        28.20568
283.95        27.64674
284.41        27.38382
284.86        27.43422
285.32        27.71315
285.77        28.10662
286.22        28.50768
286.68        28.87294
287.13        29.20686
287.59        29.47398
288.04        29.56978
288.50         29.5183
288.95        29.31262
289.41        29.10197
289.86        29.02022
290.32        29.13548
290.77         29.4127
291.22        29.78051
291.68        30.10706
292.13        30.37368
292.59         30.6704
293.04        31.09139
293.50        31.82931
293.95         32.9007
294.40        34.24681
294.86        35.75452
295.31        37.25586
295.77        38.68148
296.22        40.04414
296.68        41.39393
297.13        42.79507
297.58        44.29392
298.04        45.90157
298.49        47.55468
298.95        49.19299
299.40        50.77813
299.85        52.32935
300.31         53.9857
300.76        55.93925
301.21        58.22774
301.67        60.78684
302.12        63.34817
302.58        65.51268
303.03        67.14314
303.48        68.39936
303.94        69.59585
304.39        71.08865
304.84        73.03325
305.30        75.29957
305.75        77.70592
306.20        80.00211
306.66        82.09309
307.11        83.99062
307.57        85.75024
308.02        87.32979
308.47        88.79124
308.93        90.14586
309.38        91.39756
309.83        92.66055
310.29        93.98172
310.74        95.33344
311.19        96.70278
311.65        98.03529
312.10        99.28675
312.55          100.46
313.00        101.6131
313.46        102.8456
313.91        104.1408
314.36        105.4467
314.82        106.5788
315.27        107.2643
315.72        107.4456
316.18        107.2693
316.63        106.9195
317.08        106.7502
317.53        106.8705
317.99         107.199
318.44        107.6706
318.89        108.1368
319.35        108.5402
319.80        108.9474
320.25        109.3496
320.70        109.7335
321.16        110.0845
321.61        110.3952
322.06        110.7033
322.51        111.1086
322.97         111.595
323.42        112.1731
323.87          112.71
324.32        113.0128
324.78        113.0343
325.23        112.8789
325.68        112.6653
326.13        112.6114
326.59        112.7636
327.04        113.1158
327.49        113.5906
327.94        114.0818
328.39        114.5338
328.85        114.9197
329.30        115.3181
329.75        115.6852
330.20         116.019
330.66        116.2907
331.11        116.5275
331.56        116.6421
332.01        116.6518
332.46        116.5893
332.92        116.5828
333.37          116.96
333.82        117.7494
334.27        118.8929
334.72        120.1644
335.17         121.154
335.63        121.6955
336.08        121.9273
336.53        122.0182
336.98         122.332
337.43        122.9712
337.88        123.8302
338.34        124.6886
338.79         125.281
339.24        125.4859
339.69         125.405
340.14        125.2588
340.59        125.3793
341.05        125.8454
341.50        126.5918
341.95         127.386
342.40        127.8575
342.85         127.932
343.30         127.734
343.75        127.5622
344.20         127.874
344.66        128.7477
345.11        130.0185
345.56        131.3618
346.01        132.2346
346.46         132.493
346.91        132.3235
347.36        131.9861
347.81        131.8786
348.26        132.1143
348.72        132.5639
349.17        133.0919
349.62        133.5614
350.07        133.8826
350.52        134.0737
350.97        134.1098
351.42        133.9329
351.87        133.5632
352.32         133.073
352.77        132.4447
353.22        131.6641
353.67         130.777
354.13        129.8218
354.58        129.0161
355.03        128.8066
355.48        129.2317
355.93        130.1843
356.38        131.1374
356.83        131.2097
357.28        130.2279
357.73        128.4669
358.18        126.6074
358.63        125.6647
359.08          125.82
359.53        126.7398
359.98        127.8033
360.43        127.9769
360.88        126.9918
361.33        125.2154
361.78        123.1793
362.23        121.6343
362.68        120.7698
363.13        120.3493
363.58        120.0702
364.03        119.4755
364.48        118.4398
364.93        117.1204
365.38         115.775
365.83        114.7601
366.28        114.1427
366.73        113.8024
367.18          113.44
367.63        112.6024
368.08        111.2292
368.53        109.5073
368.98        107.8203
369.43        106.7103
369.88        106.2687
370.33         106.313
370.78        106.5091
371.23         106.283
371.68        105.4764
372.13        104.2951
372.58        103.0037
373.03        101.9847
373.48        101.3307
373.93        100.8897
374.38        100.5628
374.83        100.2088
375.28        99.76637
375.72        99.28443
376.17        98.75391
376.62        98.08344
377.07        97.27681
377.52        96.34721
377.97        95.42437
378.42        94.72416
378.87        94.28864
379.32        94.06287
379.77        93.89449
380.22         93.5374
380.67        92.94093
381.11        92.18849
381.56        91.41717
382.01        90.87865
382.46        90.63298
382.91        90.58145
383.36         90.5944
383.81        90.47513
384.26        90.16393
384.71        89.73005
385.15         89.2014
385.60        88.67426
386.05        88.17224
386.50        87.66817
386.95        87.19897
387.40        86.83549
387.85        86.57497
388.29        86.33929
388.74        86.15504
389.19        85.85412
389.64         85.4195
390.09        84.88817
390.54        84.31121
390.98        83.81787
391.43        83.51096
391.88        83.17014
392.33        82.81393
392.78        82.85654
393.23        83.09663
393.67        82.61779
394.12        81.66875
394.57         81.3306
395.02         81.5405
395.47        81.29816
395.91        80.66727
396.36        80.40193
396.81        80.52299
397.26        80.69092
397.71        80.74149
398.15        80.52496
398.60        80.10706
399.05        79.46546
399.50        78.82234
399.95        78.58218
400.39        78.76278
400.84        78.97222
401.29        79.07064
401.74        79.08495
402.18        78.93092
402.63        78.39142
403.08         77.6546
403.53           77.17
403.97        76.98969
404.42        76.94496
404.87        76.94504
405.32        76.84843
405.76        76.60033
406.21        76.42953
406.66        76.31836
407.11        75.89872
407.55        75.37569
408.00        75.46381
408.45        76.06281
408.90        76.39079
409.34        76.24863
409.79        75.74149
410.24        75.06008
410.68        74.65818
411.13        74.61176
411.58        74.62659
412.03        74.65491
412.47        74.76309
412.92        74.88847
413.37        75.02499
413.81        75.10471
414.26        75.08934
414.71        74.95285
415.15        74.71964
415.60        74.44027
416.05        74.27094
416.49         74.2551
416.94        74.34741
417.39         74.4688
417.83         74.4767
418.28        74.33965
418.73        74.10391
419.17        73.84351
419.62        73.67976
420.07        73.64055
420.51        73.67413
420.96        73.76382
421.41        73.78284
421.85         73.6825
422.30         73.6365
422.74        73.65115
423.19        73.61115
423.64        73.54048
424.08        74.04852
424.53        74.40112
424.98        74.67919
425.42        74.60561
425.87        74.56195
426.31        74.58006
426.76        74.05741
427.21        73.33194
427.65        73.80972
428.10        75.05736
428.54        75.32442
428.99        74.61964
429.44        73.38667
429.88        72.22054
430.33        72.99683
430.77        74.98207
431.22        75.11745
431.66        73.52455
432.11        72.61646
432.56        72.66266
433.00        73.18999
433.45         74.0639
433.89        73.95327
434.34         73.3297
434.78        74.96315
435.23        74.59905
435.67        74.43635
436.12        73.76418
436.57        74.17719
437.01        75.53141
437.46        75.98203
437.90        75.45079
438.35        75.06861
438.79        74.92916
439.24        74.55783
439.68        74.08458
440.13        74.12796
440.57        74.69505
441.02         75.0591
441.46        75.07155
441.91        75.63263
442.35        76.46615
442.80        75.47696
443.24        74.93962
443.69        74.58157
444.13        75.00452
444.58        75.06471
445.02        74.73985
445.47        74.73139
445.91        75.06266
446.36        75.35555
446.80        75.53833
447.24         76.2552
447.69        76.45904
448.13         76.6568
448.58        76.58894
449.02        76.44347
449.47         76.3116
449.91        76.18839
450.36        76.13659
450.80        76.17435
451.25         76.2534
451.69        76.20527
452.13        76.01628
452.58        75.75358
453.02         75.4709
453.47        75.29357
453.91        75.23215
454.36        75.24246
454.80        75.26439
455.24        75.23112
455.69        75.09819
456.13        74.86723
456.58        74.66502
457.02         74.3083
457.46        74.17039
457.91        74.58572
458.35        75.35366
458.79        75.47974
459.24        74.90113
459.68         74.2767
460.13         73.9474
460.57        72.86781
461.01        73.20808
461.46        73.30032
461.90          73.536
462.34        73.64544
462.79        72.92146
463.23        72.98667
463.68        73.49304
464.12        73.69874
464.56        73.53806
465.01        73.22083
465.45        72.81752
465.89        72.97131
466.34         73.4728
466.78         73.1133
467.22        72.04483
467.67        71.71258
468.11        71.93792
468.55        72.23827
468.99        72.39571
469.44        72.52293
469.88        72.57851
470.32        72.52702
470.77        72.41383
471.21        72.33172
471.65        72.29297
472.10        72.29025
472.54        72.27534
472.98        72.19715
473.42        72.04511
473.87        71.89108
474.31        71.73706
474.75        71.57054
475.20        71.46051
475.64        71.54425
476.08        71.70074
476.52         71.7462
476.97        71.67435
477.41         71.3778
477.85        70.44637
478.29        71.44016
478.74        71.19621
479.18        71.27319
479.62        70.82708
480.06        70.69661
480.50         70.8784
480.95        70.09929
481.39        70.85536
481.83        69.77288
482.27         70.0447
482.72        70.59888
483.16        70.40318
483.60        70.42149
484.04        70.96239
484.48        71.02618
484.93        71.11762
485.37        71.73727
485.81        71.16717
486.25        72.42873
486.69        71.73345
487.14        69.49051
487.58        68.91184
488.02        70.63508
488.46        70.07791
488.90        69.63223
489.34        70.63782
489.79        69.97384
490.23         70.2081
490.67        69.91364
491.11        69.76805
491.55        69.96752
491.99        70.38016
492.43        70.50135
492.88        70.25913
493.32        69.98043
493.76        69.76662
494.20        69.67236
494.64        69.72344
495.08        69.87061
495.52        70.07993
495.96        70.19315
496.41        70.11452
496.85        70.13055
497.29        70.15561
497.73        69.24132
498.17        69.43459
498.61        69.11002
499.05        68.95356
499.49        69.17149
499.93        69.64525
500.37         69.7912
500.82        69.59634
501.26        69.60435
501.70        69.81721
502.14        69.88665
502.58        69.79117
503.02        69.69795
503.46        69.62504
503.90        69.43684
504.34        69.34366
504.78        69.29265
505.22        69.33043
505.66        69.44882
506.10        69.61926
506.54        69.65824
506.98        69.44732
507.42        69.57661
507.86        69.05276
508.30        68.60415
508.74        68.89059
509.18        68.99869
509.62        69.13865
510.06        69.25575
510.50        69.33182
510.94        69.35548
511.38        69.33064
511.82        69.28908
512.26        69.23534
512.70        69.15575
513.14        69.05693
513.58        68.95174
514.02        68.84769
514.46         68.7569
514.90        68.67084
515.34        68.57008
515.78        68.45808
516.22        68.34384
516.66        68.26469
517.10        68.27573
517.54        68.38014
517.98         68.5552
518.42        68.74229
518.86        68.84042
519.30        68.82426
519.74        68.73801
520.18         68.6292
520.62        68.53799
521.06        68.50378
521.50        68.58445
521.93        68.73582
522.37        68.79903
522.81        68.75475
523.25        68.68166
523.69        68.59858
524.13        68.50592
524.57        68.42146
525.01        68.35159
525.45        68.30936
525.89        68.31844
526.32        68.37659
526.76        68.46315
527.20        68.57047
527.64        68.68865
528.08         68.8019
528.52        68.91367
528.96        68.96696
529.40        68.87643
529.83        68.63657
530.27        68.30116
530.71         67.9797
531.15        67.86021
531.59        67.98125
532.03        68.28094
532.46        68.63685
532.90        68.87014
533.34        68.92519
533.78        68.80121
534.22        68.57457
534.66        68.48264
535.09        68.49458
535.53        68.32887
535.97        68.01388
536.41        67.84389
536.85        67.83727
537.28        67.84462
537.72         67.8553
538.16        67.90826
538.60        67.98798
539.04        68.07258
539.47        68.13992
539.91        68.19722
540.35        68.22312
540.79        68.24453
541.22        68.25374
541.66        68.14535
542.10        68.09719
542.54        67.97692
542.97        67.86382
543.41        67.83324
543.85        67.88438
544.29        67.99982
544.72        68.11975
545.16         68.1865
545.60        68.16964
546.04        68.08395
546.47        67.97343
546.91        67.92225
547.35        67.95639
547.79        68.03254
548.22        68.06583
548.66        68.07308
549.10        68.04106
549.53        67.67083
549.97        67.62148
550.41        67.56371
550.84        67.69279
551.28        67.96855
551.72        68.29264
552.15        68.43632
552.59        68.39191
553.03         68.3149
553.46        68.23518
553.90        68.19207
554.34        68.19559
554.77        68.18924
555.21        68.12992
555.65        68.24915
556.08        67.99048
556.52        67.79279
556.96        67.53241
557.39         67.3434
557.83        67.28388
558.27        67.25171
558.70        67.23067
559.14        67.52193
559.57         67.5083
560.01        67.74825
560.45        67.93638
560.88        67.92561
561.32        67.77509
561.75        67.31358
562.19        66.81413
562.63           67.09
563.06        67.90842
563.50        67.92424
563.93        67.24609
564.37        66.86739
564.80         67.4152
565.24        67.64971
565.68        67.66939
566.11        67.66872
566.55        67.66386
566.98        67.55431
567.42        67.42565
567.85        67.41717
568.29         67.5733
568.72        67.72536
569.16        67.85158
569.60        68.12624
570.03        67.79279
570.47         67.7645
570.90        67.94695
571.34        67.15543
571.77        67.57993
572.21        67.65279
572.64        67.97995
573.08        67.64548
573.51        67.84734
573.95        68.02394
574.38        67.37863
574.82         67.8167
575.25        67.95206
575.69        68.37557
576.12        67.88303
576.56        67.48731
576.99        67.94283
577.42        67.82444
577.86        67.77438
578.29        68.15955
578.73        69.00426
579.16        67.87041
579.60        67.35085
580.03        67.17582
580.47        67.81559
580.90        67.06927
581.33        67.73479
581.77        68.03867
582.20        68.24745
582.64        68.04012
583.07        67.87274
583.51        67.63119
583.94        67.72041
584.37        68.03577
584.81        68.52888
585.24        68.44843
585.68        67.99155
586.11        68.07846
586.54        68.06698
586.98        67.13232
587.41        66.95714
587.85        67.85823
588.28        68.23765
588.71        66.80255
589.15        67.91196
589.58        66.89754
590.01        67.27836
590.45        67.31007
590.88        67.59848
591.31        67.62113
591.75        67.44084
592.18        67.33699
592.61        66.97352
593.05        67.12328
593.48        66.94685
593.91        67.44598
594.35        66.98914
594.78        66.97336
595.21        66.88084
595.65        67.62882
596.08        67.56872
596.51        67.24624
596.94        67.08947
597.38        66.63977
597.81        66.87012
598.24        66.86508
598.68        67.25694
599.11        66.70918
599.54        68.06774
599.97        67.57633
600.41        66.74998
600.84         67.3701
601.27        67.01243
601.70        67.60664
602.14        67.72407
602.57         67.6488
603.00        67.31092
603.43        66.87409
603.87        66.88843
604.30         67.1891
604.73        66.93497
605.16        66.68982
605.60        66.86748
606.03        67.16724
606.46        67.49065
606.89        67.38678
607.32          66.526
607.76        66.18776
608.19        66.39429
608.62        67.01557
609.05        67.04198
609.48         67.2483
609.92        66.69833
610.35        66.33563
610.78        67.50096
611.21        67.73294
611.64        67.30511
612.07        67.61218
612.50        67.52786
612.94        67.46194
613.37        67.12788
613.80         67.0303
614.23         66.7658
614.66        67.09262
615.09        66.83669
615.52        66.95048
615.96        67.06131
616.39        67.16457
616.82        67.26765
617.25        66.99575
617.68         67.1858
618.11        67.01208
618.54        66.77158
618.97        66.63076
619.40        66.66285
619.84        66.65496
620.27        66.56841
620.70        66.92679
621.13        67.69294
621.56        66.88088
621.99         66.4704
622.42        66.92693
622.85        66.92577
623.28        66.90868
623.71        66.58383
624.14        67.03605
624.57        66.93897
625.00        67.07568
625.43        67.05462
625.86        66.89888
626.29         66.6473
626.72        66.76601
627.15        66.52173
627.58        66.43003
628.01        66.26171
628.44        66.44363
628.87        66.52827
629.30        66.49687
629.73        66.24267
630.16        66.48219
630.59        66.40757
631.02        66.52883
631.45        66.57952
631.88        66.59748
632.31        66.57088
632.74        66.50396
633.17        66.43044
633.60        66.38143
634.03        66.37144
634.46        66.39648
634.89         66.4393
635.32        66.46896
635.75        66.47548
636.18        66.46374
636.61        66.44967
637.04        66.46204
637.47        66.50703
637.89        66.56474
638.32        66.58083
638.75        66.55558
639.18        66.49377
639.61        66.21137
640.04         66.1155
640.47        65.97747
640.90        65.92716
641.33        65.92615
641.76        65.95237
642.18        66.06043
642.61        66.23677
643.04        66.32197
643.47        66.22929
643.90        66.75997
644.33        66.46564
644.76        66.41359
645.18        66.25973
645.61        66.39324
646.04         66.7271
646.47        66.70995
646.90        66.39447
647.33         66.3252
647.75        66.52009
648.18        66.61167
648.61        66.59337
649.04        66.63745
649.47        66.68312
649.89        66.67117
650.32        66.56264
650.75        66.14824
651.18        65.61111
651.61        65.70866
652.03        66.39029
652.46        66.57455
652.89        66.12677
653.32        66.35457
653.74        66.42793
654.17        65.92365
654.60        66.48986
655.03        67.03513
655.46        65.75823
655.88        66.16799
656.31        73.17645
656.74        71.20889
657.16        65.58722
657.59        64.29043
658.02        65.94572
658.45        66.37173
658.87        66.62333
659.30        65.43337
659.73        66.14628
660.15        66.98489
660.58        65.96671
661.01        65.80943
661.44        65.75957
661.86        65.94693
662.29        66.25314
662.72        66.38655
663.14        66.35397
663.57        66.36255
664.00        66.43873
664.42        66.43044
664.85        66.34951
665.27        66.25393
665.70        66.16988
666.13        66.11684
666.55        66.11218
666.98        66.13773
667.41        66.19269
667.83        66.27682
668.26        66.36612
668.69        66.45848
669.11        66.53583
669.54        66.59496
669.96        66.62337
670.39        66.56045
670.82        66.45202
671.24        66.41985
671.67        66.48015
672.09        66.56426
672.52        66.64561
672.94        66.66399
673.37        66.61153
673.80        66.48811
674.22        66.32552
674.65        66.24574
675.07        66.12003
675.50        66.06149
675.92        66.02981
676.35        66.03183
676.77         66.0649
677.20        66.12161
677.62        66.19383
678.05        66.24648
678.47        66.27097
678.90        66.28491
679.32        66.27818
679.75        66.25988
680.17        66.22756
680.60        66.17749
681.02        66.14594
681.45        66.16209
681.87        66.23862
682.30        66.40116
682.72        66.59353
683.15        66.57124
683.57        66.37367
684.00        66.29546
684.42        66.35153
684.85        66.33855
685.27        66.24454
685.70        66.24146
686.12        66.29746
686.54        66.22314
686.97        66.03598
687.39        66.02097
687.82        66.13438
688.24        66.00365
688.66         65.7048
689.09        65.74275
689.51        66.11528
689.94        66.30483
690.36        66.29273
690.78        66.36501
691.21        66.53773
691.63        66.63416
692.06        66.69608
692.48        66.96106
692.90        67.33761
693.33        67.47918
693.75        67.35789
694.17        67.07838
694.60        66.76711
695.02        66.63031
695.44        66.65131
695.87        66.65086
696.29        66.59378
696.71        66.36527
697.14        66.09589
697.56         66.2842
697.98        66.83292
698.41        67.10548
698.83        67.05109
699.25        67.02601
699.68        67.04564
700.10           67.04
700.52        67.01545
700.94        66.94517
701.37        66.86285
701.79         66.9481
702.21        67.13799
702.64        67.23325
703.06        67.21607
703.48        67.12749
703.90        66.94884
704.33        67.07173
704.75         66.6994
705.17        66.65881
705.59        66.72218
706.01        66.86093
706.44        67.02843
706.86          67.188
707.28        67.30782
707.70        67.39687
708.12         67.4493
708.55        67.44325
708.97        67.37726
709.39        67.26247
709.81        67.13731
710.23        67.07575
710.66        67.09666
711.08        67.19598
711.50        67.31705
711.92        67.38298
712.34        67.37421
712.76        67.31095
713.19        67.21897
713.61        67.19189
714.03        67.22848
714.45        67.30276
714.87        67.38603
715.29        67.43405
715.71        67.43439
716.13        67.40886
716.56        67.35674
716.98        67.33059
717.40        67.30879
717.82        67.33904
718.24        67.44625
718.66        67.34739
719.08        67.55453
719.50        67.64491
719.92        67.72811
720.34        67.71856
720.76        67.61066
721.19        67.42741
721.61        67.22428
722.03        67.09737
722.45        67.07725
722.87        67.14403
723.29        67.26901
723.71        67.40163
724.13        67.51385
724.55        67.60283
724.97        67.67705
725.39        67.75036
725.81        67.82008
726.23        67.88432
726.65        67.89339
727.07        67.75745
727.49        67.50436
727.91        67.15276
728.33        66.82116
728.75        66.68117
729.17        66.76643
729.59        67.02103
730.01        67.33942
730.43        67.53655
730.85        67.55572
731.27        67.45964
731.69        67.29982
732.10        67.15829
732.52        67.07526
732.94        67.01817
733.36        67.01586
733.78        67.12131
734.20        67.32513
734.62        67.61231
735.04        67.91397
735.46        68.07867
735.88        68.10409
736.30        68.12117
736.72        68.11201
737.13         68.0368
737.55        67.89582
737.97        67.59669
738.39         67.2759
738.81        67.49562
739.23        68.11722
739.65        68.20836
740.06        67.76361
740.48        67.64204
740.90        67.83257
741.32        67.87659
741.74         67.7355
742.16        67.61943
742.57        67.54597
742.99        67.41351
743.41        67.31615
743.83         67.4564
744.25        67.80669
744.67        68.17712
745.08        68.45233
745.50        68.50407
745.92        68.30909
746.34         67.8659
746.75        67.32599
747.17        66.99947
747.59        66.93956
748.01        67.06841
748.42        67.31451
748.84        67.51701
749.26        67.63174
749.68         67.7054
750.09        67.74955
750.51         67.7976
750.93         67.8531
751.35        67.89134
751.76         67.9264
752.18        67.98341
752.60        68.06892
753.01        68.19777
753.43        68.31572
753.85        68.37292
754.27        68.36353
754.68         68.3073
755.10        68.25929
755.52        68.30296
755.93         68.4382
756.35          68.618
756.77        68.79396
757.18        68.85759
757.60        68.79829
758.02        68.76671
758.43        68.69417
758.85        68.43455
759.26        67.86144
759.68        67.78664
760.10         68.1396
760.51        68.52247
760.93         68.7347
761.34        68.66717
761.76        68.38625
762.18        68.04897
762.59         67.8467
763.01         68.0574
763.42         68.6288
763.84        68.90041
764.26        68.82056
764.67        68.71324
765.09        68.66759
765.50        68.61993
765.92        68.61577
766.33        68.53365
766.75        68.28971
767.16        68.51572
767.58        68.45562
768.00        68.46124
768.41        68.41286
768.83         68.9678
769.24        69.90806
769.66        70.04897
770.07        69.48386
770.49        69.38844
770.90         69.7683
771.32        69.79221
771.73        69.47073
772.15        69.29173
772.56        69.29777
772.97        69.29749
773.39        69.27054
773.80         69.3017
774.22        69.35577
774.63        69.46667
775.05        69.58579
775.46        69.69813
775.88        69.76363
776.29        69.81213
776.70        69.85099
777.12        69.91625
777.53         70.0263
777.95        70.13982
778.36        70.22771
778.77        70.21534
779.19        70.09917
779.60        69.93315
780.02        69.74131
780.43        69.57816
780.84        69.51587
781.26         69.4338
781.67        69.35153
782.09        69.69891
782.50        70.27764
782.91         69.8057
783.33        69.09093
783.74        68.88559
784.15        69.46339
784.57        70.09354
784.98        70.65196
785.39        71.17987
785.81        71.59037
786.22        71.65606
786.63        71.78721
787.04        71.65276
787.46        71.43616
787.87        71.09502
788.28        70.78809
788.70        70.71835
789.11         70.8887
789.52        71.29446
789.93        71.74844
790.35        71.86615
790.76        71.62624
791.17         71.2392
791.58        70.85696
792.00         70.6358
792.41        70.66203
792.82        70.79369
793.23        70.94193
793.65        71.28064
794.06        71.60611
794.47        71.15836
794.88        70.25487
795.29        69.97827
795.71        70.33126
796.12        70.88197
796.53        71.37656
796.94        71.57755
797.35        71.35152
797.76        70.79447
798.18        70.17637
798.59        69.86754
799.00        69.97272
799.41         70.3756
799.82        70.92117
800.23        71.34375
800.64        71.54467
801.06        71.58258
801.47        71.54045
801.88        71.46158
802.29        71.37831
802.70        71.24802
803.11        71.11437
803.52        71.06344
803.93        71.13084
804.34        71.32239
804.75        71.55369
805.17         71.7666
805.58        71.98422
805.99        71.83396
806.40        71.47243
806.81        71.99924
807.22        73.06119
807.63        72.69882
808.04        71.13026
808.45        70.44032
808.86        70.79354
809.27        71.02514
809.68        71.02639
810.09         71.1664
810.50        71.40688
810.91        71.65108
811.32        71.85735
811.73        71.95564
812.14        71.93442
812.55        71.81896
812.96        71.69079
813.37         71.6878
813.78        71.84322
814.19        72.11263
814.60         72.4166
815.01        72.62941
815.42        72.71613
815.83        72.71557
816.24         72.6434
816.65        72.53158
817.05        72.41051
817.46        72.25049
817.87         72.1106
818.28        72.03671
818.69        72.03079
819.10        72.07827
819.51        72.15291
819.92        72.19734
820.33        72.18708
820.74        72.13982
821.14        72.03901
821.55        71.88749
821.96        71.68651
822.37        71.45691
822.78        71.26482
823.19        71.22463
823.60        71.37624
824.00        71.71337
824.41        72.13879
824.82        72.59543
825.23        73.02292
825.64        73.38817
826.04        73.68919
826.45          73.857
826.86        73.90288
827.27        73.85256
827.68        73.63609
828.08        73.16759
828.49        72.44324
828.90        71.53454
829.31        70.72151
829.72        70.42825
830.12        70.77732
830.53        71.63779
830.94        72.66376
831.35         73.1676
831.75        72.96913
832.16        72.20662
832.57        71.34473
832.97        71.09733
833.38        71.60008
833.79        72.61428
834.20        73.72714
834.60        74.24368
835.01        73.94595
835.42        73.10945
835.82        72.05974
836.23        71.27743
836.64        70.92707
837.04        70.87966
837.45         71.0332
837.86        71.28497
838.26        71.57504
838.67        71.90485
839.08         72.2353
839.48        72.45748
839.89        72.52974
840.29        72.46446
840.70        72.29582
841.11        72.06521
841.51        71.82128
841.92        71.53981
842.33        71.32866
842.73        71.36214
843.14        71.62188
843.54        72.12316
843.95        72.67014
844.35        72.99845
844.76        73.00111
845.17         72.7393
845.57        72.40637
845.98        72.30505
846.38        72.52236
846.79         72.9511
847.19        73.39456
847.60        73.43407
848.00        73.00779
848.41        72.24852
848.81        71.45403
849.22        71.04897
849.62        71.14855
850.03        71.59351
850.43        72.18217
850.84        72.41958
851.24         72.2338
851.65        71.74614
852.05        71.20573
852.46        70.97712
852.86        71.14069
853.27         71.5548
853.67        72.05596
854.07        72.61919
854.48        73.14555
854.88        73.76325
855.29        74.20438
855.69        74.23429
856.10        73.68894
856.50        72.73042
856.90        71.70293
857.31        71.12478
857.71        71.10426
858.12        71.46646
858.52        72.03768
858.92        72.26742
859.33         71.9779
859.73        71.38654
860.13        70.65866
860.54        70.07551
860.94        69.73763
861.34        69.54514
861.75        69.48171
862.15        69.58167
862.55        69.80151
862.96        70.11996
863.36        70.46429
863.76        70.62039
864.17        70.53774
864.57        70.28359
864.97        69.93972
865.38        69.66195
865.78        69.52872
866.18        69.47069
866.58        69.47084
866.99        69.49871
867.39        69.56702
867.79         69.6905
868.19        69.78351
868.60        69.68198
869.00        69.36343
869.40        68.86561
869.80        68.39474
870.21        68.33303
870.61        68.80786
871.01        69.62447
871.41        70.44617
871.81        70.76853
872.22         70.4812
872.62        69.75974
873.02        68.85199
873.42         68.1692
873.82        67.87061
874.22        67.85699
874.63        68.05584
875.03        68.34629
875.43        68.66441
875.83        69.03508
876.23         69.4483
876.63        69.87657
877.03        70.29192
877.44        70.65233
877.84        70.90215
878.24        70.91872
878.64        70.69645
879.04        70.28783
879.44        69.84332
879.84        69.58905
880.24        69.56828
880.64        69.71466
881.04        69.92551
881.44        70.01537
881.84        69.94098
882.24        69.78806
882.65        69.55703
883.05        69.36612
883.45        69.22193
883.85        69.07439
884.25        69.05004
884.65        69.34301
885.05        69.95963
885.45        70.86057
885.85         71.7355
886.25        72.04712
886.65        71.66741
887.05        70.73041
887.45        69.68108
887.85        69.22624
888.25        69.52875
888.65        70.40424
889.04        71.38593
889.44         71.6862
889.84        71.14569
890.24        70.01687
890.64        68.82483
891.04        68.32076
891.44        68.66016
891.84        69.63628
892.24        70.73382
892.64        71.08752
893.04        70.49666
893.44        69.23974
893.83        67.94961
894.23        67.58127
894.63        68.29417
895.03        69.79267
895.43        71.42796
895.83        72.03333
896.23        71.32375
896.63         69.7713
897.02        68.00888
897.42        67.01543
897.82        66.94875
898.22        67.54048
898.62        68.50796
899.01        69.39737
899.41        69.96875
899.81        70.38745
900.21        70.76208
900.61        71.26107
901.00         71.9042
901.40        72.53043
901.80        73.00724
902.20        73.18116
902.59        73.03285
902.99        72.65433
903.39        72.13807
903.79        71.61797
904.18        71.15357
904.58        70.74393
904.98        70.45028
905.38        70.36599
905.77        70.48506
906.17        70.81567
906.57        71.16859
906.96        71.23856
907.36        70.95426
907.76        70.41162
908.15        69.89527
908.55        69.83112
908.95        70.32151
909.34        71.21878
909.74         72.1972
910.14        72.80595
910.53         72.8932
910.93        72.59505
911.33        72.07264
911.72        71.58003
912.12        71.23229
912.52        70.94688
912.91        70.68401
913.31        70.38094
913.70        70.04179
914.10         69.7362
914.49        69.51622
914.89        69.41522
915.29        69.44401
915.68        69.56844
916.08        69.77576
916.47        70.06684
916.87        70.40976
917.26        70.79052
917.66        71.12795
918.05        71.30411
918.45        71.30216
918.84         71.1954
919.24        71.07228
919.64        71.16984
920.03        71.54898
920.42        72.08825
920.82        72.68202
921.21        73.20839
921.61        73.57564
922.00        73.81776
922.40        73.84407
922.79        73.58103
923.19        73.04262
923.58        72.31619
923.98        71.52025
924.37        70.74374
924.77        70.06564
925.16        69.46819
925.55        69.08511
925.95        69.08955
926.34        69.52061
926.74        70.28266
927.13         71.2188
927.52        71.97836
927.92        72.43487
928.31        72.65083
928.70        72.70587
929.10        72.78806
929.49        72.96951
929.89        73.17667
930.28        73.32806
930.67        73.25618
931.07        72.91973
931.46        72.37715
931.85         71.8102
932.24        71.50511
932.64        71.52758
933.03        71.85075
933.42        72.17675
933.82        72.05792
934.21        71.42451
934.60        70.40071
934.99         69.4495
935.39        69.24355
935.78        69.94686
936.17        71.40572
936.56        73.01173
936.96        73.64175
937.35         73.0344
937.74        71.49559
938.13        69.82943
938.53        69.11825
938.92        69.52773
939.31         70.7909
939.70         72.2877
940.09        72.88685
940.49        72.28388
940.88        70.88489
941.27        69.37112
941.66        68.74655
942.05        69.24532
942.44        70.55999
942.84        72.16383
943.23          73.173
943.62        73.21488
944.01        72.59246
944.40        71.69681
944.79        71.13948
945.18        71.10859
945.57         71.3746
945.97        71.77079
946.36        72.15972
946.75        72.42849
947.14        72.65868
947.53         72.8015
947.92        72.73702
948.31        72.45969
948.70        72.00963
949.09        71.51601
949.48        71.17619
949.87         71.0672
950.26        71.19002
950.65        71.50671
951.04        71.93112
951.43        72.39737
951.82        72.84361
952.21        73.32027
952.60        73.94452
952.99        74.67011
953.38        75.40332
953.77        75.82805
954.16        75.41119
954.55        74.12609
954.94        72.30767
955.33        70.38198
955.72        68.97476
956.11        68.28407
956.50        68.09235
956.89         68.4643
957.28        69.48864
957.66        71.09518
958.05        73.13951
958.44        74.95957
958.83         75.2961
959.22        73.92099
959.61        71.31663
960.00        68.44429
960.39        66.68967
960.78        66.37132
961.16        67.11902
961.55        68.50242
961.94        69.87836
962.33        70.93186
962.72        71.85267
963.11        72.46435
963.49        72.45276
963.88        71.77102
964.27        70.54445
964.66        69.16254
965.04         68.2066
965.43        67.77608
965.82        67.70106
966.21        67.88758
966.60        68.11143
966.98        68.26873
967.37        68.45799
967.76        68.48103
968.15        67.97851
968.53        66.95963
968.92        65.52415
969.31        64.19732
969.69        63.82221
970.08        64.52424
970.47        66.07056
970.86        67.90813
971.24        68.99053
971.63        68.90981
972.02        68.02834
972.40        66.73032
972.79        65.65231
973.17        65.05056
973.56         64.7382
973.95        64.72881
974.33        65.07313
974.72        65.67588
975.11        66.51041
975.49        67.51889
975.88        68.47495
976.26        69.28922
976.65        69.91785
977.04        70.07679
977.42        69.33268
977.81         67.7218
978.19        65.42437
978.58        63.45638
978.96        63.10161
979.35         64.5703
979.74        67.59177
980.12        71.34332
980.51        73.51874
980.89        73.51813
981.28        71.81271
981.66        69.40663
982.05        68.07407
982.43        68.27995
982.82        69.43281
983.20        71.23502
983.59        72.99639
983.97        74.48431
984.35        75.89793
984.74        76.78793
985.12        76.54645
985.51        75.12201
985.89        72.62402
986.28        70.02448
986.66        68.76689
987.04        69.29682
987.43        71.23802
987.81         73.6364
988.20        74.60762
988.58        73.69312
988.96        71.31987
989.35        68.63358
989.73        67.44425
990.12        68.14757
990.50        70.23532
990.88         72.5126
991.27        73.05945
991.65         71.5215
992.03        68.59842
992.42        65.52502
992.80        63.91771
993.18        64.29288
993.56        66.06343
993.95        68.41647
994.33         70.2555
994.71        70.93249
995.10          70.822
995.48          70.099
995.86        69.04313
996.24        67.89308
996.63        66.56516
997.01        65.30453
997.39        64.48467
997.77        64.17422
998.15        64.36338
998.54        64.89019
998.92        65.38989
999.30        65.73256
999.68        65.99024
1000.06         66.2405
1000.45        66.60813
1000.83        67.22971
1001.21        67.91773
1001.59        68.55675
1001.97        69.00208
1002.35        69.17838
1002.73        69.12048
1003.12        68.84766
1003.50         68.3429
1003.88        67.70186
1004.26        67.01965
1004.64         66.3812
1005.02        65.85707
1005.40        65.51254
1005.78        65.39461
1006.16        65.59825
1006.54          66.255
1006.92        67.31715
1007.30        68.59576
1007.69        69.89819
1008.07        71.19442
1008.45        72.27105
1008.83        73.11615
1009.21        73.41418
1009.59        72.67371
1009.97        70.90945
1010.35         68.3713
1010.73        65.75721
1011.11         64.2696
1011.49        64.36423
1011.86        65.99961
1012.24        68.58991
1012.62         71.3225
1013.00        73.74706
1013.38        75.93175
1013.76        77.86115
1014.14        79.65988
1014.52        81.27769
1014.90        82.44739
1015.28        82.77081
1015.66        81.80405
1016.04        79.76969
1016.41        77.22169
1016.79         74.8501
1017.17        72.98615
1017.55        71.48029
1017.93        70.04534
1018.31        68.66745
1018.69        67.69914
1019.06        67.46512
1019.44          67.959
1019.82        68.51846
1020.20        68.48021
1020.58        67.82463
1020.95        66.52288
1021.33        65.23245
1021.71        65.44803
1022.09        67.77299
1022.46        71.58039
1022.84        75.43901
1023.22        77.67732
1023.60        77.89324
1023.97        76.63919
1024.35        74.24599
1024.73        71.45398
