SpectraSmart Spectrum 2.9.0.0
--------- Device Information -----------
Spectrum Name :  反射率_0
Saving Time :  2024/05/01 16:39:54
Spectro-Module Model Name : SE2030-DUVN
Spectro-Module Serial Number : OS361AC55029948
Wavelength Start : 200
Wavelength End : 1025
Wavelength Unit : Wavelength(nm)
Spectrum Unit : Reflectance(%)
-----------Spectrum Setting ------------
Integration Time : 20ms
Average : 10
Boxcar : 0
Background removal :  enabled
linearity correction :  enabled
SC :  disabled
Intensity correction :  disabled
DWT denoise :  enabled
savitzky-golay :  disabled
FFT :  disabled
Running average :  disabled
Kalman :  disabled
High pass :  disabled
---------------BEGIN--------------------
Wavelength(nm)             Reflectance(%)
200.29               0
200.75        158.5869
201.21        626.2623
201.67       -238.4395
202.13       -75.01236
202.58       -22.04255
203.04        9.556089
203.50        29.19368
203.96        38.30873
204.42        39.53117
204.88        28.51441
205.34       -300.9927
205.80        87.60218
206.26        53.02004
206.72        10.63402
207.18       -170.9688
207.64        317.1148
208.10        132.5625
208.55        81.31557
209.01        54.24594
209.47        42.63101
209.93        40.41066
210.39         41.8122
210.85        44.32099
211.31        44.10705
211.77        32.72038
212.23        124.5709
212.69        75.00813
213.14        88.15164
213.60        155.6212
214.06       -611.1563
214.52       -79.61127
214.98       -41.17875
215.44       -25.71698
215.90       -5.954604
216.36        199.5409
216.81       -90.76944
217.27       -51.92229
217.73       -147.1559
218.19       -91.24902
218.65       -93.40433
219.11       -109.9968
219.57       -159.7088
220.02       -303.6193
220.48       -95.16702
220.94       -20.05551
221.40       -6.246517
221.86       -1.397933
222.32        3.231283
222.77        9.908119
223.23        19.56531
223.69         32.0986
224.15        39.46611
224.61        37.31226
225.06        31.16817
225.52        26.47287
225.98        25.28156
226.44        27.16124
226.90        31.52475
227.36        37.34465
227.81        39.90994
228.27        37.45272
228.73         33.1855
229.19        29.70748
229.65        28.21506
230.10        28.49178
230.56        30.38408
231.02         33.4465
231.48        36.09766
231.93        37.23716
232.39        37.34818
232.85        37.59545
233.31         39.2803
233.77        42.19185
234.22         45.6484
234.68         48.6884
235.14        50.30945
235.60        50.41691
236.05        49.24787
236.51        47.16732
236.97        46.26438
237.43        48.11644
237.88        52.32016
238.34        56.82332
238.80        59.63879
239.26        60.30892
239.71        59.11711
240.17        55.11778
240.63        48.73568
241.08        42.82043
241.54        39.29792
242.00        38.54526
242.46        39.75927
242.91        43.21197
243.37        49.71537
243.83        62.66752
244.28        79.48511
244.74        86.63658
245.20         85.3328
245.66        80.85275
246.11        75.18123
246.57        67.60813
247.03        55.18401
247.48        34.03164
247.94        7.172215
248.40       -13.34762
248.85       -23.30398
249.31       -18.23555
249.77       -1.901418
250.22        17.00167
250.68         34.4315
251.14        47.25394
251.59        54.58781
252.05        58.42266
252.51         60.0326
252.96        61.61583
253.42        77.98086
253.88        108.3572
254.33        117.0115
254.79        112.3672
255.25        104.6516
255.70        96.26437
256.16        89.26785
256.62        83.76614
257.07        80.10388
257.53        78.55913
257.99         77.9894
258.44        77.64888
258.90        77.59404
259.35        77.28156
259.81         77.0267
260.27        76.75462
260.72        76.46782
261.18        76.39689
261.63         76.0916
262.09        75.56531
262.55        74.30965
263.00        72.32132
263.46         70.0983
263.91        67.81999
264.37        66.14072
264.83        65.01013
265.28        64.18729
265.74        63.54891
266.19        62.60093
266.65        61.39991
267.11        60.01433
267.56        58.63584
268.02        57.66966
268.47        57.13031
268.93        56.83728
269.38        56.57608
269.84        55.96801
270.30        54.94325
270.75        53.63576
271.21        52.20148
271.66        50.72413
272.12        49.34237
272.57        47.97702
273.03        46.78856
273.48        45.95104
273.94        45.49826
274.39        45.30409
274.85         45.1946
275.31        44.82105
275.76        44.10747
276.22        43.23595
276.67        42.26608
277.13        41.43191
277.58        40.70083
278.04        40.03121
278.49        39.38484
278.95        38.85634
279.40        38.37717
279.86        37.99624
280.31         37.5219
280.77        36.79942
281.22        35.78227
281.68        34.63387
282.13        33.49985
282.59        32.69044
283.04        32.21827
283.50        32.03854
283.95        32.00651
284.41        31.96279
284.86        31.83671
285.32        31.69754
285.77        31.60197
286.22         31.6818
286.68        31.94956
287.13        32.32157
287.59          32.686
288.04        32.82621
288.50        32.72714
288.95        32.41536
289.41        32.07952
289.86        31.89127
290.32        31.92941
290.77        32.14283
291.22        32.41681
291.68        32.55751
292.13        32.54624
292.59        32.50302
293.04        32.60408
293.50        33.17142
293.95        34.23636
294.40        35.68381
294.86        37.30922
295.31        38.79771
295.77        40.04383
296.22        41.11951
296.68         42.1127
297.13        43.14172
297.58        44.28701
298.04         45.5448
298.49        46.90667
298.95        48.40408
299.40        49.99657
299.85        51.66023
300.31        53.43523
300.76         55.3591
301.21        57.43894
301.67        59.66888
302.12        61.82966
302.58        63.61127
303.03        64.92003
303.48         65.8839
303.94        66.85896
304.39        68.26246
304.84        70.23367
305.30        72.62359
305.75        75.12747
306.20        77.29801
306.66        79.01194
307.11        80.34693
307.57        81.51245
308.02        82.70545
308.47        84.02947
308.93         85.4163
309.38        86.73418
309.83        87.88342
310.29        88.85931
310.74        89.70612
311.19        90.51896
311.65        91.40768
312.10        92.37511
312.55        93.37784
313.00         94.3915
313.46        95.38513
313.91        96.32088
314.36        97.20319
314.82        97.94926
315.27        98.44383
315.72         98.6615
316.18        98.67633
316.63        98.57785
317.08        98.57551
317.53        98.73286
317.99        99.00754
318.44        99.35857
318.89        99.68561
319.35        99.95512
319.80        100.2149
320.25        100.4725
320.70        100.7431
321.16        101.0182
321.61        101.2913
322.06        101.5753
322.51        101.9196
322.97        102.2967
323.42        102.7213
323.87         103.092
324.32        103.2681
324.78        103.2169
325.23        103.0278
325.68        102.7823
326.13        102.6349
326.59        102.6221
327.04        102.7544
327.49        103.0102
327.94        103.3726
328.39        103.8121
328.85        104.2865
329.30        104.8068
329.75        105.2311
330.20        105.5243
330.66        105.6787
331.11        105.7802
331.56        105.8563
332.01        105.9488
332.46        106.0579
332.92        106.2207
333.37        106.6043
333.82        107.2062
334.27        108.0166
334.72        108.9282
335.17        109.7389
335.63        110.3417
336.08        110.7996
336.53        111.1756
336.98        111.6548
337.43        112.2845
337.88        113.0201
338.34        113.6816
338.79         114.063
339.24         114.086
339.69        113.8335
340.14        113.5655
340.59        113.6833
341.05        114.2629
341.50        115.2069
341.95        116.2159
342.40        116.8005
342.85        116.8562
343.30        116.5555
343.75        116.2065
344.20        116.2869
344.66        116.9044
345.11        117.8864
345.56         119.014
346.01        119.9151
346.46        120.4628
346.91        120.7877
347.36        120.9662
347.81        121.1135
348.26        121.2876
348.72        121.4415
349.17        121.6099
349.62        121.9342
350.07        122.3944
350.52        122.9179
350.97        123.3449
351.42        123.4004
351.87        123.0409
352.32        122.4137
352.77        121.5899
353.22        120.6828
353.67        119.7804
354.13        118.8818
354.58        118.1622
355.03        118.0007
355.48        118.4177
355.93         119.324
356.38        120.2531
356.83        120.4125
357.28        119.6421
357.73        118.1899
358.18        116.6246
358.63        115.8031
359.08         115.885
359.53        116.5779
359.98         117.417
360.43        117.6301
360.88        116.9958
361.33        115.7879
361.78        114.3307
362.23        113.0706
362.68        112.1401
363.13        111.4017
363.58        110.7342
364.03         109.978
364.48        109.0851
364.93        108.1141
365.38        107.1799
365.83        106.4194
366.28        105.8463
366.73        105.4253
367.18        104.9435
367.63        104.0806
368.08        102.8172
368.53        101.2811
368.98        99.82627
369.43        98.96355
369.88        98.76509
370.33        99.06096
370.78        99.48254
371.23        99.38585
371.68        98.59571
372.13        97.33472
372.58        95.91959
373.03        94.81826
373.48         94.1509
373.93         93.7514
374.38        93.50081
374.83         93.2185
375.28        92.82912
375.72        92.39487
376.17        91.91686
376.62        91.32137
377.07        90.61335
377.52        89.79539
377.97        88.97137
378.42        88.32298
378.87        87.88445
379.32        87.60667
379.77        87.37528
380.22        87.00105
380.67        86.44585
381.11        85.78671
381.56        85.10838
382.01        84.57183
382.46        84.22883
382.91        84.01713
383.36        83.89512
383.81        83.80344
384.26        83.69605
384.71         83.5733
385.15        83.37433
385.60        83.05312
386.05        82.59534
386.50        82.03645
386.95        81.42464
387.40        80.84622
387.85        80.33863
388.29        79.83634
388.74        79.45846
389.19        79.18027
389.64        78.98158
390.09        78.84668
390.54         78.6918
390.98        78.36718
391.43        77.90879
391.88        77.35124
392.33        76.79511
392.78        76.39974
393.23        76.19387
393.67        76.04703
394.12        75.94779
394.57        75.88313
395.02        75.74641
395.47        75.22437
395.91        74.51304
396.36        74.20691
396.81        74.37663
397.26        74.77405
397.71        75.10585
398.15        75.03065
398.60        74.58349
399.05        73.68159
399.50        72.73426
399.95        72.60474
400.39         73.3853
400.84        73.72913
401.29        73.50407
401.74        73.31776
402.18        73.13071
402.63        72.45629
403.08        71.52273
403.53        70.93259
403.97        70.76148
404.42        70.83773
404.87        71.00529
405.32        71.02411
405.76        70.82526
406.21        70.55379
406.66        70.26076
407.11        70.00533
407.55         69.8833
408.00        69.81259
408.45        69.79346
408.90        70.06933
409.34        70.40601
409.79        70.01289
410.24        69.09274
410.68        68.66085
411.13        68.79427
411.58        68.93094
412.03        68.96883
412.47         69.0001
412.92        68.96259
413.37        68.85413
413.81        68.71204
414.26        68.64423
414.71        68.64958
415.15        68.71414
415.60        68.77336
416.05        68.77647
416.49        68.70619
416.94        68.57195
417.39        68.40951
417.83        68.25758
418.28        68.14056
418.73        68.06749
419.17        68.00368
419.62        67.90469
420.07        67.76105
420.51        67.54603
420.96        67.39766
421.41        67.45285
421.85        67.66064
422.30        68.05979
422.74        68.46496
423.19        68.40938
423.64        68.01467
424.08         68.1345
424.53        68.71065
424.98         68.9178
425.42        68.65926
425.87        68.58571
426.31        68.70614
426.76        68.15548
427.21        67.27644
427.65        67.77351
428.10        69.22586
428.54        69.50195
428.99        68.68667
429.44        67.83723
429.88        67.31017
430.33        68.07195
430.77        69.51424
431.22        69.30142
431.66        67.69375
432.11        67.05846
432.56        67.52713
433.00        68.11185
433.45        68.67388
433.89        68.16653
434.34        67.94816
434.78        69.24587
435.23        69.05523
435.67        68.95329
436.12        68.25138
436.57        68.53822
437.01        69.59467
437.46        70.44185
437.90        69.77942
438.35         69.6277
438.79        69.66253
439.24        69.38961
439.68        68.92539
440.13        68.89193
440.57        69.29107
441.02        69.59177
441.46        69.71361
441.91        70.07257
442.35        70.45226
442.80        70.42164
443.24        70.12967
443.69        69.85727
444.13        69.73087
444.58        69.65015
445.02        69.61263
445.47        69.78059
445.91        70.10699
446.36        70.34598
446.80        70.42728
447.24        70.84451
447.69        70.81675
448.13        70.90951
448.58        70.91119
449.02        70.81794
449.47        70.70027
449.91        70.64832
450.36        70.70422
450.80        70.81457
451.25        70.92122
451.69         70.8847
452.13        70.68683
452.58        70.38135
453.02        70.04603
453.47        69.79643
453.91        69.64657
454.36        69.66145
454.80        69.79601
455.24         69.5056
455.69        69.45298
456.13        69.17683
456.58        69.05585
457.02        68.60482
457.46         68.9053
457.91         69.2042
458.35        69.60786
458.79        69.62605
459.24        69.24488
459.68        68.75318
460.13        68.40131
460.57        67.47043
461.01        68.00205
461.46        67.54855
461.90        67.94756
462.34        68.00677
462.79         67.3028
463.23        67.28121
463.68        67.59624
464.12        67.66072
464.56        67.43449
465.01        67.17523
465.45        67.17957
465.89        67.24631
466.34        67.31705
466.78        67.51387
467.22        66.74155
467.67        66.55741
468.11        66.43365
468.55        66.44401
468.99        66.46484
469.44        66.47234
469.88        66.46984
470.32        66.50288
470.77        66.55621
471.21        66.56802
471.65        66.51084
472.10        66.41261
472.54        66.28439
472.98        66.13187
473.42        65.95589
473.87        65.90295
474.31         65.9026
474.75        65.58293
475.20        65.09059
475.64        65.19426
476.08        65.76255
476.52        65.83987
476.97        65.32875
477.41        65.46743
477.85        64.56993
478.29        65.11848
478.74        64.90552
479.18        65.38039
479.62        65.08015
480.06        65.15791
480.50        65.36691
480.95        64.51019
481.39        64.94115
481.83        64.18431
482.27        64.59344
482.72        64.61253
483.16        64.64732
483.60        64.62737
484.04        65.07471
484.48        65.19968
484.93        65.42916
485.37        65.80571
485.81         65.7668
486.25        66.56544
486.69        67.07631
487.14        64.83492
487.58        63.11795
488.02        65.38618
488.46        64.25275
488.90        63.89317
489.34        64.38986
489.79        63.93335
490.23        63.95672
490.67        63.81928
491.11         63.8476
491.55        64.03035
491.99        64.26809
492.43         64.3522
492.88        64.23394
493.32        64.04287
493.76        63.87113
494.20        63.79322
494.64        63.81784
495.08        64.02467
495.52         64.3052
495.96        64.14007
496.41        63.63791
496.85        63.68627
497.29        64.13058
497.73        64.00121
498.17        63.39684
498.61         63.0214
499.05        63.02654
499.49        63.51038
499.93        64.22343
500.37        64.21104
500.82        63.57381
501.26        63.43681
501.70        63.85544
502.14        64.11691
502.58         64.1041
503.02        64.05125
503.46        63.96367
503.90        63.48352
504.34        63.28039
504.78        63.14397
505.22        63.27795
505.66        63.60783
506.10        63.98868
506.54        64.16676
506.98         64.0573
507.42        63.76218
507.86        63.35396
508.30         63.1075
508.74        63.04013
509.18        63.22432
509.62        63.61968
510.06        63.30967
510.50        63.62651
510.94        63.50834
511.38        63.40323
511.82        63.33412
512.26        63.32268
512.70        63.31936
513.14        63.29518
513.58        63.24953
514.02        63.17348
514.46        63.08464
514.90        62.96758
515.34        62.79143
515.78        62.56834
516.22        62.32138
516.66        62.11737
517.10        62.05701
517.54        62.15529
517.98        62.37439
518.42         62.6489
518.86        62.86339
519.30        62.97742
519.74        63.03005
520.18        63.03304
520.62        62.98521
521.06        62.91278
521.50        62.85892
521.93        62.84004
522.37        62.82152
522.81        62.80926
523.25        62.84455
523.69         62.8785
524.13        62.81033
524.57        62.63478
525.01        62.38804
525.45        62.15949
525.89        62.08921
526.32        62.20194
526.76        62.44665
527.20        62.72823
527.64        62.90102
528.08        62.92345
528.52        62.82789
528.96        62.67019
529.40        62.57697
529.83        62.55267
530.27        62.49804
530.71        62.42321
531.15        62.43628
531.59        62.53735
532.03        62.66973
532.46        62.78479
532.90        62.84347
533.34        62.83038
533.78         62.7092
534.22        62.52126
534.66        62.43956
535.09        62.42514
535.53        62.24504
535.97        61.93838
536.41        61.78745
536.85        61.80975
537.28        61.85555
537.72        61.91104
538.16        61.99711
538.60        62.09201
539.04        62.21454
539.47        62.32121
539.91        62.31373
540.35        62.21941
540.79        62.23438
541.22        62.32185
541.66        62.35212
542.10        62.17966
542.54        62.04229
542.97        61.94057
543.41        61.92375
543.85        61.99257
544.29        62.14067
544.72        62.30019
545.16        62.39097
545.60        62.38071
546.04        62.28617
546.47         62.1645
546.91        62.12482
547.35        62.19435
547.79         62.3172
548.22         62.3954
548.66        62.42107
549.10        62.38338
549.53         62.0072
549.97        61.90488
550.41         61.8558
550.84        62.03418
551.28        62.21381
551.72        62.35267
552.15        62.61184
552.59        62.88712
553.03        62.76825
553.46        62.32806
553.90        62.15242
554.34        62.28183
554.77        62.28746
555.21         62.1048
555.65        62.46924
556.08        62.16745
556.52        62.11456
556.96        61.99416
557.39        61.83787
557.83        61.68126
558.27        61.69422
558.70        61.91892
559.14        61.64415
559.57        61.92093
560.01        62.02124
560.45        62.15598
560.88        62.11282
561.32        61.95952
561.75        61.63861
562.19        61.35959
562.63        61.64572
563.06        62.26265
563.50        62.55873
563.93        61.81625
564.37        61.53038
564.80        61.92447
565.24        62.03698
565.68        61.96243
566.11         61.9352
566.55        61.99106
566.98        62.01398
567.42        62.04701
567.85        62.13731
568.29        62.30785
568.72        62.40127
569.16         62.7115
569.60        62.76301
570.03        62.54807
570.47        62.72432
570.90        62.87709
571.34        62.15109
571.77        62.56173
572.21        62.69381
572.64        63.17802
573.08        62.69365
573.51        62.53227
573.95        63.32721
574.38        62.87085
574.82        63.09026
575.25        63.58315
575.69        63.79832
576.12        63.15353
576.56        62.42093
576.99        63.39105
577.42        63.31127
577.86        63.29265
578.29        63.62621
578.73        64.49149
579.16        63.25379
579.60        62.73203
580.03        62.30859
580.47        63.03444
580.90        62.48137
581.33        63.42741
581.77        63.70038
582.20        64.08224
582.64        64.27914
583.07        63.56779
583.51         62.9459
583.94         62.5484
584.37         62.6714
584.81        63.32471
585.24        63.58288
585.68        63.41674
586.11        63.50246
586.54        63.52138
586.98        62.34659
587.41        62.42077
587.85        63.53608
588.28        63.50204
588.71         62.1298
589.15        63.14895
589.58        62.32878
590.01        62.07706
590.45        62.07565
590.88        62.39399
591.31        62.51456
591.75        62.29206
592.18         62.0803
592.61        61.71471
593.05         62.3459
593.48         62.5838
593.91        62.93029
594.35         62.4085
594.78        62.17283
595.21         61.9935
595.65        62.46321
596.08        62.52775
596.51        62.03608
596.94        61.77482
597.38        61.59113
597.81        61.87011
598.24        61.73466
598.68          62.028
599.11        61.70089
599.54        63.07071
599.97        62.63683
600.41        62.06866
600.84        62.83293
601.27        62.44767
601.70        62.79272
602.14        63.01847
602.57         62.7257
603.00        62.10801
603.43        61.84399
603.87        62.35127
604.30        62.62642
604.73        62.18458
605.16        61.92806
605.60        61.75357
606.03        61.98629
606.46        62.39983
606.89        62.26162
607.32        61.78122
607.76        61.57989
608.19        61.74352
608.62        62.26351
609.05        62.26972
609.48        62.33751
609.92        61.89699
610.35        61.80244
610.78        62.66772
611.21        62.69312
611.64        62.03759
612.07         62.7569
612.50        62.52859
612.94        62.45604
613.37        62.14369
613.80        62.13143
614.23        61.81119
614.66        62.10289
615.09        61.83818
615.52        61.93181
615.96        62.03484
616.39        62.13362
616.82        62.07541
617.25        62.06218
617.68        62.06105
618.11        62.09954
618.54        62.12486
618.97        61.93421
619.40        61.63364
619.84        61.46206
620.27        61.42792
620.70        61.75066
621.13        62.40514
621.56        61.65807
621.99        61.21312
622.42        61.76276
622.85        61.89698
623.28        61.48393
623.71        61.49415
624.14        61.87092
624.57        61.74934
625.00        61.86474
625.43        61.85842
625.86        61.76393
626.29        61.53279
626.72        61.64141
627.15        61.34256
627.58        61.17767
628.01        60.97765
628.44        61.06561
628.87        61.38419
629.30        61.43799
629.73        61.19926
630.16         61.4888
630.59        61.38551
631.02        61.43325
631.45         61.3604
631.88        61.29703
632.31        61.24753
632.74        61.18961
633.17        61.14511
633.60        61.12281
634.03        61.12614
634.46        61.16039
634.89        61.19722
635.32        61.18532
635.75        61.11462
636.18        60.99657
636.61        60.87282
637.04        60.81362
637.47        60.83884
637.89         60.9187
638.32        60.97859
638.75        60.99304
639.18        60.95792
639.61        60.64033
640.04        60.56243
640.47        60.46069
640.90        60.49593
641.33        60.61421
641.76        60.74879
642.18        60.87337
642.61        60.95949
643.04        60.88691
643.47        60.63716
643.90        61.03967
644.33        60.79329
644.76        60.84599
645.18        60.82934
645.61        61.01169
646.04        61.28745
646.47        61.18016
646.90        60.77778
647.33        60.62826
647.75        60.76226
648.18        60.86295
648.61        60.90368
649.04        60.90813
649.47        60.85064
649.89        60.93173
650.32        61.06798
650.75        60.71006
651.18        60.07052
651.61        60.15862
652.03         60.8933
652.46        61.16756
652.89        60.90836
653.32        60.74722
653.74        60.88537
654.17        60.69397
654.60        60.94778
655.03        61.10028
655.46        60.25247
655.88        60.88252
656.31        69.88366
656.74        69.97214
657.16        63.68756
657.59        61.80006
658.02        61.61015
658.45        61.50436
658.87         61.5245
659.30        60.58252
659.73        60.80316
660.15        61.44109
660.58        60.99804
661.01        60.78982
661.44        60.34338
661.86        60.42263
662.29        60.91579
662.72        61.11349
663.14        60.99619
663.57        60.97309
664.00         61.0795
664.42        61.11568
664.85        61.08789
665.27        61.03786
665.70        60.98158
666.13        60.94935
666.55        60.95413
666.98        60.96137
667.41        60.98108
667.83        61.03931
668.26        61.12037
668.69        61.22277
669.11        61.30838
669.54        61.33916
669.96        61.30123
670.39        61.14957
670.82         60.9762
671.24        60.97142
671.67        61.15806
672.09        61.44231
672.52        61.73013
672.94        61.84952
673.37        61.76795
673.80        61.53853
674.22        61.25272
674.65        61.03286
675.07         60.9421
675.50        60.93158
675.92         60.9808
676.35        61.04572
676.77        61.10889
677.20        61.18288
677.62        61.25757
678.05        61.29396
678.47        61.28282
678.90        61.25056
679.32        61.21649
679.75        61.19128
680.17        61.16578
680.60        61.31561
681.02        61.30135
681.45        61.35334
681.87        61.37326
682.30        61.42681
682.72        61.48989
683.15        61.38321
683.57        61.16845
684.00        61.10631
684.42        61.22348
684.85         61.3363
685.27        61.41899
685.70        61.63505
686.12         61.8803
686.54        61.84573
686.97        61.54516
687.39        61.31328
687.82        61.16294
688.24        60.94344
688.66        60.50223
689.09        60.54031
689.51        60.93213
689.94        61.14505
690.36        61.13882
690.78        61.19559
691.21        61.35856
691.63        61.52584
692.06        61.72575
692.48        62.09354
692.90         62.5254
693.33         62.7225
693.75        62.65006
694.17        62.39336
694.60        62.07721
695.02        61.87463
695.44        61.77127
695.87        61.68216
696.29        61.64817
696.71          61.216
697.14        61.29013
697.56        61.59159
697.98        62.21271
698.41        62.53125
698.83        62.48654
699.25        62.37942
699.68        62.26193
700.10        62.18022
700.52        62.16375
700.94        62.15493
701.37        62.15224
701.79        62.27067
702.21        62.43428
702.64          62.478
703.06         62.4026
703.48        62.26907
703.90        62.07189
704.33        62.17195
704.75        61.82463
705.17        61.78713
705.59        61.84546
706.01        61.97757
706.44        62.17236
706.86        62.39186
707.28        62.59274
707.70        62.86678
708.12        63.18212
708.55         62.9689
708.97        63.03547
709.39        62.75994
709.81        62.46656
710.23        62.28357
710.66        62.26218
711.08        62.36696
711.50        62.52387
711.92        62.64675
712.34        62.70402
712.76        62.72751
713.19        62.71569
713.61        62.71016
714.03        62.70346
714.45        62.67733
714.87        62.65991
715.29        62.69932
715.71        62.79809
716.13        62.95202
716.56        63.09117
716.98        63.13361
717.40        63.02623
717.82        62.87334
718.24        62.77806
718.66        62.51556
719.08        62.73367
719.50        62.89329
719.92         63.0938
720.34        63.18077
720.76        63.12255
721.19        62.95835
721.61         62.7565
722.03         62.6337
722.45        62.62834
722.87        62.71598
723.29         62.8518
723.71        62.96296
724.13        63.02275
724.55        63.03873
724.97        63.06395
725.39        63.18325
725.81        63.40112
726.23        63.68301
726.65        63.91286
727.07        63.90905
727.49        63.64866
727.91        63.20594
728.33        62.73599
728.75        62.48475
729.17         62.5156
729.59        62.74149
730.01        63.05916
730.43        63.31705
730.85        63.45744
731.27        63.41637
731.69        63.42469
732.10        63.32555
732.52        63.21128
732.94        63.05509
733.36        62.93303
733.78         62.9798
734.20        63.20679
734.62        63.57494
735.04        63.96364
735.46        64.15535
735.88        64.11927
736.30        63.97171
736.72        63.76537
737.13        63.59481
737.55        63.48226
737.97         63.3361
738.39        63.21796
738.81        63.42594
739.23         63.8713
739.65        64.04982
740.06        63.90717
740.48        63.87581
740.90        63.93264
741.32        63.84814
741.74        63.62119
742.16        63.41063
742.57        63.25326
742.99        63.07542
743.41        62.96269
743.83        63.09173
744.25        63.43231
744.67        63.81044
745.08        64.11312
745.50        64.20615
745.92        64.05914
746.34        63.67114
746.75        63.17334
747.17        62.83559
747.59        62.70716
748.01        62.74281
748.42        62.89788
748.84        63.00791
749.26        63.06599
749.68        63.22314
750.09        63.43484
750.51        63.53863
750.93        63.51817
751.35        63.44678
751.76        63.37188
752.18        63.34017
752.60        63.37748
753.01        63.49087
753.43        63.63053
753.85        63.74707
754.27        63.82528
754.68        63.88692
755.10         63.9643
755.52        64.05722
755.93        64.22865
756.35        64.38934
756.77        64.52499
757.18        64.52502
757.60        64.38469
758.02        64.30153
758.43         64.2412
758.85         63.8795
759.26        63.37925
759.68        63.45374
760.10        64.05033
760.51        64.41157
760.93        64.39582
761.34        64.38628
761.76        64.38802
762.18        64.05023
762.59         63.5649
763.01        63.57204
763.42        64.08605
763.84        64.33774
764.26        64.28693
764.67        64.33789
765.09        64.49799
765.50        64.49557
765.92        64.35091
766.33        64.11584
766.75        63.80606
767.16        63.67919
767.58        63.74091
768.00        63.84093
768.41        64.03256
768.83        64.52171
769.24        65.18828
769.66        65.68986
770.07        65.90121
770.49        65.72928
770.90        65.29701
771.32        65.07697
771.73        65.10704
772.15        64.97232
772.56        64.70386
772.97        64.62601
773.39        64.72225
773.80        64.82696
774.22        64.88672
774.63        64.99727
775.05        65.10532
775.46        65.18253
775.88        65.19617
776.29         65.1712
776.70        65.12993
777.12        65.14265
777.53         65.2295
777.95        65.33583
778.36        65.44481
778.77        65.46102
779.19        65.36878
779.60         65.3455
780.02        65.34776
780.43        65.04768
780.84        64.63475
781.26        64.64934
781.67          65.046
782.09        65.66143
782.50        65.94952
782.91        65.57611
783.33        64.70412
783.74        64.45966
784.15        64.95206
784.57        65.50153
784.98        65.98429
785.39        66.45507
785.81        66.83739
786.22        66.90163
786.63        67.04146
787.04        66.96488
787.46        66.84127
787.87        66.62451
788.28        66.42665
788.70        66.39156
789.11        66.51768
789.52        66.79239
789.93        67.09647
790.35        67.21734
790.76        67.12378
791.17        66.86088
791.58        66.53591
792.00        66.31826
792.41        66.27088
792.82        66.30685
793.23        66.36323
793.65        66.46012
794.06        66.52539
794.47        66.30064
794.88        65.94148
795.29         65.8839
795.71        66.09582
796.12        66.49049
796.53        66.89456
796.94        66.97636
797.35        66.68444
797.76        66.32618
798.18        66.05341
798.59        65.87087
799.00        65.84029
799.41        66.00848
799.82        66.32025
800.23        66.62076
800.64        66.85406
801.06        67.04528
801.47        67.18534
801.88        67.16337
802.29         66.9782
802.70        66.65674
803.11        66.31439
803.52        66.14675
803.93        66.21062
804.34        66.45518
804.75        66.80976
805.17        67.16591
805.58        67.50587
805.99        67.69913
806.40        67.74212
806.81        67.94072
807.22         68.1621
807.63        67.71635
808.04        66.79758
808.45        66.36076
808.86        66.51572
809.27        66.79353
809.68        67.04643
810.09        67.20745
810.50        67.20628
810.91        67.07872
811.32        66.89143
811.73        66.75298
812.14        66.70773
812.55        66.71668
812.96        66.80077
813.37        66.99542
813.78        67.28616
814.19        67.65826
814.60        68.02093
815.01        68.23621
815.42        68.27238
815.83         68.1486
816.24        67.93999
816.65        67.80138
817.05        67.79162
817.46        67.85757
817.87        67.94105
818.28        67.90669
818.69        67.72746
819.10         67.4435
819.51        67.16459
819.92        67.08522
820.33        67.25258
820.74        67.59481
821.14        67.95645
821.55        68.13564
821.96        68.07442
822.37        67.84731
822.78        67.56808
823.19        67.43939
823.60        67.53612
824.00         67.8158
824.41        68.17459
824.82        68.54369
825.23        68.86572
825.64        69.14063
826.04        69.36742
826.45        69.46971
826.86         69.4603
827.27        69.35638
827.68        69.12978
828.08        68.76588
828.49        68.25833
828.90        67.64234
829.31        67.09034
829.72        66.85733
830.12        67.02893
830.53        67.52866
830.94        68.11839
831.35        68.31542
831.75         68.0176
832.16        67.31513
832.57        66.61624
832.97        66.54076
833.38        67.18722
833.79        68.34638
834.20         69.5937
834.60        70.20506
835.01         69.9605
835.42        69.13264
835.82        68.07095
836.23        67.30676
836.64        67.01666
837.04        67.05246
837.45        67.30959
837.86        67.67291
838.26        68.06896
838.67        68.50562
839.08        68.90381
839.48        69.09107
839.89        69.02186
840.29        68.73111
840.70        68.32671
841.11        67.96556
841.51        67.72568
841.92        67.55891
842.33         67.5063
842.73        67.62838
843.14        67.87422
843.54        68.27911
843.95         68.7136
844.35        69.02271
844.76        69.12249
845.17        69.03156
845.57        68.84996
845.98         68.7377
846.38        68.75548
846.79        68.85176
847.19        68.92874
847.60        68.74807
848.00        68.30015
848.41        67.65643
848.81        67.05127
849.22        66.80756
849.62        67.00854
850.03        67.54366
850.43        68.18787
850.84        68.41351
851.24        68.14694
851.65        67.49845
852.05         66.8248
852.46        66.68377
852.86        67.17013
853.27        68.06384
853.67        69.00972
854.07        69.71645
854.48        70.04659
854.88        70.18508
855.29        70.03825
855.69        69.73224
856.10        69.24779
856.50        68.63716
856.90        68.03349
857.31         67.6481
857.71        67.51382
858.12        67.54018
858.52        67.68518
858.92        67.65466
859.33        67.36584
859.73        66.96236
860.13        66.46775
860.54        65.94876
860.94        65.45588
861.34        64.95371
861.75        64.58383
862.15        64.63406
862.55        65.11719
862.96        65.92075
863.36        66.77175
863.76        67.14106
864.17        66.90609
864.57        66.23739
864.97        65.39996
865.38        64.84894
865.78        64.74513
866.18        64.92508
866.58        65.26532
866.99        65.53771
867.39        65.67582
867.79        65.77435
868.19        65.77239
868.60        65.53278
869.00        65.06254
869.40        64.38301
869.80        63.77209
870.21        63.75388
870.61        64.46962
871.01        65.66595
871.41        66.89604
871.81        67.48908
872.22        67.28714
872.62        66.51228
873.02        65.43095
873.42        64.49269
873.82        63.90131
874.22        63.56798
874.63        63.49414
875.03        63.67432
875.43        64.06583
875.83         64.6606
876.23        65.38519
876.63        66.10223
877.03        66.73724
877.44        67.26254
877.84        67.60223
878.24         67.6147
878.64        67.29846
879.04        66.70918
879.44        66.04803
879.84        65.62006
880.24        65.49561
880.64         65.6101
881.04        65.82794
881.44         65.9015
881.84        65.77288
882.24        65.53656
882.65        65.25623
883.05        65.15067
883.45        65.23441
883.85        65.40446
884.25        65.65886
884.65        66.01463
885.05        66.45037
885.45        66.98331
885.85        67.42963
886.25        67.47124
886.65         67.0565
887.05        66.27126
887.45        65.45784
887.85        65.15921
888.25        65.48447
888.65        66.27737
889.04        67.16296
889.44        67.49686
889.84        67.14051
890.24        66.30028
890.64        65.33912
891.04         64.7751
891.44        64.74006
891.84        65.10447
892.24         65.5933
892.64        65.75101
893.04        65.46287
893.44        64.86168
893.83        64.29697
894.23        64.30209
894.63        64.94411
895.03        66.05951
895.43         67.1774
895.83        67.46233
896.23        66.74348
896.63        65.36538
897.02        63.87616
897.42        63.14162
897.82        63.27906
898.22        64.06613
898.62        65.17278
899.01        66.04877
899.41        66.43887
899.81        66.51224
900.21        66.47987
900.61        66.70081
901.00        67.25169
901.40        67.94426
901.80        68.53413
902.20        68.67599
902.59        68.31624
902.99        67.61597
903.39         66.7976
903.79        66.20393
904.18        65.93099
904.58        65.87951
904.98        65.98551
905.38        66.15771
905.77        66.33823
906.17        66.59895
906.57        66.78507
906.96        66.65089
907.36        66.16015
907.76        65.38175
908.15        64.66183
908.55        64.52767
908.95         65.0987
909.34        66.22392
909.74         67.4553
910.14        68.12874
910.53        68.04984
910.93        67.40554
911.33        66.54101
911.72        66.00359
912.12        65.96888
912.52        66.27462
912.91        66.65218
913.31        66.66145
913.70        66.21662
914.10        65.49764
914.49        64.81744
914.89        64.62144
915.29        65.00295
915.68        65.78364
916.08        66.69012
916.47        67.28516
916.87        67.42731
917.26        67.26879
917.66        66.93906
918.05         66.6337
918.45        66.42464
918.84        66.27038
919.24        66.21596
919.64        66.41387
920.03         66.8814
920.42        67.56239
920.82        68.26187
921.21        68.71108
921.61        68.80975
922.00        68.59966
922.40        68.20766
922.79        67.95315
923.19        67.91135
923.58        68.01396
923.98        68.04585
924.37        67.63408
924.77        66.77901
925.16        65.61824
925.55        64.51539
925.95        64.06721
926.34         64.4504
926.74        65.42032
927.13        66.71375
927.52        67.81033
927.92        68.50612
928.31        68.94395
928.70        69.10796
929.10        69.01626
929.49        68.73858
929.89        68.23838
930.28        67.69418
930.67        67.38567
931.07        67.37039
931.46        67.58566
931.85         67.9034
932.24        68.08183
932.64        68.04771
933.03        67.93447
933.42        67.69794
933.82        67.29072
934.21        66.74686
934.60        66.04868
934.99        65.49618
935.39         65.5238
935.78        66.22325
936.17        67.52457
936.56        68.90417
936.96        69.38675
937.35        68.76286
937.74        67.27809
938.13        65.68064
938.53        64.98441
938.92        65.34093
939.31        66.51894
939.70        67.91319
940.09        68.41256
940.49        67.73237
940.88        66.27216
941.27        64.74027
941.66        64.18401
942.05        64.83797
942.44        66.37869
942.84        68.22681
943.23        69.38509
943.62        69.43647
944.01        68.69768
944.40        67.59972
944.79        66.82314
945.18        66.59063
945.57        66.67986
945.97        66.90641
946.36        67.09887
946.75         67.1459
947.14        67.14085
947.53        67.12552
947.92        67.12674
948.31        67.15499
948.70        67.19198
949.09        67.18839
949.48          67.079
949.87        66.88573
950.26        66.66984
950.65        66.55585
951.04        66.76099
951.43        67.29362
951.82         67.9794
952.21        68.71783
952.60        69.38926
952.99        69.90199
953.38        70.28791
953.77        70.28825
954.16        69.46914
954.55         67.8773
954.94        65.79529
955.33        63.79615
955.72        62.74098
956.11        62.80869
956.50        63.68633
956.89         65.0848
957.28        66.50905
957.66        67.76177
958.05        68.87926
958.44        69.53584
958.83        69.13274
959.22        67.67127
959.61        65.40099
960.00        63.14149
960.39        62.07069
960.78        62.40192
961.16        63.86102
961.55        65.79591
961.94        67.16291
962.33         67.5814
962.72        67.29846
963.11         66.5956
963.49         66.0454
963.88         65.8265
964.27        65.77276
964.66        65.71095
965.04        65.42829
965.43        64.87086
965.82        64.12741
966.21         63.4109
966.60         63.0685
966.98        63.21753
967.37        63.75914
967.76         64.3587
968.15         64.4545
968.53        63.92463
968.92         62.9088
969.31        61.85552
969.69        61.46859
970.08        61.86857
970.47        62.87564
970.86         63.9964
971.24        64.34536
971.63        63.63956
972.02        62.22298
972.40        60.66057
972.79        59.82319
973.17        59.93017
973.56         60.6786
973.95        61.69537
974.33        62.43522
974.72        62.67875
975.11        62.54331
975.49        62.30579
975.88        62.45354
976.26        63.17781
976.65        64.26051
977.04        65.18098
977.42        65.10764
977.81        63.91363
978.19        61.88059
978.58        60.06139
978.96        59.79019
979.35        61.30105
979.74        64.28326
980.12        67.86021
980.51        69.68553
980.89        69.17906
981.28        66.88496
981.66        63.96794
982.05        62.42377
982.43        62.75913
982.82        64.32863
983.20        66.67017
983.59        68.81178
983.97        70.40089
984.35        71.67369
984.74         72.2627
985.12        71.70836
985.51        70.01453
985.89        67.27308
986.28        64.38161
986.66        62.66205
987.04         62.5657
987.43        63.78806
987.81        65.58982
988.20        66.44704
988.58        65.96925
988.96        64.46995
989.35        62.80606
989.73        62.31616
990.12        63.27677
990.50        65.32085
990.88        67.43034
991.27        67.99821
991.65         66.7571
992.03        64.25175
992.42        61.69596
992.80        60.70396
993.18        61.74664
993.56         64.2606
993.95        67.21343
994.33        69.09402
994.71        69.17876
995.10        67.97598
995.48        66.03753
995.86        64.28903
996.24        63.15104
996.63        62.35297
997.01        61.87225
997.39        61.66863
997.77        61.68436
998.15        62.02378
998.54        62.57634
998.92        63.06351
999.30        63.38157
999.68        63.51246
1000.06        63.53591
1000.45        63.61931
1000.83        63.91322
1001.21        64.28983
1001.59        64.58707
1001.97        64.54196
1002.35        64.10797
1002.73        63.40162
1003.12        62.67596
1003.50         62.2743
1003.88        62.31859
1004.26        62.70792
1004.64        63.23888
1005.02        63.58994
1005.40         63.7107
1005.78        63.73466
1006.16        63.78356
1006.54        64.07298
1006.92        64.60225
1007.30        65.13303
1007.69          65.606
1008.07        66.19191
1008.45        66.77279
1008.83        67.43924
1009.21        67.68664
1009.59        66.65506
1009.97        64.30428
1010.35        60.92047
1010.73        57.72313
1011.11        56.83895
1011.49        58.89904
1011.86        63.61518
1012.24        69.42548
1012.62        73.63946
1013.00        75.11324
1013.38        74.23677
1013.76        72.13531
1014.14        71.11579
1014.52        71.96785
1014.90        73.98845
1015.28        76.06243
1015.66        76.27769
1016.04        74.35933
1016.41        71.41726
1016.79         68.6067
1017.17        66.77693
1017.55        65.88901
1017.93        65.51701
1018.31        65.38702
1018.69        64.95941
1019.06        64.16329
1019.44        63.52785
1019.82        63.03123
1020.20        62.45018
1020.58        61.75565
1020.95        60.77447
1021.33          60.104
1021.71        60.94617
1022.09        63.65067
1022.46        67.58718
1022.84        71.39542
1023.22         73.5319
1023.60        73.64226
1023.97        72.25723
1024.35        69.50307
1024.73        65.86983
