SpectraSmart Spectrum 2.9.0.0
--------- Device Information -----------
Spectrum Name :  反射率_0
Saving Time :  2024/05/01 15:53:40
Spectro-Module Model Name : SE2030-DUVN
Spectro-Module Serial Number : OS361AC55029948
Wavelength Start : 200
Wavelength End : 1025
Wavelength Unit : Wavelength(nm)
Spectrum Unit : Reflectance(%)
-----------Spectrum Setting ------------
Integration Time : 20ms
Average : 10
Boxcar : 0
Background removal :  enabled
linearity correction :  enabled
SC :  disabled
Intensity correction :  disabled
DWT denoise :  enabled
savitzky-golay :  disabled
FFT :  disabled
Running average :  disabled
Kalman :  disabled
High pass :  disabled
---------------BEGIN--------------------
Wavelength(nm)             Reflectance(%)
200.29               0
200.75        56.08019
201.21        354.6396
201.67       -157.0374
202.13       -44.52591
202.58      -0.5137561
203.04        28.87458
203.50        48.99364
203.96        60.96349
204.42        69.43629
204.88        84.09676
205.34        423.8519
205.80       -3.132624
206.26       -4.357323
206.72       -42.50506
207.18       -282.0165
207.64        460.2923
208.10        220.3032
208.55        171.7793
209.01        148.0168
209.47        125.1009
209.93         99.2855
210.39        68.81149
210.85        38.43804
211.31        14.17477
211.77       -11.99065
212.23        79.91335
212.69        14.47372
213.14        11.37467
213.60        26.49631
214.06       -149.8834
214.52       -26.17013
214.98        -13.8972
215.44       -2.760566
215.90        22.38185
216.36        374.4224
216.81       -163.0146
217.27       -186.6291
217.73        286.5794
218.19        29.28379
218.65       -4.498182
219.11       -34.24046
219.57       -107.2154
220.02       -385.0929
220.48       -185.8141
220.94       -40.05853
221.40       -2.603608
221.86        11.44698
222.32        18.75258
222.77        24.65919
223.23        31.26323
223.69        38.23505
224.15        40.21943
224.61        35.94067
225.06        29.73103
225.52        25.19834
225.98         23.1212
226.44        22.83767
226.90         23.7678
227.36        25.64753
227.81        27.03662
228.27        27.01937
228.73          26.377
229.19        25.58517
229.65        24.78539
230.10        23.89869
230.56        22.91605
231.02        21.91693
231.48        21.50694
231.93        21.94986
232.39        22.95596
232.85        24.31776
233.31        25.95477
233.77          27.712
234.22        29.52676
234.68        31.11394
235.14        32.35125
235.60        33.32087
236.05        34.17873
236.51        35.02266
236.97        35.83017
237.43         36.3577
237.88        36.40215
238.34        35.86913
238.80        35.19064
239.26        34.39387
239.71        33.49007
240.17        32.01248
240.63        29.07331
241.08        25.56309
241.54        23.47695
242.00         23.8622
242.46        27.51432
242.91        35.89243
243.37        51.00375
243.83        78.05863
244.28        107.1282
244.74        114.5242
245.20        107.5017
245.66        98.04304
246.11        90.75056
246.57        84.39532
247.03        74.98737
247.48        58.77804
247.94        35.61351
248.40        13.66947
248.85      -0.4532677
249.31       -2.480909
249.77        4.053087
250.22        13.52097
250.68        23.04989
251.14        30.65076
251.59        35.80367
252.05        39.80083
252.51        44.23767
252.96        51.41973
253.42        65.13208
253.88        71.97478
254.33        65.66772
254.79        59.69403
255.25         56.5168
255.70        54.75993
256.16        53.97382
256.62        54.04826
257.07        54.95008
257.53        56.52234
257.99        58.10904
258.44        59.06233
258.90        59.26408
259.35        58.53182
259.81        57.40042
260.27        56.06736
260.72        54.91592
261.18        54.25777
261.63        53.64653
262.09         53.0796
262.55        52.18904
263.00         50.8959
263.46        49.49392
263.91        47.98997
264.37        46.66572
264.83        45.50373
265.28        44.44035
265.74        43.46472
266.19        42.33416
266.65         41.1265
267.11        39.83919
267.56        38.66809
268.02         38.0036
268.47        37.84457
268.93        38.02267
269.38        38.20943
269.84        37.82261
270.30        36.76847
270.75        35.24263
271.21        33.58063
271.66        32.17181
272.12        31.19158
272.57        30.46337
273.03        29.95319
273.48        29.55879
273.94        29.23683
274.39        28.99475
274.85        28.74947
275.31        28.32312
275.76        27.69141
276.22        26.93834
276.67         26.1467
277.13        25.52908
277.58        25.06404
278.04         24.7151
278.49        24.37131
278.95        23.96965
279.40        23.45189
279.86        22.89427
280.31        22.29262
280.77        21.70433
281.22        21.11839
281.68        20.57882
282.13        20.05657
282.59         19.5732
283.04        19.11821
283.50        18.72722
283.95         18.4341
284.41         18.3286
284.86         18.3971
285.32        18.59439
285.77        18.84352
286.22        19.06232
286.68         19.2286
287.13        19.34786
287.59        19.41171
288.04        19.37141
288.50        19.25819
288.95        19.05774
289.41        18.88137
289.86        18.83224
290.32        18.94165
290.77        19.17362
291.22        19.43797
291.68        19.58475
292.13        19.59566
292.59        19.56243
293.04        19.57161
293.50        19.80039
293.95        20.27811
294.40        20.95514
294.86        21.78235
295.31        22.69435
295.77        23.63727
296.22        24.60555
296.68          25.554
297.13        26.40961
297.58        27.18055
298.04        27.91249
298.49        28.64034
298.95        29.45536
299.40        30.36918
299.85        31.35947
300.31        32.46061
300.76        33.72407
301.21        35.15088
301.67        36.73167
302.12        38.32745
302.58        39.73002
303.03        40.86552
303.48        41.82201
303.94        42.77995
304.39        43.94559
304.84        45.42166
305.30        47.14591
305.75        49.02857
306.20        50.93826
306.66        52.81514
307.11        54.64933
307.57        56.46311
308.02        58.21397
308.47        59.93575
308.93        61.64082
309.38        63.30781
309.83        64.98469
310.29        66.69073
310.74        68.39873
311.19        70.13041
311.65        71.89991
312.10        73.68089
312.55        75.45841
313.00        77.20959
313.46        78.90739
313.91        80.52593
314.36        82.06101
314.82        83.45834
315.27        84.64642
315.72        85.59243
316.18        86.33646
316.63        86.92668
317.08         87.5097
317.53           88.14
317.99        88.79888
318.44        89.46319
318.89        90.06085
319.35        90.57242
319.80          91.044
320.25        91.49239
320.70        91.94496
321.16          92.402
321.61        92.85898
322.06        93.33356
322.51        93.87601
322.97        94.45579
323.42        95.07915
323.87        95.62865
324.32        95.93729
324.78        95.96181
325.23        95.79057
325.68        95.51817
326.13        95.32166
326.59        95.25004
327.04        95.31533
327.49        95.48952
327.94        95.73898
328.39         96.0393
328.85        96.36523
329.30        96.76087
329.75        97.14821
330.20        97.50297
330.66        97.79543
331.11        98.05759
331.56        98.23721
332.01        98.34644
332.46        98.40339
332.92        98.46124
333.37        98.71244
333.82        99.17107
334.27        99.81532
334.72        100.5605
335.17        101.2459
335.63        101.7784
336.08        102.2212
336.53        102.6004
336.98        103.0278
337.43         103.537
337.88        104.1035
338.34        104.6092
338.79        104.9446
339.24        105.0578
339.69        104.9996
340.14        104.9592
340.59         105.227
341.05        105.8493
341.50        106.7553
341.95           107.7
342.40        108.2874
342.85        108.4266
343.30        108.2421
343.75        107.9885
344.20         108.065
344.66        108.5606
345.11        109.3436
345.56         110.212
346.01        110.8186
346.46         111.072
346.91        111.1138
347.36        111.0792
347.81        111.1687
348.26        111.4438
348.72        111.8193
349.17        112.2584
349.62        112.7823
350.07        113.3297
350.52        113.8555
350.97         114.214
351.42        114.1592
351.87        113.6756
352.32        112.9123
352.77        111.9773
353.22        111.0441
353.67        110.2036
354.13        109.4225
354.58         108.857
355.03        108.8405
355.48        109.3757
355.93        110.3969
356.38        111.3811
356.83         111.449
357.28        110.4413
357.73         108.628
358.18        106.7334
358.63        105.8461
359.08        106.1578
359.53        107.3177
359.98        108.6525
360.43        109.0274
360.88        108.1462
361.33        106.4112
361.78        104.3938
362.23        102.9106
362.68        102.1701
363.13        101.9056
363.58        101.8166
364.03        101.4492
364.48        100.6632
364.93        99.61595
365.38        98.50964
365.83        97.61449
366.28        96.99131
366.73         96.5499
367.18        96.07647
367.63        95.25842
368.08        94.06822
368.53        92.64742
368.98        91.30533
369.43        90.47524
369.88        90.21839
370.33        90.37978
370.78        90.65731
371.23        90.53004
371.68        89.85145
372.13        88.80288
372.58        87.61761
373.03        86.63692
373.48        85.95387
373.93        85.44469
374.38        85.05105
374.83        84.69429
375.28        84.32716
375.72        83.97189
376.17         83.5947
376.62        83.07673
377.07        82.40573
377.52        81.60742
377.97        80.77406
378.42        80.06454
378.87        79.52252
379.32        79.11115
379.77        78.76569
380.22        78.37556
380.67        77.91337
381.11        77.42523
381.56        76.94865
382.01        76.56258
382.46        76.28911
382.91        76.08936
383.36        75.93188
383.81        75.77406
384.26        75.58882
384.71        75.38084
385.15        75.11916
385.60        74.80235
386.05        74.42374
386.50        73.99846
386.95        73.55639
387.40         73.1518
387.85        72.80073
388.29        72.44221
388.74        72.16103
389.19        71.90266
389.64        71.65271
390.09        71.41044
390.54        71.14013
390.98        70.78751
391.43        70.40534
391.88        69.96185
392.33        69.52361
392.78        69.29581
393.23        69.23683
393.67        69.02889
394.12        68.73848
394.57        68.62608
395.02        68.56814
395.47        68.29038
395.91        67.43777
396.36        67.12014
396.81        67.24828
397.26        67.51078
397.71         67.7108
398.15        67.67732
398.60        67.44431
399.05        66.93539
399.50        66.37976
399.95        66.29881
400.39        66.65764
400.84        66.83821
401.29        66.71927
401.74        66.55822
402.18        66.32793
402.63        65.78989
403.08        65.13534
403.53         64.7646
403.97        64.72733
404.42        64.91655
404.87        65.14959
405.32        65.14796
405.76        64.84966
406.21        64.37881
406.66        63.88443
407.11        63.62589
407.55        63.69554
408.00        63.90644
408.45         64.1588
408.90        64.48682
409.34        64.68778
409.79        64.28573
410.24        63.49305
410.68        63.09956
411.13        63.19287
411.58        63.36057
412.03        63.51924
412.47        63.69957
412.92        63.83045
413.37        63.92738
413.81        63.97821
414.26        64.01293
414.71        64.02392
415.15        64.01324
415.60        63.98615
416.05        64.00967
416.49        64.09777
416.94        64.23224
417.39        64.37196
417.83        64.43404
418.28        64.41112
418.73        64.34119
419.17        64.27021
419.62        64.27318
420.07        64.36172
420.51        64.48924
420.96         64.6843
421.41        64.87566
421.85        65.02085
422.30        65.31034
422.74         65.6423
423.19        65.64153
423.64         65.4198
424.08        65.68447
424.53         66.3572
424.98        66.70516
425.42        66.64854
425.87        66.75465
426.31        67.02707
426.76         66.7839
427.21        66.27721
427.65        66.73689
428.10        67.85765
428.54        68.18666
428.99        67.75137
429.44        67.11124
429.88        66.61276
430.33         67.2588
430.77        68.58214
431.22        68.79716
431.66        67.96416
432.11        67.53653
432.56        67.67168
433.00        68.08938
433.45         68.5865
433.89        68.69236
434.34        67.52852
434.78        68.91497
435.23        69.25069
435.67        69.65427
436.12        69.26077
436.57        69.67911
437.01        70.80589
437.46        71.28873
437.90         71.0704
438.35        70.92858
438.79        70.89783
439.24        70.59052
439.68          70.142
440.13        70.14934
440.57        70.62296
441.02        70.97285
441.46        71.09398
441.91        71.57281
442.35        72.24114
442.80        71.91324
443.24        72.15877
443.69         71.9825
444.13        71.90027
444.58        71.85898
445.02         71.8716
445.47        71.98389
445.91        72.20495
446.36        72.53761
446.80        72.94186
447.24        73.49884
447.69        74.05757
448.13        74.17045
448.58        73.90849
449.02        73.74087
449.47        73.77121
449.91        73.76167
450.36        73.75906
450.80        73.92047
451.25        74.17793
451.69        74.26727
452.13        74.16738
452.58         73.9762
453.02        73.73416
453.47          73.581
453.91        73.54446
454.36        73.47751
454.80        73.39713
455.24        73.57261
455.69        73.83253
456.13        73.63251
456.58        73.20914
457.02        72.57705
457.46        72.97721
457.91          73.424
458.35        73.96985
458.79        73.94328
459.24        73.30272
459.68        72.54823
460.13        72.07538
460.57        70.97102
461.01        71.34078
461.46        71.64015
461.90        72.25883
462.34        72.18542
462.79        71.90735
463.23         72.0612
463.68         72.6065
464.12        72.67296
464.56        72.25491
465.01        71.67912
465.45        71.15727
465.89        71.46087
466.34        72.22414
466.78        72.41814
467.22        71.22392
467.67        70.58897
468.11        71.25764
468.55        71.49403
468.99        71.45232
469.44        71.41101
469.88        71.37222
470.32        71.22304
470.77        71.03063
471.21        70.95853
471.65        71.01786
472.10        71.18797
472.54        71.35546
472.98         71.3577
473.42        71.16064
473.87        70.87564
474.31        70.56777
474.75        70.29472
475.20         70.1404
475.64        70.32539
476.08         70.7194
476.52        70.80608
476.97          70.504
477.41        70.72256
477.85        69.66047
478.29        70.39932
478.74        70.88179
479.18        70.86629
479.62        70.05145
480.06        69.83651
480.50        70.29999
480.95         69.6748
481.39        70.36108
481.83        69.55214
482.27        69.91175
482.72        69.79351
483.16        69.79987
483.60        69.95034
484.04        70.19145
484.48        70.30414
484.93        70.48809
485.37        71.00409
485.81         70.6374
486.25        71.39442
486.69         71.3961
487.14        69.14989
487.58        68.07871
488.02        70.39312
488.46        69.60854
488.90        69.23878
489.34        70.21813
489.79        69.53497
490.23        69.50734
490.67        69.45139
491.11        69.81442
491.55        70.05222
491.99        70.06467
492.43        70.04117
492.88        69.95143
493.32        69.71635
493.76        69.41451
494.20        69.26067
494.64        69.27715
495.08        69.37151
495.52        69.53019
495.96         69.6927
496.41        69.74689
496.85        70.05855
497.29        69.69098
497.73        69.44831
498.17        69.16058
498.61        68.86349
499.05         68.6784
499.49        68.92905
499.93        69.47948
500.37        69.66737
500.82        69.48408
501.26         69.4923
501.70         69.6936
502.14        69.71555
502.58        69.54439
503.02        69.36108
503.46        69.18832
503.90        68.97398
504.34        68.80153
504.78        68.79903
505.22        68.96247
505.66        69.31522
506.10        69.74157
506.54         69.8335
506.98        69.49576
507.42         69.6122
507.86        68.96378
508.30         68.7281
508.74        68.73247
509.18        68.81669
509.62        68.96955
510.06        69.11329
510.50        69.22526
510.94        69.31307
511.38          69.377
511.82         69.4168
512.26        69.42812
512.70        69.39587
513.14        69.32235
513.58        69.21979
514.02        69.09841
514.46        68.97237
514.90        68.84326
515.34        68.70929
515.78        68.58098
516.22        68.46573
516.66        68.40086
517.10         68.4394
517.54        68.58166
517.98        68.80296
518.42        69.03648
518.86        69.17284
519.30        69.18354
519.74        69.09791
520.18        68.96699
520.62        68.87742
521.06        68.85256
521.50        68.86057
521.93        68.88583
522.37        68.89243
522.81        68.87354
523.25        68.85208
523.69        68.81172
524.13        68.71967
524.57        68.58422
525.01        68.42117
525.45        68.28967
525.89        68.28481
526.32        68.41742
526.76        68.64643
527.20        68.90648
527.64        69.09348
528.08        69.17258
528.52        69.17832
528.96        69.11685
529.40        69.00231
529.83        68.84616
530.27        68.65984
530.71        68.49791
531.15        68.46356
531.59        68.57213
532.03        68.79628
532.46        69.03278
532.90        69.13263
533.34        69.06306
533.78        68.81946
534.22          68.509
534.66        68.41544
535.09        68.50924
535.53        68.49171
535.97        68.34413
536.41        68.28519
536.85        68.31206
537.28        68.29363
537.72        68.24194
538.16        68.23684
538.60        68.27927
539.04        68.33561
539.47         68.3851
539.91        68.43917
540.35        68.47252
540.79        68.51033
541.22        68.53743
541.66        68.43108
542.10        68.36748
542.54        68.22542
542.97        68.07759
543.41        67.98934
543.85        67.96338
544.29        67.98479
544.72        68.03572
545.16        68.11143
545.60        68.18431
546.04        68.28509
546.47        68.38662
546.91        68.36929
547.35        68.27795
547.79         68.2994
548.22          68.366
548.66        68.36111
549.10        68.28204
549.53        67.91681
549.97        67.92534
550.41        67.92631
550.84        68.10619
551.28          68.437
551.72        68.80499
552.15        68.95646
552.59         68.8848
553.03        68.74932
553.46        68.58533
553.90        68.50753
554.34        68.55041
554.77        68.51038
555.21        68.32621
555.65        68.79615
556.08        68.54063
556.52        68.33434
556.96        67.89896
557.39        67.74041
557.83        67.91373
558.27        68.08757
558.70        68.18587
559.14        68.53687
559.57        68.49866
560.01        68.58688
560.45        68.57084
560.88        68.50465
561.32        68.44071
561.75        68.03055
562.19         67.5075
562.63        67.76587
563.06        68.57793
563.50        68.50036
563.93        67.65533
564.37        67.44682
564.80         67.8767
565.24        68.20585
565.68        68.31484
566.11        68.35641
566.55        68.33162
566.98        68.17314
567.42        68.00559
567.85        67.96145
568.29        68.08582
568.72        68.29082
569.16        68.57165
569.60        68.66785
570.03        68.48947
570.47        68.50711
570.90        68.73573
571.34        67.83237
571.77        68.29575
572.21        68.25333
572.64         68.4504
573.08        68.27673
573.51        68.20539
573.95        68.97435
574.38        68.37212
574.82        68.75385
575.25        69.07941
575.69         69.0386
576.12        68.60453
576.56        68.57153
576.99        68.84269
577.42        68.89818
577.86        68.57307
578.29        69.05691
578.73         69.7645
579.16        68.62325
579.60        68.03105
580.03        67.67905
580.47        68.46394
580.90        67.80086
581.33        68.82104
581.77        68.99557
582.20        69.23257
582.64        69.12596
583.07        68.84274
583.51        68.39301
583.94        68.12737
584.37        68.43471
584.81        69.21508
585.24        69.29779
585.68        68.70171
586.11        68.69212
586.54        68.69265
586.98        68.05112
587.41        67.74121
587.85        68.51312
588.28        69.15723
588.71         67.4871
589.15         69.0639
589.58        67.90826
590.01        67.92894
590.45        67.80508
590.88        68.20682
591.31        68.15825
591.75        68.09607
592.18        67.92803
592.61        67.86732
593.05        67.98457
593.48        67.93307
593.91        68.38732
594.35        68.08736
594.78        67.88197
595.21        67.36463
595.65        68.08187
596.08        68.07541
596.51         67.7542
596.94        67.63612
597.38        67.50911
597.81        67.72981
598.24        67.73021
598.68        67.91591
599.11        67.45841
599.54        68.83219
599.97        68.03353
600.41         68.0136
600.84        68.33107
601.27        68.17422
601.70        68.43354
602.14        68.64197
602.57        68.40585
603.00        67.87773
603.43        67.61299
603.87        68.09071
604.30        68.24911
604.73        68.06561
605.16        67.72363
605.60        67.75027
606.03        67.98495
606.46        68.36281
606.89        68.22583
607.32        67.80032
607.76        67.58508
608.19        67.66331
608.62        68.20066
609.05        68.25199
609.48        68.11244
609.92         67.7393
610.35        67.46817
610.78        68.63325
611.21         68.7926
611.64        68.28847
612.07        68.54723
612.50        68.74813
612.94        68.51794
613.37        67.93539
613.80         68.6171
614.23        67.91676
614.66        68.34962
615.09        68.01778
615.52        67.99612
615.96        67.95837
616.39        67.99993
616.82        68.12559
617.25        68.19321
617.68        68.19043
618.11        68.22001
618.54        68.24261
618.97        68.06725
619.40        67.80853
619.84        67.64824
620.27        67.59386
620.70        67.96761
621.13        68.72731
621.56        67.82011
621.99        67.42654
622.42        67.83587
622.85        68.04385
623.28        67.82449
623.71         67.5341
624.14        68.03616
624.57        67.71556
625.00        67.97449
625.43        68.24293
625.86        68.03732
626.29         67.9708
626.72        67.69678
627.15        67.69469
627.58        67.36452
628.01        67.09616
628.44        67.18127
628.87        67.59727
629.30        67.71973
629.73        67.52865
630.16        67.63286
630.59        67.73138
631.02         67.7832
631.45        67.68816
631.88        67.57833
632.31        67.46523
632.74        67.32102
633.17        67.18993
633.60        67.13372
634.03        67.16547
634.46        67.27819
634.89        67.42321
635.32        67.50794
635.75        67.50758
636.18        67.44852
636.61        67.36546
637.04        67.31406
637.47        67.31517
637.89           67.34
638.32        67.32948
638.75        67.29491
639.18        67.24219
639.61        66.90847
640.04        66.84366
640.47        66.70783
640.90        66.66943
641.33        66.69357
641.76        66.74245
642.18        66.80412
642.61         66.9256
643.04        66.90562
643.47        66.71194
643.90        67.20732
644.33        66.94449
644.76        66.97751
645.18        66.92021
645.61        67.10224
646.04        67.41623
646.47        67.32565
646.90        66.90953
647.33        66.74914
647.75        66.88135
648.18        66.95603
648.61        66.95855
649.04        67.00232
649.47        67.03614
649.89        67.09705
650.32        67.14662
650.75        66.84138
651.18         66.3523
651.61        66.60236
652.03        67.48438
652.46        67.51497
652.89        66.70668
653.32        66.71494
653.74        67.73045
654.17        66.87267
654.60        67.19728
655.03        67.65098
655.46         66.5441
655.88        66.63168
656.31        72.75185
656.74        72.12474
657.16        67.36869
657.59        65.78523
658.02         66.9338
658.45        67.10777
658.87        67.21494
659.30        66.42587
659.73        66.97506
660.15        67.50783
660.58        66.87302
661.01        66.65196
661.44        66.44975
661.86        66.57624
662.29        66.93557
662.72        67.07681
663.14         67.0088
663.57        67.07985
664.00        67.28509
664.42        67.33987
664.85        67.24243
665.27        67.09994
665.70        66.96615
666.13        66.89159
666.55        66.90556
666.98        66.98118
667.41        67.09165
667.83        67.19569
668.26        67.25947
668.69        67.29371
669.11        67.31683
669.54        67.37461
669.96        67.46188
670.39        67.52398
670.82         67.5602
671.24        67.55258
671.67        67.53238
672.09         67.6049
672.52        67.74276
672.94        67.74292
673.37        67.60051
673.80        67.42226
674.22        67.26108
674.65        67.12932
675.07        67.06553
675.50        67.05043
675.92        67.08765
676.35        67.16972
676.77        67.28616
677.20        67.42771
677.62        67.55784
678.05        67.60123
678.47        67.54269
678.90        67.42391
679.32        67.28753
679.75        67.19034
680.17        67.13659
680.60        67.24976
681.02        67.26119
681.45        67.31535
681.87        67.32932
682.30        67.40339
682.72        67.51089
683.15        67.38229
683.57        67.11208
684.00        67.13866
684.42         67.4409
684.85        67.59557
685.27        67.55927
685.70         67.6516
686.12        67.80933
686.54        67.66516
686.97        67.27724
687.39        67.14735
687.82         67.2513
688.24        67.09924
688.66        66.73837
689.09        66.81956
689.51        67.29813
689.94          67.575
690.36         67.6073
690.78        67.71949
691.21        67.93437
691.63        68.04341
692.06        68.11065
692.48        68.45918
692.90         68.9548
693.33        69.10394
693.75        68.86106
694.17        68.39836
694.60        67.91875
695.02        67.69097
695.44        67.71171
695.87        67.87889
696.29        68.05499
696.71        67.72271
697.14        67.09606
697.56        67.25771
697.98         68.0871
698.41        68.44324
698.83        68.26197
699.25        68.19614
699.68        68.26871
700.10        68.27747
700.52        68.22543
700.94        68.12318
701.37        68.01276
701.79        68.08772
702.21        68.28622
702.64         68.3945
703.06        68.38616
703.48        68.29311
703.90         68.0947
704.33        68.19729
704.75        67.79126
705.17        67.71803
705.59        67.74924
706.01        67.85491
706.44         68.0093
706.86        68.20103
707.28        68.39597
707.70        68.61631
708.12        68.81276
708.55        68.83105
708.97        68.68853
709.39         68.5673
709.81        68.50184
710.23        68.42294
710.66        68.34993
711.08          68.368
711.50        68.44656
711.92        68.50549
712.34        68.53137
712.76        68.54964
713.19        68.55291
713.61        68.57769
714.03        68.60654
714.45        68.62241
714.87        68.63702
715.29        68.67204
715.71        68.72917
716.13        68.81146
716.56        68.86319
716.98         68.8635
717.40        68.77351
717.82         68.6236
718.24        68.50842
718.66        68.40083
719.08        68.67953
719.50          68.842
719.92        68.92542
720.34        68.92963
720.76        68.83618
721.19        68.59924
721.61        68.31709
722.03        68.19084
722.45        68.26663
722.87        68.49366
723.29         68.7841
723.71        68.99249
724.13          69.067
724.55        69.03072
724.97        68.96415
725.39        68.99837
725.81        69.15568
726.23         69.3944
726.65        69.58151
727.07        69.50783
727.49        69.14841
727.91        68.59119
728.33        68.02824
728.75         67.7569
729.17        67.84536
729.59        68.19832
730.01        68.66158
730.43        68.96724
730.85        69.02801
731.27        68.93173
731.69        68.74629
732.10        68.57751
732.52        68.47214
732.94        68.38426
733.36        68.34273
733.78        68.39257
734.20        68.52763
734.62        68.78297
735.04        69.08198
735.46        69.17284
735.88        69.08672
736.30        69.13843
736.72        69.30403
737.13         69.3341
737.55        69.20381
737.97        69.02223
738.39        68.88409
738.81        69.02047
739.23        69.37905
739.65        69.56546
740.06        69.50474
740.48        69.51877
740.90        69.57332
741.32        69.49401
741.74         69.2911
742.16        69.11403
742.57        68.99777
742.99        68.86581
743.41        68.77201
743.83        68.85512
744.25        69.07824
744.67        69.26369
745.08        69.36548
745.50        69.37768
745.92        69.29876
746.34        69.07889
746.75        68.77532
747.17        68.56018
747.59        68.45567
748.01          68.428
748.42        68.47318
748.84        68.54638
749.26        68.64297
749.68        68.77216
750.09        68.91281
750.51        69.04967
750.93        69.16536
751.35        69.25089
751.76        69.32018
752.18        69.38571
752.60        69.43916
753.01        69.53743
753.43        69.64373
753.85        69.58893
754.27        69.33802
754.68        69.54487
755.10        69.17824
755.52        69.21882
755.93        69.35399
756.35        69.57218
756.77        69.79484
757.18        69.92191
757.60         69.9564
758.02        69.89896
758.43        69.76056
758.85        69.74632
759.26         69.8311
759.68        69.63633
760.10        69.29563
760.51        69.45854
760.93        69.97565
761.34        70.12511
761.76        69.87497
762.18        69.46989
762.59        69.15932
763.01         69.2683
763.42        70.08727
763.84        70.33996
764.26         70.0776
764.67        69.76421
765.09        69.58018
765.50        69.58819
765.92        69.77345
766.33          69.787
766.75        69.55838
767.16        69.59976
767.58        69.89326
768.00        69.92034
768.41        69.82314
768.83        70.50259
769.24        71.67714
769.66        71.94675
770.07        71.33513
770.49         70.8823
770.90        70.74362
771.32        70.67659
771.73        70.66081
772.15        70.55978
772.56        70.38854
772.97        70.36047
773.39        70.44498
773.80        70.49912
774.22        70.47282
774.63         70.4587
775.05        70.46077
775.46        70.55481
775.88        70.71571
776.29         70.9315
776.70        71.13217
777.12        71.23447
777.53         71.2315
777.95        71.12852
778.36        70.95967
778.77         70.7597
779.19        70.56484
779.60        70.37747
780.02        70.22146
780.43        70.19609
780.84        70.32639
781.26        70.39993
781.67        70.42229
782.09        70.82272
782.50        71.37243
782.91        71.05083
783.33        70.10747
783.74        69.88687
784.15        70.50688
784.57        71.22012
784.98        71.86334
785.39        72.42522
785.81        72.81107
786.22        72.80478
786.63        72.87305
787.04        72.75225
787.46        72.63588
787.87        72.44884
788.28        72.29563
788.70         72.2903
789.11         72.4156
789.52          72.721
789.93        73.05038
790.35        73.01345
790.76        72.63378
791.17        72.23713
791.58        71.94385
792.00        71.71214
792.41        71.60519
792.82        71.67725
793.23        71.84812
793.65        72.02525
794.06        72.11922
794.47        71.90177
794.88        71.54061
795.29        71.47433
795.71         71.6712
796.12        72.08935
796.53        72.53684
796.94        72.55675
797.35        72.13229
797.76        71.78938
798.18        71.68222
798.59        71.62581
799.00        71.67065
799.41        71.97856
799.82        72.44431
800.23        72.76788
800.64        72.87669
801.06        72.83856
801.47         72.7318
801.88        72.59058
802.29        72.45264
802.70        72.29145
803.11        72.15853
803.52        72.14795
803.93        72.28119
804.34        72.53828
804.75        72.83751
805.17          73.079
805.58        73.26727
805.99        73.19399
806.40        72.93394
806.81        73.09925
807.22        73.50154
807.63        73.02887
808.04        71.88371
808.45        71.39133
808.86        71.67434
809.27        72.02917
809.68        72.31602
810.09         72.6037
810.50        72.82092
810.91        72.95016
811.32        73.00072
811.73        72.99479
812.14        72.95375
812.55        72.86754
812.96        72.80315
813.37        72.87693
813.78         73.1074
814.19        73.46201
814.60        73.84113
815.01         74.0869
815.42        74.16006
815.83        74.09632
816.24        73.95182
816.65        73.84095
817.05        73.80991
817.46        73.80078
817.87         73.8036
818.28        73.75745
818.69        73.64725
819.10        73.49934
819.51        73.34787
819.92        73.25021
820.33        73.22495
820.74        73.24767
821.14        73.28234
821.55        73.30453
821.96        73.29288
822.37        73.27664
822.78        73.25998
823.19        73.24711
823.60        73.25059
824.00        73.28342
824.41        73.34873
824.82        73.56525
825.23        73.92931
825.64        74.38757
826.04        74.84337
826.45        75.05275
826.86        74.98598
827.27        74.71745
827.68        74.30868
828.08        73.88995
828.49        73.49019
828.90        73.08778
829.31         72.7863
829.72        72.73761
830.12        72.99273
830.53        73.50093
830.94        74.04126
831.35        74.15746
831.75        73.77007
832.16        72.96562
832.57        72.17166
832.97        72.03615
833.38        72.66501
833.79        73.84728
834.20        75.15718
834.60        75.86252
835.01        75.72392
835.42        75.00059
835.82         74.0148
836.23        73.26241
836.64         72.9101
837.04        72.82089
837.45        72.89662
837.86        73.04301
838.26        73.21065
838.67        73.41914
839.08         73.6274
839.48        73.71385
839.89         73.6474
840.29        73.45354
840.70        73.21149
841.11        73.03098
841.51        72.96001
841.92        72.93395
842.33        72.99273
842.73        73.20181
843.14        73.50626
843.54        73.95285
843.95        74.35561
844.35        74.48179
844.76        74.25064
845.17        73.71568
845.57        73.13676
845.98        72.91519
846.38        73.15453
846.79        73.73907
847.19        74.36781
847.60        74.43012
848.00        73.82448
848.41        72.74108
848.81        71.62232
849.22        71.11633
849.62        71.38462
850.03        72.20101
850.43        73.22679
850.84        73.72363
851.24        73.54436
851.65        72.88033
852.05        72.09294
852.46        71.74202
852.86        71.96024
853.27        72.52238
853.67        73.19524
854.07        73.87279
854.48           74.43
854.88         75.0331
855.29        75.40043
855.69        75.27394
856.10        74.51139
856.50        73.30466
856.90        72.06323
857.31        71.39349
857.71        71.41571
858.12        71.92445
858.52        72.72623
858.92        73.21407
859.33        73.16405
859.73        72.79821
860.13        72.20878
860.54        71.57892
860.94        70.99872
861.34        70.37899
861.75        69.84435
862.15        69.67602
862.55        69.90201
862.96        70.46615
863.36        71.11481
863.76        71.32661
864.17        70.98851
864.57        70.25448
864.97         69.4502
865.38        69.12738
865.78        69.44946
866.18        70.22569
866.58        71.14032
866.99        71.62588
867.39        71.53796
867.79         71.0611
868.19        70.41296
868.60         69.8726
869.00        69.53141
869.40         69.3017
869.80        69.22384
870.21        69.37935
870.61        69.79418
871.01         70.3809
871.41         70.9298
871.81        71.11483
872.22        70.86535
872.62         70.2781
873.02        69.51257
873.42        68.84981
873.82         68.4161
874.22        68.17438
874.63        68.11371
875.03        68.19916
875.43        68.40601
875.83          68.742
876.23         69.1965
876.63        69.74176
877.03        70.33806
877.44        70.93306
877.84        71.45052
878.24        71.72857
878.64        71.73198
879.04        71.50604
879.44        71.17323
879.84        70.92657
880.24        70.82065
880.64        70.81654
881.04        70.86717
881.44        70.87627
881.84         70.8266
882.24        70.77615
882.65        70.71439
883.05        70.72861
883.45        70.78885
883.85        70.84209
884.25        70.94902
884.65        71.21328
885.05        71.63674
885.45        72.20578
885.85        72.70711
886.25        72.77911
886.65        72.34903
887.05        71.51092
887.45         70.6241
887.85        70.25259
888.25        70.51632
888.65        71.26741
889.04        72.09953
889.44         72.3213
889.84        71.79814
890.24        70.75262
890.64        69.64185
891.04        69.12054
891.44         69.3326
891.84        70.10654
892.24        71.02185
892.64        71.37003
893.04        70.97896
893.44        70.06332
893.83        69.13797
894.23        68.99155
894.63        69.74207
895.03        71.13743
895.43        72.59411
895.83        73.06913
896.23        72.32196
896.63        70.78568
897.02        69.05068
897.42        68.03883
897.82        67.89355
898.22        68.37105
898.62        69.21165
899.01        69.99897
899.41        70.50162
899.81        70.86425
900.21        71.17992
900.61        71.59238
901.00        72.11985
901.40        72.63028
901.80        72.98669
902.20        73.02187
902.59        72.72602
902.99        72.19292
903.39        71.58774
903.79        71.15932
904.18        70.97392
904.58         70.9835
904.98        71.11493
905.38        71.26158
905.77        71.37067
906.17        71.49471
906.57        71.57055
906.96        71.50455
907.36        71.28386
907.76        70.95585
908.15        70.67099
908.55        70.63709
908.95        70.91121
909.34        71.41486
909.74        72.00325
910.14        72.51161
910.53        72.85031
910.93         73.0685
911.33        73.11076
911.72        72.89053
912.12        72.45107
912.52        71.81656
912.91        71.16157
913.31        70.78206
913.70        70.75758
914.10        71.00663
914.49        71.38644
914.89        71.63788
915.29         71.6846
915.68        71.59833
916.08        71.42262
916.47        71.25388
916.87        71.13824
917.26        71.05608
917.66        71.01619
918.05        71.03401
918.45        71.10704
918.84         71.2773
919.24        71.53832
919.64        71.93568
920.03        72.45687
920.42        73.02219
920.82        73.55662
921.21        73.99553
921.61        74.28026
922.00        74.42801
922.40         74.3863
922.79        74.16164
923.19        73.76784
923.58        73.24448
923.98        72.66505
924.37        72.04819
924.77        71.45587
925.16        70.91101
925.55        70.48339
925.95        70.24467
926.34        70.24149
926.74        70.40206
927.13        70.79396
927.52        71.42036
927.92        72.21405
928.31        73.14837
928.70        73.98016
929.10        74.35294
929.49        74.21188
929.89        73.63924
930.28        72.90182
930.67        72.41527
931.07        72.29395
931.46        72.41278
931.85        72.65607
932.24        72.82329
932.64        72.83764
933.03        72.83456
933.42        72.71178
933.82         72.3132
934.21        71.65927
934.60        70.77864
934.99        70.02842
935.39        69.93507
935.78         70.6151
936.17        71.95258
936.56        73.43495
936.96        74.09512
937.35        73.70515
937.74        72.51559
938.13        71.14581
938.53        70.43626
938.92        70.51615
939.31        71.16684
939.70        72.01415
940.09        72.37747
940.49         72.0696
940.88        71.37497
941.27        70.60284
941.66        70.19885
942.05        70.28571
942.44        70.69423
942.84         71.3008
943.23        71.98045
943.62         72.5781
944.01        73.14198
944.40        73.56284
944.79        73.67542
945.18        73.47091
945.57         72.9692
945.97        72.36368
946.36        72.07334
946.75        72.16143
947.14        72.55377
947.53        73.02238
947.92        73.14324
948.31        72.81031
948.70        72.17609
949.09        71.51567
949.48        71.22807
949.87        71.42269
950.26         72.0057
950.65        72.76689
951.04        73.33952
951.43        73.59167
951.82         73.5789
952.21        73.52473
952.60        73.79716
952.99        74.42348
953.38        75.23545
953.77        75.87434
954.16        75.72266
954.55        74.69705
954.94        73.15272
955.33        71.45308
955.72        70.12875
956.11        69.36185
956.50        68.94016
956.89         69.0204
957.28         69.8499
957.66        71.41243
958.05        73.55884
958.44        75.52889
958.83         75.8792
959.22        74.33733
959.61        71.42485
960.00        68.29393
960.39        66.60557
960.78        66.70329
961.16         68.1334
961.55        70.16797
961.94        71.66177
962.33        72.18094
962.72        72.05402
963.11        71.49349
963.49        70.91422
963.88         70.4804
964.27        70.06815
964.66        69.68212
965.04         69.3718
965.43        69.12663
965.82        68.96679
966.21         68.9351
966.60        69.05117
966.98        69.30455
967.37        69.65099
967.76        69.91923
968.15        69.82108
968.53        69.32243
968.92        68.50898
969.31        67.65177
969.69        67.18542
970.08        67.17057
970.47        67.48162
970.86        67.92159
971.24        68.13773
971.63        67.95435
972.02        67.54053
972.40        66.95739
972.79        66.31956
973.17        65.74108
973.56         65.2194
973.95        64.88229
974.33        64.94248
974.72         65.3705
975.11        66.05505
975.49        66.99616
975.88        68.10375
976.26        69.29769
976.65        70.50549
977.04        71.26691
977.42        70.85207
977.81        69.24346
978.19        66.71583
978.58        64.44464
978.96        63.96157
979.35        65.54373
979.74        68.84306
980.12        72.99136
980.51        75.56673
980.89        75.88837
981.28        74.44811
981.66        72.18736
982.05        70.77773
982.43        70.69236
982.82        71.37554
983.20        72.65137
983.59        74.05766
983.97        75.42618
984.35        76.86757
984.74         77.8964
985.12        77.83303
985.51         76.5684
985.89        74.24834
986.28        71.68366
986.66        70.04978
987.04        69.78593
987.43         70.6172
987.81        71.93172
988.20        72.44555
988.58        71.86107
988.96        70.42467
989.35        68.96838
989.73        68.78366
990.12        70.07144
990.50        72.43396
990.88        74.73055
991.27        75.14928
991.65        73.40997
992.03        70.18848
992.42        66.77224
992.80        64.87336
993.18        65.04494
993.56        66.70476
993.95        69.08701
994.33        71.14474
994.71        72.20844
995.10        72.61401
995.48        72.38207
995.86        71.53621
996.24        70.27016
996.63        68.60648
997.01        66.93156
997.39         65.8303
997.77        65.45403
998.15        65.74568
998.54        66.57409
998.92        67.63206
999.30        68.73013
999.68        69.84639
1000.06        70.92454
1000.45         71.8501
1000.83        72.69236
1001.21        73.38333
1001.59        73.67438
1001.97        73.23842
1002.35        72.08002
1002.73        70.29408
1003.12        68.63253
1003.50        68.24295
1003.88        69.31438
1004.26        71.46912
1004.64        73.63856
1005.02         74.2177
1005.40         72.9157
1005.78        70.21065
1006.16        67.08225
1006.54        65.31495
1006.92        65.48117
1007.30        67.04367
1007.69         69.1348
1008.07        70.55366
1008.45        70.79323
1008.83        70.26707
1009.21        69.36286
1009.59         68.6944
1009.97        68.50389
1010.35        68.57227
1010.73        68.81297
1011.11         69.1272
1011.49        69.50723
1011.86        70.23048
1012.24        71.11694
1012.62        72.23973
1013.00        73.56817
1013.38        74.94143
1013.76        76.40918
1014.14        78.14229
1014.52        80.07102
1014.90        82.11729
1015.28        83.50814
1015.66         82.9903
1016.04        80.63418
1016.41        77.19841
1016.79        74.01061
1017.17        72.16047
1017.55        71.58703
1017.93        71.92963
1018.31        72.62567
1018.69        72.12439
1019.06        70.09177
1019.44        67.74113
1019.82        65.67742
1020.20        64.01238
1020.58         62.5941
1020.95        61.03286
1021.33        59.95794
1021.71        60.72847
1022.09        63.82474
1022.46        68.74879
1022.84        73.71852
1023.22         76.5705
1023.60        76.84818
1023.97        75.05009
1024.35        72.05859
1024.73        69.66483
