SpectraSmart Spectrum 2.9.0.0
--------- Device Information -----------
Spectrum Name :  反射率_0
Saving Time :  2024/05/01 16:08:59
Spectro-Module Model Name : SE2030-DUVN
Spectro-Module Serial Number : OS361AC55029948
Wavelength Start : 200
Wavelength End : 1025
Wavelength Unit : Wavelength(nm)
Spectrum Unit : Reflectance(%)
-----------Spectrum Setting ------------
Integration Time : 20ms
Average : 10
Boxcar : 0
Background removal :  enabled
linearity correction :  enabled
SC :  disabled
Intensity correction :  disabled
DWT denoise :  enabled
savitzky-golay :  disabled
FFT :  disabled
Running average :  disabled
Kalman :  disabled
High pass :  disabled
---------------BEGIN--------------------
Wavelength(nm)             Reflectance(%)
200.29               0
200.75        17.48086
201.21        224.6758
201.67       -121.9731
202.13       -38.72325
202.58       -2.584693
203.04        22.24192
203.50        39.52667
203.96        50.22725
204.42        58.44924
204.88        73.96432
205.34         442.332
205.80        -17.6536
206.26       -15.25795
206.72       -50.77738
207.18       -274.3816
207.64        405.6426
208.10        180.3723
208.55        131.1548
209.01        108.7551
209.47        95.71861
209.93        86.68745
210.39         78.4512
210.85        72.09349
211.31        70.18687
211.77         78.6964
212.23        -25.5955
212.69        39.73572
213.14        57.89775
213.60        109.8034
214.06        -432.376
214.52       -54.73517
214.98       -28.50157
215.44       -20.21302
215.90       -15.75977
216.36        11.97518
216.81       -46.15545
217.27       -95.77676
217.73        246.3038
218.19          52.313
218.65        29.24364
219.11        13.63612
219.57       -20.47916
220.02        -174.369
220.48       -118.4595
220.94       -37.09466
221.40        -12.7225
221.86       -2.328296
222.32        4.076976
222.77        10.37191
223.23        18.70102
223.69        29.41205
224.15        36.19693
224.61        35.27443
225.06        30.65705
225.52        27.01055
225.98        26.30917
226.44        28.27057
226.90        32.39359
227.36        37.84731
227.81        40.45023
228.27         38.4609
228.73        34.69971
229.19         31.3462
229.65        29.28253
230.10        28.18348
230.56        27.73136
231.02        27.68322
231.48        27.76242
231.93         27.8344
232.39        28.03155
232.85        28.65354
233.31        30.05787
233.77        32.04424
234.22        34.35511
234.68        36.39916
235.14        37.65565
235.60        38.14665
236.05        38.05656
236.51        37.80829
236.97        38.79555
237.43        41.77567
237.88        46.13519
238.34        50.41982
238.80        53.93763
239.26        56.98055
239.71        60.49318
240.17        63.95303
240.63        64.66861
241.08        60.92422
241.54        54.47258
242.00        50.44183
242.46        53.35181
242.91        65.30863
243.37        89.79945
243.83        130.9127
244.28        161.2741
244.74        151.1198
245.20        124.8811
245.66        103.0775
246.11        90.51016
246.57        83.61214
247.03        77.92989
247.48        70.25191
247.94        56.84803
248.40        39.75521
248.85        24.91935
249.31        20.17281
249.77        27.04075
250.22        39.31102
250.68        51.89574
251.14        61.58445
251.59        67.34434
252.05        70.53538
252.51        72.60783
252.96        75.27825
253.42        86.41324
253.88        101.8665
254.33        102.4271
254.79         97.9715
255.25        93.50143
255.70        89.14501
256.16        86.11527
256.62        83.35649
257.07        80.32547
257.53        77.96304
257.99        75.89082
258.44        74.33785
258.90          74.131
259.35         74.5444
259.81        75.50823
260.27        76.09009
260.72        75.18676
261.18        73.22939
261.63        70.50703
262.09        68.00381
262.55        66.24635
263.00        65.08874
263.46        64.38275
263.91         63.6298
264.37        62.61946
264.83         61.2609
265.28        59.73861
265.74        58.26144
266.19        56.78344
266.65        55.45829
267.11        54.15915
267.56         53.0654
268.02        52.58216
268.47         52.6641
268.93        53.13799
269.38        53.55713
269.84        53.14838
270.30        51.78601
270.75        49.72836
271.21        47.44472
271.66        45.51375
272.12        44.17474
272.57        43.19216
273.03        42.50103
273.48        41.92777
273.94         41.4132
274.39        40.97191
274.85        40.52966
275.31        39.88028
275.76        38.99865
276.22        38.00474
276.67        36.96479
277.13        36.11169
277.58        35.41532
278.04        34.84155
278.49        34.32521
278.95        33.89782
279.40        33.48499
279.86        33.13624
280.31        32.71565
280.77        32.13337
281.22        31.35206
281.68        30.49816
282.13        29.65033
282.59        29.01511
283.04        28.59826
283.50        28.38308
283.95        28.30884
284.41        28.33543
284.86        28.41207
285.32        28.55943
285.77        28.74399
286.22        28.96699
286.68        29.22297
287.13        29.47335
287.59        29.69855
288.04        29.82804
288.50        29.87692
288.95        29.82604
289.41        29.76338
289.86        29.72858
290.32        29.77598
290.77        29.89729
291.22           30.07
291.68        30.24105
292.13        30.41252
292.59        30.65052
293.04        31.02356
293.50        31.68402
293.95        32.63797
294.40        33.84508
294.86        35.20802
295.31        36.57932
295.77        37.89822
296.22        39.17247
296.68        40.44223
297.13        41.75903
297.58        43.16193
298.04        44.65675
298.49        46.18964
298.95        47.71897
299.40         49.2007
299.85        50.63842
300.31        52.13889
300.76        53.84452
301.21        55.79285
301.67        57.95663
302.12         60.1008
302.58        61.88194
303.03         63.1925
303.48        64.17083
303.94        65.16161
304.39        66.56609
304.84         68.5206
305.30        70.87858
305.75        73.34901
306.20          75.507
306.66         77.2394
307.11        78.62615
307.57        79.87109
308.02        81.16499
308.47        82.60734
308.93        84.12498
309.38        85.59863
309.83        86.94585
310.29        88.15605
310.74        89.26245
311.19        90.31409
311.65        91.35338
312.10        92.37218
312.55        93.34538
313.00         94.3106
313.46        95.33566
313.91        96.40681
314.36        97.50598
314.82        98.48378
315.27        99.11346
315.72        99.34383
316.18        99.28252
316.63        99.09689
317.08        99.11527
317.53        99.42316
317.99        99.93881
318.44         100.539
318.89        100.9861
319.35        101.2163
319.80        101.3302
320.25         101.416
320.70        101.6171
321.16        101.9593
321.61        102.3883
322.06        102.8775
322.51        103.4113
322.97        103.9333
323.42         104.485
323.87        104.9429
324.32        105.1279
324.78        105.0115
325.23        104.6928
325.68        104.3261
326.13        104.1889
326.59        104.3431
327.04        104.7671
327.49        105.3575
327.94        105.9546
328.39        106.4802
328.85        106.9201
329.30        107.3439
329.75        107.7101
330.20        108.0207
330.66        108.2468
331.11        108.4252
331.56        108.5012
332.01        108.4992
332.46        108.4436
332.92        108.4599
333.37        108.8571
333.82        109.6611
334.27        110.8256
334.72        112.1032
335.17        113.0487
335.63        113.4933
336.08        113.5729
336.53        113.5236
336.98        113.8153
337.43        114.5679
337.88        115.6529
338.34        116.7451
338.79        117.3901
339.24        117.4359
339.69        117.0527
340.14        116.5979
340.59        116.6255
341.05        117.2594
341.50        118.3402
341.95        119.5376
342.40        120.3227
342.85        120.5589
343.30        120.4266
343.75        120.2015
344.20        120.3047
344.66        120.8396
345.11         121.655
345.56        122.5697
346.01        123.2813
346.46        123.6945
346.91        123.9294
347.36        124.0752
347.81        124.2588
348.26        124.5292
348.72        124.8331
349.17        125.1599
349.62        125.5751
350.07         126.043
350.52        126.5129
350.97         126.862
351.42        126.8825
351.87         126.549
352.32        125.9793
352.77        125.2368
353.22        124.4251
353.67        123.6173
354.13        122.8158
354.58        122.1558
355.03        121.9554
355.48        122.2328
355.93         122.925
356.38        123.6259
356.83         123.648
357.28        122.8621
357.73        121.4854
358.18        120.0497
358.63        119.3546
359.08        119.5375
359.53        120.3202
359.98        121.2283
360.43         121.473
360.88        120.8318
361.33        119.5796
361.78        118.0639
362.23        116.7698
362.68        115.8411
363.13         115.136
363.58        114.5206
364.03        113.8099
364.48        112.9491
364.93        112.0032
365.38        111.0976
365.83        110.3878
366.28         109.884
366.73         109.532
367.18        109.1014
367.63        108.2461
368.08        106.9417
368.53        105.3364
368.98        103.7796
369.43        102.7719
369.88        102.3936
370.33        102.4796
370.78        102.7245
371.23        102.5935
371.68        101.9336
372.13        100.9341
372.58        99.80772
373.03        98.86564
373.48        98.18874
373.93        97.64179
374.38        97.19351
374.83        96.81577
375.28         96.4694
375.72        96.16829
376.17        95.81654
376.62        95.19007
377.07        94.27331
377.52        93.13589
377.97        91.99306
378.42        91.19142
378.87        90.80583
379.32        90.73269
379.77         90.7726
380.22        90.61076
380.67         90.1684
381.11        89.54716
381.56        88.87888
382.01        88.40223
382.46        88.18214
382.91        88.12609
383.36        88.12186
383.81        88.00744
384.26        87.73077
384.71        87.34315
385.15        86.88596
385.60        86.47088
386.05        86.11372
386.50        85.78824
386.95        85.46107
387.40        85.09094
387.85        84.67635
388.29        84.19382
388.74        83.78339
389.19        83.44201
389.64        83.16833
390.09        82.93714
390.54        82.70991
390.98        82.41053
391.43        82.08713
391.88        81.74812
392.33        81.42081
392.78        81.17568
393.23        81.02162
393.67         80.8027
394.12        80.58138
394.57        80.54041
395.02        80.54992
395.47        80.06431
395.91         79.2418
396.36         78.8119
396.81        78.84377
397.26          78.993
397.71        79.07949
398.15        78.96294
398.60        78.69096
399.05        78.16163
399.50        77.60063
399.95        77.55612
400.39        77.97518
400.84        78.15767
401.29        77.98965
401.74        77.79986
402.18        77.57274
402.63        77.04088
403.08        76.36815
403.53         75.9305
403.97        75.76855
404.42        75.76951
404.87        75.84894
405.32        75.85508
405.76        75.73569
406.21        75.66731
406.66        75.59435
407.11        75.26672
407.55        74.83084
408.00        74.57739
408.45         74.5582
408.90        74.86343
409.34        75.21893
409.79        74.78171
410.24        73.76737
410.68        73.32501
411.13        73.53393
411.58        73.71366
412.03        73.78629
412.47        73.95382
412.92        74.14394
413.37         74.2975
413.81        74.37055
414.26        74.36529
414.71        74.26334
415.15        74.09569
415.60        73.86517
416.05        73.63952
416.49        73.45451
416.94        73.30056
417.39        73.20172
417.83        73.16969
418.28        73.20547
418.73        73.31323
419.17         73.4398
419.62        73.50152
420.07        73.46719
420.51        73.33372
420.96        73.20927
421.41        73.12536
421.85        73.06445
422.30        73.24394
422.74        73.53394
423.19        73.32356
423.64         72.7498
424.08         72.9849
424.53        73.94913
424.98         73.7991
425.42        73.81654
425.87        73.58064
426.31          73.583
426.76        73.29448
427.21        72.93068
427.65        73.33468
428.10        74.19288
428.54        74.47632
428.99        74.16311
429.44        73.36842
429.88         72.4669
430.33        72.87889
430.77        74.10444
431.22         73.9698
431.66        72.65745
432.11        72.10987
432.56        72.43452
433.00        73.10705
433.45        73.90185
433.89        73.79406
434.34        72.30916
434.78        74.52386
435.23        74.17623
435.67        74.33545
436.12         73.5057
436.57        73.78463
437.01        74.94954
437.46        75.51112
437.90        75.51484
438.35        74.16315
438.79        74.79255
439.24        74.26104
439.68        73.67222
440.13        73.58253
440.57        74.01936
441.02        74.38537
441.46        74.54536
441.91        75.07436
442.35        75.68714
442.80        75.52678
443.24        75.13027
443.69        74.88387
444.13        74.97612
444.58        74.96326
445.02        74.84955
445.47         74.9521
445.91           75.24
446.36        75.52222
446.80         75.7544
447.24        75.99732
447.69        76.21077
448.13        76.30871
448.58        76.29904
449.02         76.1687
449.47        76.01247
449.91          75.942
450.36        76.00339
450.80        76.14213
451.25        76.29233
451.69        76.30149
452.13        76.14689
452.58         75.8789
453.02        75.56748
453.47        75.35859
453.91        75.26853
454.36        75.28804
454.80        75.33475
455.24        75.19577
455.69        74.84734
456.13        74.52102
456.58        74.40649
457.02        73.82773
457.46        74.03025
457.91         74.4405
458.35        75.09486
458.79        75.20444
459.24        74.73523
459.68        73.99673
460.13        73.31277
460.57        72.76953
461.01        72.75731
461.46        72.92878
461.90        73.54057
462.34        73.28563
462.79        72.78791
463.23        72.79167
463.68        73.30505
464.12        73.34295
464.56        72.89409
465.01        72.43077
465.45         72.0602
465.89        72.23849
466.34        72.75836
466.78        72.82372
467.22         72.1207
467.67        71.85545
468.11        71.75449
468.55        71.80379
468.99        71.85993
469.44        71.84697
469.88        71.76354
470.32        71.72838
470.77        71.74648
471.21        71.75027
471.65        71.71142
472.10         71.6591
472.54        71.59463
472.98        71.48207
473.42        71.31123
473.87        71.30989
474.31        71.37232
474.75        70.93533
475.20        70.23899
475.64        70.35789
476.08        71.13686
476.52        71.41469
476.97        71.10709
477.41        71.06814
477.85        70.55891
478.29        71.02754
478.74        71.05494
479.18        71.06786
479.62        70.29713
480.06        70.08889
480.50        70.33255
480.95        69.70639
481.39        70.36488
481.83        69.55916
482.27        69.81261
482.72        69.96632
483.16         69.8474
483.60        70.03987
484.04        70.27043
484.48        70.30458
484.93        70.31812
485.37          70.943
485.81        70.77836
486.25        71.55128
486.69        71.18217
487.14        68.85635
487.58        68.10209
488.02        70.22134
488.46        69.81216
488.90        68.46649
489.34         69.9322
489.79        69.46007
490.23        69.58191
490.67        69.39732
491.11        69.31717
491.55        69.42466
491.99        69.60894
492.43        69.62016
492.88        69.42062
493.32        69.20706
493.76        69.04337
494.20        68.98913
494.64        69.06548
495.08        69.17218
495.52        69.28094
495.96        69.45724
496.41        69.58238
496.85        69.43439
497.29        69.08768
497.73         68.5212
498.17        68.47521
498.61          68.363
499.05        68.27401
499.49        68.42411
499.93        68.70068
500.37        69.04118
500.82        69.38981
501.26        69.28845
501.70        69.41061
502.14        69.37086
502.58        69.02733
503.02        68.78076
503.46        68.56028
503.90        68.33445
504.34        68.17899
504.78        68.23167
505.22        68.47984
505.66        68.94295
506.10        69.46104
506.54        69.54427
506.98        69.08556
507.42        69.05915
507.86        68.15336
508.30        67.86703
508.74        67.83716
509.18        68.01102
509.62        68.28672
510.06        68.52353
510.50        68.67345
510.94        68.76643
511.38         68.8068
511.82        68.79581
512.26        68.73933
512.70        68.61807
513.14        68.46033
513.58        68.33022
514.02        68.24657
514.46        68.18314
514.90         68.1583
515.34        68.08105
515.78        67.96032
516.22        67.81843
516.66        67.70547
517.10        67.69476
517.54        67.79642
517.98        67.98021
518.42        68.18863
518.86         68.3285
519.30        68.37232
519.74        68.34522
520.18        68.28007
520.62        68.23409
521.06        68.22114
521.50        68.21275
521.93        68.20538
522.37         68.1841
522.81         68.1498
523.25        68.12399
523.69        68.07626
524.13        67.95201
524.57         67.7579
525.01        67.51614
525.45        67.31777
525.89        67.30623
526.32        67.49755
526.76        67.83409
527.20        68.19973
527.64        68.40866
528.08         68.4105
528.52        68.26861
528.96        68.04642
529.40        67.84618
529.83        67.70223
530.27        67.60026
530.71        67.55325
531.15        67.59895
531.59        67.73235
532.03        67.94189
532.46        68.15314
532.90        68.26217
533.34         68.2441
533.78        68.07652
534.22        67.82852
534.66        67.72836
535.09        67.74065
535.53        67.59277
535.97        67.31344
536.41        67.18757
536.85         67.2244
537.28        67.28198
537.72        67.33799
538.16        67.37958
538.60        67.38304
539.04        67.48081
539.47        67.42167
539.91        67.44187
540.35        67.45473
540.79        67.48394
541.22        67.51501
541.66        67.43419
542.10        67.41548
542.54        67.33319
542.97        67.25314
543.41         67.2297
543.85        67.25749
544.29        67.31837
544.72         67.3861
545.16        67.44478
545.60        67.46769
546.04        67.49319
546.47        67.50507
546.91        67.40217
547.35        67.23938
547.79        67.20322
548.22         67.2333
548.66        67.21709
549.10        67.15034
549.53        66.82569
549.97        66.87357
550.41        66.88966
550.84        67.05013
551.28        67.32433
551.72        67.62556
552.15        67.76354
552.59         67.7343
553.03        67.64663
553.46        67.51141
553.90        67.44691
554.34        67.48027
554.77         67.3706
555.21        67.10027
555.65        67.57983
556.08        67.43262
556.52         67.2926
556.96        66.85452
557.39        66.60715
557.83        66.65687
558.27        66.70203
558.70        66.72472
559.14         67.0047
559.57        66.93737
560.01        67.20541
560.45        67.48019
560.88        67.38218
561.32        67.02374
561.75        66.56482
562.19        66.22124
562.63        66.47385
563.06        67.11423
563.50        67.01984
563.93         66.2964
564.37        66.12698
564.80         66.5096
565.24        66.80319
565.68        66.89962
566.11        66.94665
566.55        66.95355
566.98        66.81734
567.42        66.66441
567.85        66.71884
568.29        66.98967
568.72        67.16184
569.16        67.28368
569.60        67.32986
570.03        67.25578
570.47        67.06809
570.90        67.37292
571.34        66.48127
571.77        66.87383
572.21        66.78866
572.64        66.98664
573.08        66.74425
573.51        67.23713
573.95        67.70768
574.38        67.16713
574.82        67.12473
575.25        67.59441
575.69        67.59725
576.12        67.36108
576.56        66.98455
576.99        67.74149
577.42        67.30084
577.86        67.40884
578.29        67.18037
578.73         68.4171
579.16        66.93871
579.60        66.60853
580.03        66.27003
580.47        67.21342
580.90        66.37257
581.33        67.57273
581.77        67.51836
582.20        68.04613
582.64        67.61658
583.07        67.32674
583.51        66.91035
583.94        66.92188
584.37        67.26064
584.81        67.80173
585.24        67.91999
585.68        67.60896
586.11        67.34663
586.54        67.47681
586.98        66.67443
587.41        66.13892
587.85        66.98726
588.28        67.38846
588.71        66.22511
589.15        66.90869
589.58        66.51634
590.01        66.19073
590.45        66.37505
590.88        66.96577
591.31        67.18636
591.75        66.88439
592.18        66.64844
592.61        66.43444
593.05         66.3857
593.48        66.54803
593.91        67.06739
594.35        66.34485
594.78        66.24867
595.21        66.15847
595.65        67.01705
596.08        66.55728
596.51        66.38652
596.94        66.30112
597.38        66.25961
597.81        66.47446
598.24        66.07967
598.68        66.64854
599.11        66.18768
599.54        67.45905
599.97        66.89546
600.41         66.2947
600.84        66.63745
601.27        66.44727
601.70        66.97172
602.14        67.16047
602.57        66.96426
603.00        66.39715
603.43        66.07236
603.87        66.49835
604.30        66.62593
604.73        66.31409
605.16        66.20055
605.60        66.20183
606.03        66.40283
606.46         66.5493
606.89        66.52583
607.32        65.84441
607.76        65.56772
608.19         65.7914
608.62        66.41653
609.05        66.46004
609.48        66.65401
609.92        66.02209
610.35        65.45145
610.78        66.88889
611.21        67.03744
611.64        66.53893
612.07        66.67333
612.50        66.91711
612.94        66.83879
613.37        66.25706
613.80         66.4593
614.23        65.89613
614.66        66.24939
615.09        66.00462
615.52        66.14213
615.96        66.24253
616.39        66.46201
616.82         66.0246
617.25        66.16478
617.68        66.55704
618.11        66.45325
618.54        65.92615
618.97        65.71809
619.40        65.88067
619.84        65.94238
620.27        65.90641
620.70        66.11899
621.13        66.49043
621.56         66.4262
621.99        65.92271
622.42        65.99536
622.85        65.72115
623.28        65.58102
623.71        65.42024
624.14        65.79945
624.57        65.97963
625.00        66.19308
625.43        66.19666
625.86        66.15305
626.29        66.08223
626.72        65.90916
627.15        65.84871
627.58        65.68472
628.01        65.52122
628.44         65.5561
628.87        65.73392
629.30        65.74085
629.73        65.59497
630.16        65.57722
630.59         65.6879
631.02        65.75832
631.45        65.76279
631.88        65.74426
632.31         65.7009
632.74        65.62145
633.17        65.54095
633.60        65.51707
634.03        65.56116
634.46        65.65849
634.89        65.77131
635.32        65.83394
635.75        65.82673
636.18        65.76691
636.61        65.67895
637.04        65.60638
637.47        65.56875
637.89        65.54207
638.32        65.48849
638.75        65.45208
639.18        65.44428
639.61        65.19564
640.04        65.21818
640.47        65.14823
640.90        65.14025
641.33        65.16199
641.76        65.18532
642.18        65.25369
642.61        65.35808
643.04        65.34734
643.47        65.17019
643.90        65.66988
644.33        65.43036
644.76        65.48354
645.18        65.45194
645.61        65.65276
646.04        65.98008
646.47        65.91152
646.90        65.51518
647.33        65.34371
647.75         65.4219
648.18        65.41791
648.61        65.34661
649.04        65.29425
649.47        65.24474
649.89        65.41791
650.32         65.6707
650.75         65.2751
651.18        64.47417
651.61        64.48624
652.03        65.25185
652.46        65.59275
652.89        65.41328
653.32        65.29606
653.74         65.3768
654.17        65.34869
654.60        65.58327
655.03        65.80934
655.46        64.96032
655.88        65.30686
656.31        72.28455
656.74        70.30009
657.16        65.15229
657.59        63.97628
658.02        65.19046
658.45        65.68267
658.87        65.77582
659.30        64.27947
659.73        65.03624
660.15        65.63675
660.58        65.23769
661.01        65.08916
661.44        64.77135
661.86        64.83427
662.29        65.20332
662.72        65.40724
663.14        65.42564
663.57        65.49651
664.00        65.62178
664.42        65.64733
664.85        65.57667
665.27        65.43626
665.70        65.27296
666.13         65.1701
666.55        65.15785
666.98        65.19666
667.41        65.27702
667.83          65.388
668.26        65.49883
668.69        65.60999
669.11        65.70315
669.54        65.77331
669.96        65.80633
670.39        65.74017
670.82        65.61577
671.24        65.54813
671.67         65.5556
672.09        65.57851
672.52        65.60356
672.94        65.57917
673.37        65.50098
673.80        65.38625
674.22        65.27141
674.65         65.1806
675.07        65.14524
675.50        65.14576
675.92        65.18097
676.35        65.23904
676.77        65.31429
677.20        65.39795
677.62         65.4876
678.05         65.5653
678.47        65.62299
678.90        65.66898
679.32          65.684
679.75          65.663
680.17        65.60001
680.60        65.50007
681.02         65.4006
681.45         65.3289
681.87        65.30395
682.30        65.36552
682.72        65.47774
683.15        65.40784
683.57        65.21254
684.00        65.22178
684.42        65.41518
684.85        65.50188
685.27        65.45337
685.70        65.44541
686.12        65.46561
686.54         65.4174
686.97        65.29183
687.39        65.20567
687.82          65.142
688.24         64.9193
688.66        64.62908
689.09        64.68209
689.51        65.04529
689.94        65.23246
690.36        65.21448
690.78        65.28584
691.21         65.4705
691.63        65.57339
692.06        65.65189
692.48        66.00754
692.90        66.52219
693.33        66.73526
693.75        66.60381
694.17        66.29331
694.60        65.93681
695.02        65.73325
695.44        65.67684
695.87        65.58121
696.29        65.43864
696.71        65.20885
697.14        65.01102
697.56        65.25473
697.98        65.82304
698.41        66.11531
698.83        66.07378
699.25        66.01984
699.68        65.98662
700.10        65.95689
700.52        65.94666
700.94        65.91167
701.37        65.87182
701.79        65.98351
702.21        66.17752
702.64        66.26714
703.06        66.23729
703.48        66.12973
703.90        65.93082
704.33         66.0281
704.75        65.64509
705.17         65.6089
705.59        65.69596
706.01        65.87172
706.44        66.08457
706.86        66.28012
707.28        66.41697
707.70         66.5288
708.12        66.59815
708.55        66.52781
708.97        66.34502
709.39        66.20211
709.81        66.12247
710.23        66.03381
710.66        65.94983
711.08        65.95232
711.50        66.01872
711.92        66.08488
712.34         66.1384
712.76        66.19593
713.19        66.24007
713.61        66.29037
714.03         66.3263
714.45        66.33862
714.87        66.34432
715.29        66.37358
715.71        66.43034
716.13         66.5109
716.56        66.56585
716.98        66.58862
717.40        66.54347
717.82        66.45776
718.24        66.38611
718.66        66.33896
719.08        66.45066
719.50        66.59577
719.92        66.74642
720.34        66.79606
720.76        66.72124
721.19        66.55566
721.61        66.35908
722.03         66.2211
722.45        66.17669
722.87        66.21165
723.29        66.29553
723.71         66.3782
724.13        66.43703
724.55        66.46814
724.97        66.51165
725.39        66.63165
725.81        66.82752
726.23        67.07678
726.65        67.26338
727.07        67.20482
727.49         66.8849
727.91        66.37923
728.33        65.86948
728.75        65.64227
729.17        65.76074
729.59        66.12915
730.01        66.60339
730.43        66.93198
730.85        67.02664
731.27        66.96767
731.69        66.79763
732.10        66.58363
732.52        66.37336
732.94        66.14114
733.36         65.9503
733.78        65.92316
734.20        66.07407
734.62        66.35902
735.04        66.69682
735.46         66.9501
735.88        67.08534
736.30        67.14861
736.72        67.12811
737.13         67.0871
737.55        67.03331
737.97        66.78065
738.39         66.4679
738.81        66.76258
739.23        67.49702
739.65        67.56455
740.06        66.98703
740.48        66.80532
740.90        67.01628
741.32        67.06744
741.74        66.90182
742.16        66.73979
742.57        66.59842
742.99        66.38952
743.41        66.22059
743.83        66.30133
744.25        66.61322
744.67        66.97804
745.08        67.28911
745.50        67.41112
745.92        67.31157
746.34        66.99416
746.75        66.55993
747.17        66.23727
747.59        66.07058
748.01         66.0068
748.42        66.04215
748.84        66.13499
749.26        66.27198
749.68        66.46177
750.09        66.65616
750.51        66.79364
750.93        66.85081
751.35        66.83338
751.76         66.7802
752.18        66.75613
752.60        66.78426
753.01        66.86572
753.43        66.94971
753.85        66.99226
754.27        66.99001
754.68        66.97136
755.10        66.97884
755.52         67.0704
755.93        67.23567
756.35        67.42735
756.77         67.6231
757.18        67.72157
757.60         67.7088
758.02         67.8073
758.43        67.89924
758.85         67.4847
759.26        66.78097
759.68        66.57397
760.10        67.16341
760.51        67.52403
760.93        67.56904
761.34        67.52316
761.76        67.42166
762.18        67.14272
762.59        66.85377
763.01        66.96592
763.42        67.44914
763.84        67.62565
764.26        67.46702
764.67        67.32669
765.09        67.26959
765.50        67.18991
765.92        67.15611
766.33        67.00525
766.75        66.89968
767.16        67.30811
767.58        67.35823
768.00         67.6605
768.41        67.97915
768.83        68.49024
769.24        69.06561
769.66        69.39442
770.07        69.41191
770.49        69.06934
770.90        68.53255
771.32         68.3361
771.73          68.456
772.15        68.32877
772.56        67.96857
772.97        67.69888
773.39        67.59176
773.80        67.77612
774.22        68.14854
774.63        68.38009
775.05        68.39657
775.46        68.49775
775.88        68.64534
776.29        68.64743
776.70        68.52973
777.12        68.48051
777.53        68.54321
777.95        68.64359
778.36        68.74131
778.77        68.74961
779.19        68.65273
779.60        68.48677
780.02        68.30299
780.43        68.20511
780.84        68.22863
781.26        68.26278
781.67        68.28699
782.09        68.44521
782.50        68.62603
782.91        68.38878
783.33        67.91635
783.74        67.90256
784.15        68.40192
784.57        69.21725
784.98        69.81962
785.39        70.36267
785.81        70.64289
786.22         70.4996
786.63        70.41154
787.04        70.17479
787.46        69.99886
787.87        69.79617
788.28        69.65643
788.70        69.68162
789.11         69.8458
789.52        70.16811
789.93        70.50617
790.35         70.5546
790.76        70.31641
791.17        69.97621
791.58        69.64474
792.00        69.43591
792.41        69.42603
792.82        69.44771
793.23        69.48184
793.65        69.90042
794.06        70.47671
794.47        70.21824
794.88        69.38177
795.29        69.13611
795.71        69.47578
796.12        69.88675
796.53        70.18215
796.94         70.3175
797.35        70.20702
797.76        69.88424
798.18        69.52477
798.59        69.35788
799.00        69.45264
799.41         69.7384
799.82        70.11341
800.23        70.40202
800.64        70.53757
801.06        70.54885
801.47        70.50426
801.88        70.41959
802.29        70.32214
802.70        70.20303
803.11        70.08195
803.52        69.99716
803.93        69.96554
804.34        69.98208
804.75        70.05597
805.17        70.21389
805.58        70.48465
805.99        70.71396
806.40        70.84708
806.81        71.05562
807.22        71.20724
807.63        70.76486
808.04        69.91091
808.45        69.47419
808.86        69.56236
809.27        69.76184
809.68        69.98293
810.09         70.2317
810.50        70.44778
810.91        70.63897
811.32        70.76164
811.73         70.7416
812.14        70.58002
812.55        70.29255
812.96        70.00313
813.37         69.9341
813.78        70.13593
814.19        70.54053
814.60        71.01284
815.01        71.34106
815.42        71.46781
815.83        71.45179
816.24        71.34489
816.65        71.24905
817.05        71.21474
817.46        71.18292
817.87        71.17802
818.28        71.20265
818.69        71.24625
819.10        71.30634
819.51        71.37023
819.92        71.40192
820.33        71.38686
820.74          71.341
821.14        71.23403
821.55        71.04746
821.96        70.78113
822.37        70.46211
822.78        70.19067
823.19        70.14053
823.60        70.36169
824.00        70.82549
824.41        71.37882
824.82        71.87026
825.23        72.21583
825.64        72.41405
826.04        72.50847
826.45        72.51093
826.86        72.46544
827.27         72.3775
827.68        72.17751
828.08        71.77612
828.49        71.15874
828.90        70.39793
829.31        69.73606
829.72        69.53705
830.12        69.90448
830.53        70.70842
830.94         71.6411
831.35        72.09042
831.75         71.9024
832.16        71.20937
832.57        70.41803
832.97        70.15108
833.38        70.52972
833.79        71.33681
834.20        72.26737
834.60        72.80343
835.01        72.76287
835.42        72.36937
835.82        71.77407
836.23        71.19174
836.64        70.72964
837.04        70.31896
837.45        70.05817
837.86        70.18841
838.26        70.72941
838.67        71.57928
839.08        72.45046
839.48         72.8258
839.89        72.57592
840.29        71.86369
840.70        70.97533
841.11        70.34114
841.51        70.11055
841.92        70.12953
842.33        70.34632
842.73        70.67781
843.14        71.01232
843.54         71.4401
843.95        71.81496
844.35        71.95381
844.76        71.79006
845.17        71.35383
845.57        70.84165
845.98        70.56829
846.38        70.63085
846.79         70.9482
847.19        71.33916
847.60         71.3989
848.00        71.06335
848.41        70.44453
848.81        69.83463
849.22        69.65648
849.62        70.01461
850.03        70.74572
850.43        71.58808
850.84        71.94944
851.24         71.7338
851.65        71.08197
852.05          70.336
852.46        70.02635
852.86        70.26963
853.27        70.86722
853.67        71.55592
854.07        72.17146
854.48        72.58398
854.88        72.95565
855.29        73.07668
855.69        72.84133
856.10        72.15535
856.50        71.15804
856.90        70.13457
857.31         69.5083
857.71        69.36131
858.12        69.54218
858.52        69.94487
858.92        70.14381
859.33        69.99162
859.73        69.66175
860.13         69.1954
860.54         68.6909
860.94        68.20829
861.34        67.69077
861.75        67.26608
862.15        67.21105
862.55        67.55077
862.96        68.20708
863.36        68.93628
863.76        69.24734
864.17        69.02671
864.57        68.41755
864.97        67.70631
865.38        67.38058
865.78        67.59282
866.18        68.17745
866.58        68.87365
866.99        69.21242
867.39        69.08797
867.79        68.66808
868.19        68.13317
868.60        67.70543
869.00        67.45741
869.40        67.31057
869.80         67.3252
870.21        67.61082
870.61        68.19168
871.01        68.96781
871.41        69.67665
871.81        69.92291
872.22        69.62965
872.62        68.90953
873.02        68.01169
873.42        67.36439
873.82        67.11897
874.22        67.19187
874.63        67.44301
875.03        67.63085
875.43        67.68848
875.83         67.6905
876.23        67.75539
876.63        68.06149
877.03        68.61884
877.44        69.30433
877.84        69.94689
878.24        70.23135
878.64        70.07516
879.04        69.58349
879.44        68.92916
879.84        68.36728
880.24        67.98906
880.64        67.75768
881.04        67.62447
881.44        67.49506
881.84        67.35133
882.24        67.23578
882.65        67.20071
883.05         67.4231
883.45        67.86166
883.85        68.41605
884.25        68.94828
884.65        69.28615
885.05        69.39877
885.45        69.34892
885.85        69.17498
886.25         68.9556
886.65        68.73668
887.05        68.49108
887.45        68.30901
887.85        68.32141
888.25        68.54441
888.65        68.96756
889.04        69.40315
889.44        69.51306
889.84         69.2435
890.24        68.66968
890.64        68.07611
891.04        67.88242
891.44        68.16897
891.84        68.84597
892.24        69.56405
892.64        69.72689
893.04        69.21575
893.44        68.21964
893.83        67.23553
894.23        67.02664
894.63        67.70496
895.03        69.03159
895.43        70.46429
895.83        71.01746
896.23        70.44843
896.63        69.15701
897.02        67.64331
897.42        66.71065
897.82        66.48939
898.22        66.76681
898.62        67.38033
899.01        68.08115
899.41        68.69183
899.81         69.3226
900.21         69.9583
900.61         70.5543
901.00          71.074
901.40        71.42731
901.80        71.60479
902.20        71.64311
902.59         71.5647
902.99        71.38759
903.39        71.10849
903.79        70.71053
904.18        70.21085
904.58        69.66764
904.98        69.18792
905.38        68.93081
905.77        68.91689
906.17        69.12733
906.57         69.3933
906.96         69.4457
907.36        69.21487
907.76        68.79736
908.15        68.41698
908.55        68.39348
908.95        68.81086
909.34        69.54992
909.74        70.36641
910.14        70.95038
910.53        71.17308
910.93         71.1079
911.33        70.84093
911.72        70.50604
912.12        70.18957
912.52        69.87296
912.91        69.52032
913.31        69.07343
913.70        68.56912
914.10        68.07384
914.49        67.76176
914.89        67.86337
915.29        68.39602
915.68        69.24128
916.08        70.17289
916.47        70.82668
916.87        71.07362
917.26        71.01846
917.66        70.73505
918.05        70.34831
918.45        69.92255
918.84        69.45553
919.24        69.06451
919.64        69.02967
920.03         69.4155
920.42        70.13629
920.82        70.94508
921.21         71.4865
921.61        71.63132
922.00        71.44331
922.40         71.0623
922.79        70.83665
923.19        70.84402
923.58         70.9923
923.98        71.05282
924.37        70.63503
924.77        69.74113
925.16        68.52348
925.55        67.35828
925.95        66.85841
926.34        67.21752
926.74        68.19194
927.13        69.52911
927.52        70.72417
927.92        71.56488
928.31        72.17181
928.70        72.50976
929.10        72.56667
929.49        72.39635
929.89        71.97141
930.28        71.43481
930.67        71.00782
931.07        70.75716
931.46        70.65327
931.85        70.67487
932.24        70.75671
932.64        70.85334
933.03        71.02247
933.42        71.12039
933.82        70.93886
934.21        70.46288
934.60        69.74065
934.99        69.06555
935.39        68.85799
935.78        69.23333
936.17        70.11023
936.56        71.11609
936.96         71.5644
937.35        71.29812
937.74        70.45346
938.13        69.51343
938.53        69.13082
938.92        69.38261
939.31        70.12495
939.70        70.92316
940.09        70.99743
940.49        70.18928
940.88        68.82214
941.27        67.44704
941.66        66.86971
942.05        67.26972
942.44        68.39664
942.84        69.85696
943.23        70.98199
943.62        71.44277
944.01        71.44958
944.40        71.15007
944.79        70.79977
945.18        70.51482
945.57        70.16947
945.97        69.86774
946.36         69.8952
946.75        70.25175
947.14        70.92751
947.53        71.62804
947.92        71.79268
948.31        71.30185
948.70        70.33536
949.09        69.32121
949.48        68.90947
949.87        69.25925
950.26        70.20458
950.65        71.39761
951.04        72.22007
951.43        72.45104
951.82        72.21682
952.21        71.83141
952.60        71.79227
952.99        72.17955
953.38         72.8102
953.77        73.29392
954.16        72.97015
954.55        71.75414
954.94        70.01227
955.33        68.22129
955.72        67.06958
956.11        66.74728
956.50        66.99651
956.89        67.72509
957.28        68.78758
957.66        70.07408
958.05        71.50311
958.44         72.6526
958.83        72.71193
959.22        71.55907
959.61        69.50603
960.00        67.24745
960.39        65.77973
960.78        65.33209
961.16        65.68047
961.55        66.48313
961.94        67.24086
962.33        67.73512
962.72        68.12053
963.11        68.36113
963.49        68.39715
963.88        68.20039
964.27        67.77956
964.66         67.2818
965.04        66.95824
965.43        66.84631
965.82        66.87756
966.21        67.00385
966.60        67.10439
966.98        67.13792
967.37        67.14777
967.76        67.06406
968.15        66.75002
968.53        66.21538
968.92        65.48018
969.31        64.79607
969.69        64.56588
970.08        64.82553
970.47        65.48144
970.86        66.20282
971.24        66.39458
971.63         65.8457
972.02        64.78426
972.40         63.5673
972.79        62.76612
973.17        62.55046
973.56        62.75166
973.95        63.16547
974.33        63.48709
974.72        63.57259
975.11        63.47705
975.49        63.43723
975.88        63.85256
976.26        64.85606
976.65        66.23756
977.04        67.45441
977.42        67.63966
977.81         66.6525
978.19        64.76651
978.58        63.02217
978.96        62.74704
979.35        64.19325
979.74        67.06931
980.12        70.57414
980.51        72.49286
980.89        72.27487
981.28        70.38728
981.66        67.91414
982.05        66.71979
982.43        67.26505
982.82        68.95277
983.20        71.24243
983.59        73.03592
983.97          74.007
984.35        74.43571
984.74        74.24715
985.12        73.44532
985.51        72.10793
985.89        70.19096
986.28        68.22358
986.66        66.91209
987.04        66.56079
987.43        67.05579
987.81        67.95676
988.20         68.2709
988.58        67.77938
988.96        66.59322
989.35         65.4384
989.73        65.45186
990.12        66.79623
990.50        69.18071
990.88        71.44322
991.27        71.72706
991.65        69.77583
992.03        66.24094
992.42        62.64667
992.80        61.08529
993.18         62.1535
993.56        65.19184
993.95        68.97339
994.33        71.60108
994.71        72.18095
995.10         71.2778
995.48        69.52561
995.86        68.00488
996.24        67.15569
996.63        66.60876
997.01        66.22075
997.39         65.8069
997.77        65.29597
998.15        64.86746
998.54        64.56067
998.92        64.36556
999.30        64.30394
999.68        64.34445
1000.06        64.47292
1000.45        64.66385
1000.83        64.99297
1001.21        65.34631
1001.59        65.67346
1001.97        65.90699
1002.35        66.00372
1002.73        65.98046
1003.12        65.79118
1003.50        65.31709
1003.88        64.64725
1004.26        63.91574
1004.64        63.30509
1005.02        63.04831
1005.40        63.20781
1005.78        63.71152
1006.16        64.54461
1006.54        65.64259
1006.92        66.85724
1007.30        68.08027
1007.69        69.02811
1008.07        69.51103
1008.45         69.4101
1008.83         68.8756
1009.21        67.99717
1009.59        66.95412
1009.97        65.89429
1010.35        64.77472
1010.73        64.05294
1011.11        64.48042
1011.49        66.23525
1011.86        69.39628
1012.24        72.82955
1012.62        74.78694
1013.00         74.6201
1013.38        72.53847
1013.76        69.86725
1014.14        69.16975
1014.52        71.21712
1014.90        75.33959
1015.28        79.84306
1015.66        81.58023
1016.04        79.90922
1016.41        76.26682
1016.79        72.48864
1017.17        70.17216
1017.55        69.38639
1017.93        69.52066
1018.31        70.08196
1018.69        69.81633
1019.06        68.38062
1019.44        66.82285
1019.82        65.47539
1020.20        64.25425
1020.58        63.08958
1020.95        61.70731
1021.33        60.77491
1021.71        61.75754
1022.09        65.10259
1022.46         70.0678
1022.84        75.04745
1023.22        78.19309
1023.60         79.0602
1023.97        78.23048
1024.35        75.74178
1024.73        71.96825
