SpectraSmart Spectrum 2.9.0.0
--------- Device Information -----------
Spectrum Name :  反射率_0
Saving Time :  2024/05/01 16:26:52
Spectro-Module Model Name : SE2030-DUVN
Spectro-Module Serial Number : OS361AC55029948
Wavelength Start : 200
Wavelength End : 1025
Wavelength Unit : Wavelength(nm)
Spectrum Unit : Reflectance(%)
-----------Spectrum Setting ------------
Integration Time : 20ms
Average : 10
Boxcar : 0
Background removal :  enabled
linearity correction :  enabled
SC :  disabled
Intensity correction :  disabled
DWT denoise :  enabled
savitzky-golay :  disabled
FFT :  disabled
Running average :  disabled
Kalman :  disabled
High pass :  disabled
---------------BEGIN--------------------
Wavelength(nm)             Reflectance(%)
200.29               0
200.75        208.9567
201.21        763.1666
201.67       -265.4793
202.13       -75.63804
202.58       -16.73061
203.04        17.20552
203.50        38.48132
203.96        50.40895
204.42        57.68124
204.88        65.75079
205.34        207.6342
205.80        27.63352
206.26        23.33532
206.72       -1.167073
207.18       -140.0388
207.64        266.3508
208.10        126.2711
208.55        94.66403
209.01        80.03328
209.47        72.69087
209.93        68.97036
210.39        65.59003
210.85        64.32914
211.31        70.37314
211.77        103.7685
212.23       -195.3981
212.69       -11.93827
213.14        12.87217
213.60        52.69476
214.06       -323.6647
214.52       -58.08514
214.98       -36.49499
215.44       -24.22312
215.90      -0.5406814
216.36        308.1361
216.81       -150.1538
217.27       -141.7845
217.73        69.16711
218.19        -41.4107
218.65       -56.86985
219.11       -71.74882
219.57       -106.1296
220.02       -191.3234
220.48       -41.09859
220.94        2.462918
221.40        9.109479
221.86        11.50566
222.32        14.77787
222.77        20.11663
223.23        28.02977
223.69        37.88234
224.15        42.16016
224.61        38.21887
225.06          31.773
225.52        27.33867
225.98        26.33886
226.44        28.32176
226.90        32.69504
227.36           39.27
227.81        44.68359
228.27        46.09618
228.73        45.16184
229.19        43.46344
229.65        41.86416
230.10        40.32431
230.56        38.50999
231.02        36.56752
231.48        35.58859
231.93        36.02458
232.39        37.47574
232.85        39.31184
233.31        40.99091
233.77        42.41516
234.22        43.75449
234.68        44.91571
235.14        45.91803
235.60        46.91157
236.05        48.06694
236.51        49.69097
236.97        52.32822
237.43        55.75229
237.88        59.23074
238.34        61.79816
238.80        63.65512
239.26        65.15863
239.71        66.78284
240.17        67.35532
240.63        63.94054
241.08        56.09786
241.54        47.18819
242.00        42.08942
242.46        43.85399
242.91        53.76197
243.37        74.60038
243.83         110.862
244.28        141.0617
244.74        137.1495
245.20        117.6466
245.66        99.65749
246.11        87.42799
246.57        77.92239
247.03        66.12765
247.48        48.58078
247.94        27.50128
248.40        12.07911
248.85        6.332205
249.31         11.9376
249.77        23.30286
250.22        34.83898
250.68        44.91372
251.14        52.04073
251.59        55.90566
252.05        57.67977
252.51        58.00748
252.96         58.3403
253.42        71.21881
253.88        97.29074
254.33        105.6652
254.79        103.4506
255.25        99.42903
255.70        94.86987
256.16        91.22469
256.62         87.4787
257.07        83.15391
257.53        79.51875
257.99        76.40221
258.44        74.09504
258.90        73.44773
259.35        73.70906
259.81        74.75171
260.27        75.69429
260.72        75.47636
261.18        74.42082
261.63        72.68173
262.09        71.07882
262.55        69.98361
263.00        69.23938
263.46        68.75335
263.91         68.1009
264.37        67.19811
264.83        65.95354
265.28        64.51143
265.74        63.01824
266.19        61.31415
266.65        59.56837
267.11        57.72219
267.56        56.05495
268.02        55.12035
268.47        54.91974
268.93        55.24804
269.38        55.62687
269.84        55.22473
270.30        53.88843
270.75        51.88795
271.21        49.67947
271.66        47.82099
272.12        46.53971
272.57        45.58216
273.03        44.89031
273.48        44.30375
273.94        43.77927
274.39        43.35007
274.85         42.9252
275.31         42.2668
275.76        41.35439
276.22        40.31472
276.67        39.29151
277.13        38.63581
277.58        38.30528
278.04        38.21331
278.49        38.13681
278.95        37.87669
279.40        37.32415
279.86        36.62774
280.31        35.80548
280.77        34.99612
281.22        34.19259
281.68        33.43851
282.13        32.71529
282.59        32.10214
283.04        31.57451
283.50        31.17979
283.95        30.88425
284.41        30.69151
284.86        30.57511
285.32        30.54205
285.77        30.58816
286.22        30.76279
286.68        31.05633
287.13        31.41448
287.59        31.75184
288.04        31.88821
288.50        31.81768
288.95        31.55242
289.41         31.2544
289.86        31.06444
290.32        31.05732
290.77        31.19306
291.22        31.39031
291.68        31.50694
292.13        31.52777
292.59        31.54925
293.04        31.70456
293.50        32.24521
293.95        33.19587
294.40        34.48338
294.86        35.93748
295.31        37.29581
295.77        38.47684
296.22         39.5319
296.68        40.57463
297.13        41.76753
297.58        43.17079
298.04         44.7447
298.49        46.38765
298.95         47.9819
299.40        49.46397
299.85        50.87687
300.31        52.33118
300.76        53.97215
301.21        55.84937
301.67        57.92558
302.12        60.02623
302.58        61.90541
303.03        63.45438
303.48        64.76925
303.94        66.07841
304.39        67.61621
304.84        69.49921
305.30        71.63998
305.75        73.85774
306.20        75.90354
306.66        77.70512
307.11        79.28054
307.57         80.7533
308.02        82.19436
308.47        83.67023
308.93        85.14663
309.38        86.53991
309.83        87.82098
310.29        88.99592
310.74        90.07774
311.19        91.09792
311.65        92.07548
312.10         92.9998
312.55        93.86211
313.00        94.71995
313.46        95.66811
313.91          96.697
314.36        97.77312
314.82        98.73338
315.27          99.331
315.72        99.50498
316.18        99.36963
316.63        99.08466
317.08        98.96353
317.53        99.09735
317.99        99.41802
318.44        99.82821
318.89        100.1361
319.35        100.2907
319.80        100.3725
320.25        100.4662
320.70        100.7075
321.16         101.106
321.61        101.6058
322.06        102.1309
322.51        102.5836
322.97        102.9022
323.42        103.1637
323.87        103.3229
324.32        103.3347
324.78        103.2089
325.23         102.998
325.68          102.82
326.13        102.8893
326.59        103.2292
327.04        103.8275
327.49        104.5271
327.94        105.0802
328.39        105.3974
328.85        105.4871
329.30        105.5076
329.75        105.5818
330.20        105.7674
330.66        106.0043
331.11        106.2767
331.56        106.4286
332.01        106.4465
332.46         106.386
332.92        106.3774
333.37        106.7352
333.82        107.4893
334.27        108.5728
334.72        109.7591
335.17        110.6497
335.63         111.088
336.08        111.2087
336.53         111.201
336.98        111.4518
337.43        112.0664
337.88        112.9374
338.34        113.8231
338.79        114.4069
339.24        114.5668
339.69        114.4297
340.14        114.2409
340.59         114.376
341.05        114.9184
341.50        115.7627
341.95        116.6874
342.40        117.3396
342.85        117.6291
343.30        117.6797
343.75        117.6767
344.20        117.9044
344.66        118.4275
345.11        119.1344
345.56        119.9113
346.01        120.5609
346.46        121.0183
346.91        121.3755
347.36        121.6509
347.81        121.8671
348.26        122.0576
348.72        122.2034
349.17          122.39
349.62        122.8335
350.07        123.5198
350.52         124.337
350.97        125.0369
351.42        125.2116
351.87        124.7887
352.32        123.9595
352.77        122.8876
353.22        121.8291
353.67        120.9079
354.13        120.0844
354.58        119.4721
355.03        119.3517
355.48        119.7251
355.93        120.5477
356.38        121.3943
356.83        121.5395
357.28        120.8348
357.73        119.4791
358.18        118.0319
358.63        117.3442
359.08        117.5611
359.53        118.4013
359.98        119.3232
360.43        119.4261
360.88        118.4858
361.33        116.8321
361.78        114.9543
362.23        113.5397
362.68        112.7678
363.13        112.4381
363.58        112.2732
364.03        111.8491
364.48        111.0423
364.93        109.9768
365.38        108.9036
365.83        108.1785
366.28        107.8562
366.73        107.8164
367.18        107.7026
367.63        106.9677
368.08        105.5447
368.53        103.6583
368.98        101.7965
369.43        100.6606
369.88        100.3776
370.33        100.7223
370.78         101.277
371.23        101.3067
371.68        100.5965
372.13        99.40002
372.58        98.03148
373.03        96.95402
373.48        96.28638
373.93        95.84163
374.38        95.52076
374.83        95.18847
375.28        94.77673
375.72        94.34361
376.17         93.8449
376.62        93.12955
377.07        92.20275
377.52        91.10928
377.97        90.03481
378.42        89.28269
378.87        88.91451
379.32        88.83853
379.77        88.87325
380.22        88.73175
380.67        88.33511
381.11        87.76513
381.56        87.12939
382.01        86.62948
382.46         86.3256
382.91        86.15118
383.36         86.0071
383.81        85.74808
384.26        85.33775
384.71        84.82685
385.15        84.29549
385.60        83.91198
386.05        83.69236
386.50        83.58472
386.95         83.4839
387.40        83.23853
387.85         82.8224
388.29        82.24361
388.74        81.69946
389.19        81.27711
389.64        80.99616
390.09        80.80334
390.54        80.62048
390.98        80.32001
391.43        79.93758
391.88        79.48141
392.33        79.02042
392.78         78.7319
393.23        78.60138
393.67         78.3506
394.12        78.05059
394.57         77.9555
395.02        77.96917
395.47        77.60541
395.91        76.98997
396.36        76.71532
396.81        76.82683
397.26        77.04595
397.71        77.19524
398.15        77.09512
398.60        76.79046
399.05        76.23724
399.50        75.65251
399.95         75.4648
400.39         75.6701
400.84        75.82632
401.29         75.7882
401.74        75.59161
402.18        75.20139
402.63         74.5215
403.08        73.76532
403.53        73.30118
403.97        73.17996
404.42        73.29472
404.87        73.51796
405.32        73.59821
405.76         73.4489
406.21        73.34621
406.66        73.28403
407.11        72.81916
407.55        72.19274
408.00        72.36217
408.45        73.17304
408.90        73.40368
409.34        72.93185
409.79        72.42516
410.24        72.03608
410.68         71.7486
411.13        71.62401
411.58        71.62459
412.03        71.71426
412.47        71.85891
412.92        71.99577
413.37        72.14075
413.81        72.23655
414.26        72.26133
414.71        72.19358
415.15        72.05077
415.60        71.86273
416.05        71.75259
416.49        71.75231
416.94         71.8196
417.39        71.91224
417.83        71.94418
418.28        71.90318
418.73        71.83272
419.17        71.73872
419.62         71.6548
420.07        71.58405
420.51        71.42648
420.96        71.29377
421.41         71.3561
421.85        71.51552
422.30        71.70132
422.74        71.79132
423.19         71.4866
423.64        70.97144
424.08        71.15206
424.53        71.94112
424.98        72.33926
425.42        72.23534
425.87        72.40813
426.31        72.82178
426.76        72.51254
427.21        71.76617
427.65         72.1505
428.10        73.31303
428.54        73.45065
428.99        72.66448
429.44         71.7583
429.88         71.1075
430.33         71.8434
430.77        73.34712
431.22        73.23556
431.66        71.70206
432.11        71.06759
432.56        71.53108
433.00        72.10851
433.45        72.55756
433.89        72.91869
434.34        72.02364
434.78        73.52154
435.23        73.10575
435.67        72.96815
436.12        72.26871
436.57        72.73004
437.01        74.08926
437.46        74.97785
437.90        74.33679
438.35        74.01833
438.79        73.96406
439.24        73.60434
439.68        73.11763
440.13        73.14577
440.57        73.68127
441.02        74.02133
441.46        74.04222
441.91        74.46928
442.35        75.12097
442.80        74.55634
443.24        74.51109
443.69        74.36633
444.13        74.58949
444.58        74.63246
445.02        74.47594
445.47        74.43027
445.91        74.53825
446.36        74.67708
446.80        74.81059
447.24        75.19186
447.69         75.6945
448.13        75.39287
448.58         75.0241
449.02        74.90198
449.47         75.2316
449.91        75.35984
450.36        75.30293
450.80        75.42405
451.25        75.66025
451.69        75.68613
452.13        75.48164
452.58        75.15612
453.02        74.80425
453.47        74.57182
453.91        74.47718
454.36        74.56264
454.80        74.75425
455.24        74.53741
455.69        74.50251
456.13        74.26978
456.58        74.12865
457.02        73.90667
457.46        73.75549
457.91        74.13493
458.35        74.81548
458.79        74.92926
459.24        74.43204
459.68        73.89709
460.13        73.63535
460.57        72.63533
461.01        73.06286
461.46        72.93169
461.90        73.37218
462.34        73.24447
462.79        72.85928
463.23        72.87601
463.68        73.20009
464.12        73.31105
464.56        73.20396
465.01        72.62514
465.45        72.79479
465.89        72.74953
466.34        72.71466
466.78        72.92267
467.22        72.09792
467.67        72.04855
468.11        72.11782
468.55        72.25687
468.99        72.31403
469.44        72.37225
469.88        72.43262
470.32        72.45596
470.77        72.44458
471.21        72.41776
471.65        72.36567
472.10        72.29822
472.54        72.21103
472.98        72.11202
473.42        71.99876
473.87        71.95208
474.31        71.92249
474.75         71.7342
475.20        71.47721
475.64        71.53378
476.08        71.80479
476.52        71.84041
476.97        71.60845
477.41        71.53349
477.85        70.66742
478.29        71.46861
478.74        71.63028
479.18        71.70032
479.62         71.1463
480.06        71.00777
480.50        71.33469
480.95        70.51284
481.39        71.05643
481.83         70.2605
482.27         70.7726
482.72        70.77296
483.16        70.79514
483.60        71.00652
484.04        71.31807
484.48        71.27475
484.93        71.19625
485.37        72.07298
485.81        71.31143
486.25          72.911
486.69        72.45962
487.14        69.74226
487.58        68.77906
488.02        71.04777
488.46        70.48549
488.90        69.90623
489.34        71.47994
489.79        70.92959
490.23        70.95591
490.67        70.60932
491.11        70.51572
491.55        70.66493
491.99        70.93507
492.43        70.98097
492.88        70.75309
493.32        70.54633
493.76        70.41116
494.20        70.33923
494.64        70.34888
495.08        70.34686
495.52        70.36031
495.96        70.57494
496.41        70.89854
496.85        71.02083
497.29        70.87189
497.73        70.57615
498.17        70.37535
498.61         69.9642
499.05        69.57842
499.49        69.86991
499.93        70.64055
500.37        70.80375
500.82         70.3802
501.26        70.33826
501.70        70.69192
502.14        70.84484
502.58        70.74589
503.02        70.61664
503.46        70.46786
503.90        70.23714
504.34        70.01983
504.78         69.9678
505.22        70.08976
505.66        70.39449
506.10        70.76838
506.54        70.84954
506.98        70.55397
507.42         70.6066
507.86        70.00864
508.30         69.8118
508.74        69.74007
509.18        69.76897
509.62        69.86365
510.06        69.99107
510.50        70.13387
510.94        70.29103
511.38        70.43043
511.82        70.49559
512.26        70.47101
512.70        70.35915
513.14        70.19756
513.58        70.05455
514.02        69.95332
514.46        69.88873
514.90        69.83273
515.34        69.73571
515.78        69.59484
516.22        69.43455
516.66         69.3116
517.10          69.308
517.54        69.43469
517.98        69.65974
518.42        69.91001
518.86        70.06628
519.30        70.09678
519.74        70.03419
520.18        69.93386
520.62        69.88954
521.06        69.92094
521.50        69.98487
521.93        70.05465
522.37        70.07786
522.81        70.04459
523.25        69.98983
523.69        69.89448
524.13        69.72134
524.57        69.48675
525.01        69.21074
525.45        68.99139
525.89        68.98257
526.32          69.202
526.76        69.59061
527.20        70.02235
527.64        70.29511
528.08        70.34959
528.52        70.24267
528.96        70.04162
529.40         69.8643
529.83         69.7421
530.27        69.64482
530.71        69.57542
531.15        69.56923
531.59         69.6255
532.03        69.73761
532.46        69.85941
532.90        69.93536
533.34         69.9493
533.78        69.85817
534.22        69.70767
534.66        69.69467
535.09        69.76724
535.53        69.65084
535.97        69.37005
536.41         69.2149
536.85        69.20231
537.28        69.17911
537.72        69.13483
538.16        69.11452
538.60        69.11209
539.04        69.11362
539.47        69.11578
539.91        69.15204
540.35        69.20422
540.79        69.28869
541.22        69.38344
541.66        69.35645
542.10        69.37679
542.54         69.3143
542.97        69.23946
543.41        69.21535
543.85        69.24319
544.29        69.30915
544.72        69.37824
545.16        69.43431
545.60        69.45466
546.04        69.43916
546.47        69.39975
546.91        69.39632
547.35        69.44874
547.79         69.4725
548.22        69.38734
548.66        69.49433
549.10        69.34967
549.53        68.99271
549.97        68.96231
550.41        68.93798
550.84        69.11407
551.28        69.42943
551.72         69.7858
552.15        69.99709
552.59        70.02765
553.03        69.90826
553.46         69.6907
553.90        69.60759
554.34        69.69138
554.77        69.70363
555.21        69.56191
555.65        69.96979
556.08        69.57539
556.52        69.41657
556.96        69.14715
557.39        68.98031
557.83        68.95733
558.27        68.89936
558.70        68.81346
559.14        69.07733
559.57        69.06033
560.01        69.33344
560.45        69.56735
560.88        69.48417
561.32        69.19789
561.75        68.81375
562.19        68.53303
562.63        68.84677
563.06        69.55408
563.50        69.48569
563.93        68.76467
564.37        68.72976
564.80        69.30566
565.24        69.53595
565.68        69.36898
566.11        69.28973
566.55        69.34956
566.98        69.32638
567.42        69.28143
567.85        69.37653
568.29         69.6111
568.72        69.69258
569.16        69.70624
569.60        69.91499
570.03        69.59264
570.47        69.72427
570.90        69.89249
571.34         69.1491
571.77        69.50463
572.21        69.51803
572.64         69.8539
573.08        69.43597
573.51         69.6212
573.95        70.30785
574.38        69.62167
574.82        69.93301
575.25        70.28133
575.69        70.56126
576.12        70.01716
576.56        69.71957
576.99        70.45792
577.42        70.20843
577.86        70.13875
578.29        70.27789
578.73          71.026
579.16        70.12058
579.60        69.22792
580.03        69.38553
580.47        69.83842
580.90        69.29151
581.33        70.15814
581.77        70.44865
582.20        70.97865
582.64        70.37259
583.07         70.2779
583.51        69.69091
583.94        69.42977
584.37        69.73862
584.81        70.55654
585.24        70.73178
585.68        70.17047
586.11        70.34919
586.54        70.27409
586.98        69.28065
587.41         69.1749
587.85         70.1267
588.28        70.20423
588.71        68.89509
589.15        69.95177
589.58        69.54298
590.01        69.33643
590.45        69.30258
590.88        69.55056
591.31        69.74608
591.75        69.75919
592.18        69.53284
592.61        68.76348
593.05        69.40009
593.48        69.35178
593.91        69.56561
594.35        69.44997
594.78        69.24856
595.21        68.81242
595.65        69.85302
596.08        69.78593
596.51        69.26843
596.94         69.0165
597.38        68.89159
597.81        69.37566
598.24        68.80511
598.68         69.3821
599.11        68.62139
599.54        70.07903
599.97        69.83629
600.41        69.11543
600.84        69.80293
601.27        69.44353
601.70        70.07005
602.14        70.27492
602.57         69.9407
603.00        69.34588
603.43        69.10964
603.87        69.72893
604.30        70.13495
604.73        69.71572
605.16        69.22569
605.60        69.19668
606.03        69.43855
606.46        69.81454
606.89        70.01283
607.32        69.04547
607.76        68.81865
608.19        69.09535
608.62        69.70109
609.05        69.60712
609.48        69.74422
609.92        69.65717
610.35        68.83218
610.78        70.29718
611.21        70.33073
611.64        69.87727
612.07        69.93915
612.50        70.28911
612.94        70.11549
613.37         69.7329
613.80        70.01931
614.23        69.69284
614.66        70.06819
615.09        69.66014
615.52        69.65757
615.96        69.69893
616.39        69.93703
616.82        69.98433
617.25        69.93232
617.68        69.77559
618.11        69.72967
618.54        69.78986
618.97        69.65405
619.40        69.41171
619.84        69.26962
620.27         69.2254
620.70        69.55974
621.13         70.2671
621.56        69.41952
621.99        69.03301
622.42        69.57367
622.85        69.59839
623.28        69.18974
623.71         69.1497
624.14         70.1223
624.57         69.9736
625.00        70.24144
625.43        70.16724
625.86        70.03605
626.29        69.89844
626.72        69.42152
627.15        69.46947
627.58        69.28276
628.01        69.14096
628.44        69.24686
628.87        69.51848
629.30        69.55019
629.73        69.35905
630.16        69.32512
630.59        69.45213
631.02        69.51125
631.45         69.4817
631.88        69.44344
632.31        69.39818
632.74        69.32844
633.17        69.25569
633.60        69.21362
634.03        69.21001
634.46        69.23883
634.89         69.2853
635.32        69.32051
635.75        69.33212
636.18        69.32523
636.61        69.29888
637.04        69.25155
637.47        69.18515
637.89         69.1142
638.32        69.02683
638.75        68.93041
639.18        68.82963
639.61        68.77454
640.04        68.70061
640.47        68.68581
640.90        68.70979
641.33        68.75642
641.76        68.79235
642.18        68.86929
642.61        68.98294
643.04        68.96461
643.47        68.75811
643.90        69.25104
644.33        68.95185
644.76        68.95361
645.18        68.86947
645.61         69.0501
646.04        69.39257
646.47        69.34506
646.90        68.97411
647.33        68.87038
647.75        69.06216
648.18        69.13809
648.61        69.11285
649.04         69.2322
649.47        69.40769
649.89        69.50903
650.32        69.46729
650.75        69.01142
651.18        68.39119
651.61        68.53628
652.03        69.34972
652.46        69.63911
652.89        69.30022
653.32        69.14615
653.74        69.41282
654.17        69.08099
654.60        69.53049
655.03        70.22175
655.46        68.40042
655.88        69.16528
656.31        77.55099
656.74        75.54678
657.16        69.01823
657.59        67.40456
658.02        69.33257
658.45         69.2094
658.87        69.33499
659.30        68.45078
659.73        68.65298
660.15        70.04685
660.58        69.32713
661.01        69.19893
661.44        68.73875
661.86        68.69913
662.29        69.05431
662.72        69.34781
663.14        69.52709
663.57        69.61095
664.00        69.60839
664.42        69.58291
664.85        69.54258
665.27        69.36028
665.70        69.10924
666.13        68.99757
666.55        69.06673
666.98        69.24039
667.41        69.46111
667.83        69.64139
668.26        69.72822
668.69        69.74444
669.11        69.73087
669.54        69.76309
669.96        69.84398
670.39        69.92447
670.82        69.97779
671.24        69.91056
671.67        69.76907
672.09        69.75633
672.52        69.86575
672.94        69.85521
673.37        69.72291
673.80        69.60286
674.22        69.52967
674.65        69.46204
675.07        69.42599
675.50        69.41965
675.92        69.44279
676.35        69.48312
676.77         69.5363
677.20        69.59141
677.62        69.64602
678.05        69.68487
678.47         69.7026
678.90        69.70975
679.32        69.69538
679.75        69.66743
680.17        69.62485
680.60        69.57161
681.02        69.53405
681.45        69.53185
681.87        69.58084
682.30        69.68186
682.72        69.81472
683.15        69.85764
683.57        69.82581
684.00         69.8454
684.42        69.91354
684.85        69.93233
685.27        69.88341
685.70        69.85912
686.12        69.84242
686.54        69.72652
686.97        69.53777
687.39        69.49323
687.82        69.53788
688.24        69.37907
688.66        69.12254
689.09        68.96438
689.51        69.43954
689.94        69.61056
690.36        69.63321
690.78        69.58675
691.21        69.82057
691.63        70.03197
692.06        70.31399
692.48        70.74612
692.90        71.19601
693.33        71.35312
693.75         71.1786
694.17        70.75675
694.60        70.28403
695.02        69.99328
695.44         70.1049
695.87        70.19044
696.29        70.24728
696.71        70.14648
697.14        69.97401
697.56        70.17817
697.98        70.66519
698.41        70.81754
698.83         70.6348
699.25        70.59059
699.68        70.69453
700.10        70.74173
700.52        70.72882
700.94        70.71877
701.37        70.73245
701.79        70.88596
702.21        71.10548
702.64        71.18064
703.06        71.09827
703.48        70.96344
703.90        70.77734
704.33         70.7445
704.75        70.38385
705.17        70.26936
705.59        70.26997
706.01        70.34985
706.44        70.48891
706.86        70.67519
707.28        70.86786
707.70        71.09705
708.12         71.3054
708.55        71.30329
708.97        71.11978
709.39        71.00205
709.81        70.97537
710.23        70.89943
710.66        70.78965
711.08        70.77078
711.50        70.83044
711.92        70.90014
712.34        70.97025
712.76        71.06279
713.19         71.1442
713.61        71.20748
714.03        71.22527
714.45        71.19569
714.87        71.15816
715.29        71.17776
715.71        71.26627
716.13        71.41034
716.56        71.53315
716.98        71.59572
717.40        71.54912
717.82        71.41366
718.24        71.26906
718.66        71.24195
719.08        71.35501
719.50        71.56898
719.92        71.78211
720.34        71.82953
720.76        71.67685
721.19        71.38116
721.61        71.05713
722.03        70.87624
722.45        70.89273
722.87        71.06784
723.29        71.31814
723.71        71.50429
724.13        71.57796
724.55        71.56064
724.97        71.53469
725.39        71.63422
725.81        71.87566
726.23        72.20795
726.65        72.48289
727.07        72.46947
727.49        72.13572
727.91        71.57497
728.33        70.98273
728.75        70.66437
729.17        70.69372
729.59         70.9753
730.01        71.37254
730.43        71.64143
730.85        71.70573
731.27        71.66113
731.69        71.54305
732.10        71.40396
732.52        71.27204
732.94        71.10017
733.36        70.98457
733.78        71.03823
734.20        71.25918
734.62        71.80053
735.04        72.44007
735.46        72.35995
735.88        71.73096
736.30        71.68925
736.72        72.19794
737.13        72.40892
737.55        72.22052
737.97        71.81998
738.39        71.41116
738.81        71.63535
739.23        72.38048
739.65        72.61641
740.06        72.29091
740.48        72.27498
740.90        72.54476
741.32        72.62817
741.74         72.4822
742.16        72.31741
742.57        72.15793
742.99        71.91643
743.41        71.70029
743.83        71.71757
744.25        71.95392
744.67        72.24145
745.08        72.48294
745.50         72.5527
745.92        72.42347
746.34        72.09026
746.75        71.66445
747.17        71.38744
747.59          71.299
748.01        71.36108
748.42        71.52331
748.84        71.62502
749.26        71.66624
749.68        71.75721
750.09          71.895
750.51        72.06674
750.93        72.23015
751.35        72.27637
751.76        72.24097
752.18        72.28435
752.60        72.42439
753.01        72.59069
753.43        72.71922
753.85        72.79041
754.27        72.79897
754.68        72.75815
755.10        72.72511
755.52        72.79032
755.93        72.94746
756.35        73.13108
756.77        73.28535
757.18        73.33521
757.60        73.28984
758.02        73.25153
758.43         73.0699
758.85        73.00239
759.26        71.97498
759.68        71.81388
760.10        72.22646
760.51        72.89067
760.93        73.47678
761.34        73.59133
761.76         73.2618
762.18        72.69663
762.59        72.20466
763.01        72.37489
763.42        73.12476
763.84        73.39091
764.26        73.11398
764.67        72.83474
765.09        72.72416
765.50        72.81396
765.92        73.07139
766.33        73.09233
766.75         72.8048
767.16        72.80077
767.58        73.07158
768.00        73.04099
768.41        72.88376
768.83        73.59109
769.24        74.87415
769.66        75.28529
770.07        74.80378
770.49        74.37913
770.90        74.18516
771.32        74.12389
771.73        74.16846
772.15         74.0621
772.56        73.82183
772.97        73.72178
773.39        73.79112
773.80        73.94874
774.22           74.15
774.63        74.47835
775.05        74.80038
775.46        74.96337
775.88        74.90067
776.29        74.67844
776.70        74.41225
777.12        74.32388
777.53        74.48004
777.95         74.7884
778.36        75.13017
778.77        75.25805
779.19         75.1105
779.60        74.84925
780.02        74.55962
780.43        74.19491
780.84        73.90874
781.26        74.04668
781.67        74.48467
782.09        74.72019
782.50        74.62588
782.91        74.20543
783.33        73.66698
783.74        73.54888
784.15        73.93462
784.57        74.50053
784.98        75.13407
785.39        75.71391
785.81        76.15395
786.22           76.25
786.63        76.44115
787.04        76.37743
787.46        76.24135
787.87        75.96887
788.28        75.71236
788.70        75.63743
789.11        75.73538
789.52        76.11833
789.93        76.58691
790.35        76.47885
790.76        75.90441
791.17        75.66888
791.58        75.81073
792.00        75.79406
792.41        75.65331
792.82        75.59587
793.23        75.63148
793.65        75.97117
794.06        76.42578
794.47        76.13728
794.88        75.35178
795.29         75.1404
795.71        75.48849
796.12        75.94212
796.53        76.30614
796.94        76.48877
797.35         76.3946
797.76        76.06997
798.18        75.70028
798.59        75.53323
799.00        75.64198
799.41        75.93835
799.82        76.33182
800.23        76.66618
800.64         76.8741
801.06        76.98624
801.47        77.01758
801.88        76.88223
802.29        76.59586
802.70        76.18053
803.11        75.77423
803.52          75.604
803.93        75.72539
804.34        76.07901
804.75        76.54178
805.17        76.91045
805.58        77.15182
805.99        77.16207
806.40        76.99602
806.81        77.05421
807.22        77.23569
807.63        76.82979
808.04         76.0044
808.45        75.66922
808.86        75.91355
809.27        76.27405
809.68         76.6118
810.09        76.87337
810.50        76.98423
810.91        76.96684
811.32         76.8485
811.73        76.68019
812.14         76.5021
812.55        76.30219
812.96        76.16675
813.37         76.2429
813.78        76.54838
814.19        77.03356
814.60        77.56298
815.01        77.92727
815.42        78.06958
815.83          78.032
816.24        77.87391
816.65        77.72267
817.05        77.63722
817.46        77.56247
817.87        77.50324
818.28        77.41613
818.69        77.29188
819.10        77.15538
819.51        77.04904
819.92        77.03715
820.33        77.12874
820.74         77.2881
821.14         77.4436
821.55        77.52283
821.96        77.49625
822.37         77.4068
822.78        77.28983
823.19        77.20921
823.60        77.20103
824.00        77.26635
824.41        77.39379
824.82        77.68095
825.23        78.11051
825.64        78.63122
826.04        79.13966
826.45         79.3744
826.86        79.30298
827.27         79.0034
827.68        78.53603
828.08         78.0331
828.49        77.53324
828.90        77.02573
829.31        76.64302
829.72        76.57996
830.12        76.89704
830.53        77.52518
830.94        78.21886
831.35        78.47082
831.75         78.1748
832.16        77.42059
832.57        76.62793
832.97         76.4387
833.38        76.96255
833.79        77.98902
834.20        79.12497
834.60        79.69772
835.01        79.49017
835.42        78.76414
835.82        77.81134
836.23        77.07052
836.64        76.69877
837.04        76.57586
837.45        76.64586
837.86        76.89185
838.26        77.26691
838.67        77.73621
839.08        78.18927
839.48        78.39797
839.89        78.29628
840.29        77.95129
840.70        77.45737
841.11        76.94433
841.51        76.50026
841.92        76.08142
842.33        75.81025
842.73        75.88537
843.14         76.2742
843.54        76.97578
843.95        77.74005
844.35        78.21153
844.76        78.25105
845.17        77.95064
845.57        77.50905
845.98         77.2446
846.38        77.27083
846.79        77.47713
847.19        77.75989
847.60        77.85116
848.00         77.7077
848.41        77.40323
848.81        77.08955
849.22        76.97087
849.62        77.10925
850.03         77.3978
850.43        77.72664
850.84        77.75882
851.24        77.49216
851.65        77.00237
852.05        76.50852
852.46        76.31864
852.86        76.48344
853.27        76.87759
853.67        77.34772
854.07        77.88837
854.48        78.39379
854.88        78.99766
855.29        79.36584
855.69        79.17811
856.10        78.27467
856.50        76.88637
856.90        75.50175
857.31        74.83199
857.71        75.01173
858.12        75.80094
858.52          76.921
858.92        77.59135
859.33         77.5267
859.73        76.99847
860.13        76.18848
860.54        75.42017
860.94        74.83381
861.34        74.31698
861.75        73.94318
862.15        73.91223
862.55        74.21944
862.96        74.81535
863.36        75.52219
863.76        75.93426
864.17        75.94667
864.57        75.67529
864.97        75.27227
865.38        75.01652
865.78        75.02221
866.18        75.16624
866.58        75.38171
866.99        75.55453
867.39        75.66636
867.79        75.76171
868.19        75.76853
868.60        75.53463
869.00          75.048
869.40        74.33946
869.80        73.65104
870.21        73.43654
870.61        73.85174
871.01         74.6925
871.41        75.56528
871.81         75.8695
872.22        75.47499
872.62        74.58386
873.02        73.51037
873.42        72.77637
873.82        72.56525
874.22        72.73913
874.63        73.15152
875.03        73.56527
875.43        73.88916
875.83        74.18616
876.23        74.50753
876.63        74.92301
877.03         75.4287
877.44        75.94328
877.84        76.36777
878.24        76.50806
878.64        76.32693
879.04        75.89307
879.44        75.37579
879.84        75.02412
880.24        74.90134
880.64         74.9576
881.04        75.07568
881.44        75.04815
881.84        74.83366
882.24        74.51041
882.65        74.17676
883.05        74.12144
883.45        74.35762
883.85        74.76891
884.25        75.25134
884.65        75.67313
885.05        75.99136
885.45        76.25489
885.85        76.40794
886.25        76.35909
886.65        76.10632
887.05        75.66399
887.45        75.21025
887.85        75.02603
888.25        75.17148
888.65        75.59209
889.04        76.06219
889.44         76.1813
889.84        75.87333
890.24         75.2411
890.64        74.57403
891.04        74.28915
891.44        74.47271
891.84        75.03634
892.24        75.64239
892.64        75.72224
893.04        75.16728
893.44        74.15792
893.83        73.19482
894.23         73.0484
894.63        73.82539
895.03           75.29
895.43        76.86102
895.83         77.4813
896.23        76.89311
896.63        75.51543
897.02        73.91539
897.42        73.00491
897.82        72.93021
898.22          73.458
898.62        74.35017
899.01        75.23089
899.41         75.8709
899.81        76.39593
900.21        76.89067
900.61        77.48103
901.00        78.17028
901.40        78.83089
901.80         79.2795
902.20        79.28014
902.59        78.82069
902.99        78.01167
903.39        77.12012
903.79        76.56373
904.18          76.436
904.58        76.63678
904.98        76.96467
905.38        77.10857
905.77        76.98174
906.17        76.72038
906.57        76.36563
906.96        76.00076
907.36         75.6618
907.76        75.31809
908.15        75.10759
908.55         75.2123
908.95        75.66136
909.34        76.41119
909.74        77.17622
910.14        77.56448
910.53        77.46267
910.93        76.96811
911.33        76.32101
911.72        75.91029
912.12        75.86112
912.52        76.06634
912.91        76.31799
913.31        76.25868
913.70        75.83539
914.10        75.20544
914.49        74.63001
914.89          74.483
915.29        74.84274
915.68        75.54728
916.08        76.40226
916.47          77.106
916.87        77.52438
917.26        77.74691
917.66        77.76267
918.05        77.55205
918.45        77.14845
918.84        76.59077
919.24        76.04137
919.64        75.88815
920.03        76.22827
920.42        76.92248
920.82        77.73206
921.21        78.30743
921.61        78.50954
922.00        78.43403
922.40        78.12031
922.79         77.7481
923.19        77.39201
923.58        77.03158
923.98        76.65611
924.37        76.17595
924.77        75.62919
925.16        75.05477
925.55        74.61993
925.95        74.55191
926.34        74.92085
926.74         75.6018
927.13         76.4593
927.52        77.17905
927.92        77.63991
928.31        77.91319
928.70        78.03374
929.10        78.10493
929.49        78.18735
929.89        78.22953
930.28        78.22343
930.67        78.12073
931.07        77.90494
931.46        77.59581
931.85        77.29565
932.24        77.16084
932.64        77.22368
933.03        77.50168
933.42        77.74991
933.82        77.60326
934.21        77.01676
934.60        76.08502
934.99        75.26064
935.39        75.20522
935.78        76.07007
936.17        77.69421
936.56        79.43732
936.96        80.11536
937.35        79.45119
937.74        77.77252
938.13        75.89734
938.53        74.91746
938.92        75.01112
939.31          75.922
939.70        77.10313
940.09        77.55781
940.49         77.0238
940.88        75.87482
941.27        74.69373
941.66        74.33839
942.05        75.00497
942.44         76.4094
942.84        78.07767
943.23        79.24651
943.62        79.55282
944.01        79.23869
944.40        78.60515
944.79        78.13484
945.18        77.99886
945.57        78.03688
945.97        78.15826
946.36        78.33548
946.75        78.50224
947.14        78.71181
947.53        78.93671
947.92          79.086
948.31        79.12742
948.70        79.06825
949.09        78.93665
949.48        78.78394
949.87        78.65209
950.26         78.5723
950.65        78.56262
951.04        78.65589
951.43        78.84731
951.82        79.06538
952.21        79.36793
952.60        79.86529
952.99        80.51089
953.38        81.23512
953.77        81.71396
954.16        81.38898
954.55        80.21359
954.94        78.49293
955.33        76.66755
955.72        75.40226
956.11          74.883
956.50        74.87177
956.89        75.34789
957.28        76.25677
957.66        77.52997
958.05        79.10391
958.44        80.45428
958.83        80.56948
959.22        79.29899
959.61        77.00548
960.00        74.63052
960.39        73.54504
960.78        74.00334
961.16         75.6263
961.55        77.71419
961.94        79.17484
962.33        79.59661
962.72        79.27407
963.11        78.42656
963.49        77.50996
963.88        76.73693
964.27        76.04337
964.66        75.45408
965.04        75.01393
965.43        74.70367
965.82        74.51888
966.21        74.54761
966.60        74.87901
966.98         75.5035
967.37        76.36315
967.76        77.09808
968.15        77.11683
968.53        76.34124
968.92        74.93044
969.31        73.48952
969.69        72.98508
970.08        73.57629
970.47        74.99288
970.86        76.63245
971.24        77.38216
971.63        76.82884
972.02        75.40034
972.40        73.56435
972.79        72.06494
973.17        71.17172
973.56        70.66749
973.95        70.49924
974.33        70.60894
974.72        70.87308
975.11        71.31369
975.49        71.91324
975.88        72.52461
976.26        73.12333
976.65         73.6339
977.04        73.84749
977.42        73.43661
977.81        72.40632
978.19        70.86964
978.58        69.63763
978.96        69.69604
979.35        71.20606
979.74        73.98396
980.12        77.39053
980.51        79.47211
980.89        79.77243
981.28        78.62729
981.66        76.92017
982.05        76.22964
982.43        76.93131
982.82        78.46464
983.20        80.45316
983.59        82.06507
983.97        83.06237
984.35        83.67972
984.74        83.63721
985.12        82.59729
985.51          80.616
985.89        77.81084
986.28         75.0551
986.66        73.60346
987.04        73.85725
987.43        75.46712
987.81        77.67986
988.20        78.93794
988.58        78.81188
988.96        77.58206
989.35        75.97359
989.73        75.15066
990.12        75.38036
990.50        76.36682
990.88        77.36698
991.27        77.22475
991.65        75.80721
992.03         73.5863
992.42        71.49409
992.80        70.67156
993.18        71.49691
993.56        73.53924
993.95        76.07199
994.33        78.15727
994.71        79.18024
995.10        79.38355
995.48        78.92004
995.86        78.06876
996.24        77.03997
996.63        75.77311
997.01        74.42228
997.39        73.21225
997.77        72.21336
998.15        71.47977
998.54        71.02104
998.92        70.81773
999.30        70.86896
999.68        71.19251
1000.06        71.76046
1000.45        72.46462
1000.83        73.37141
1001.21        74.37756
1001.59        75.36324
1001.97        76.18693
1002.35         76.7538
1002.73        76.98376
1003.12        76.98849
1003.50        76.93774
1003.88         76.9043
1004.26        76.92381
1004.64        76.72476
1005.02        75.85574
1005.40        74.30548
1005.78        72.22771
1006.16         70.2392
1006.54        69.44628
1006.92        70.08836
1007.30        71.76479
1007.69        73.63354
1008.07        74.52362
1008.45        74.01589
1008.83        72.59418
1009.21        70.63927
1009.59        68.79525
1009.97        67.42114
1010.35        66.33019
1010.73        66.00151
1011.11        67.25981
1011.49        70.27602
1011.86        75.15561
1012.24        80.66645
1012.62        84.82159
1013.00        86.79241
1013.38        86.65498
1013.76        85.54204
1014.14        85.85932
1014.52        88.26719
1014.90        92.02512
1015.28        95.41515
1015.66         95.4352
1016.04        91.78931
1016.41        86.23494
1016.79        80.73753
1017.17        76.63258
1017.55        73.76984
1017.93        71.34311
1018.31        69.17743
1018.69        67.60566
1019.06        67.01122
1019.44        67.52859
1019.82          68.224
1020.20        68.06273
1020.58        66.98987
1020.95        65.02702
1021.33        62.92614
1021.71        62.61588
1022.09        65.01281
1022.46        69.35097
1022.84        74.24867
1023.22        78.12157
1023.60        80.49801
1023.97        81.88317
1024.35        81.90005
1024.73        80.07259
