SpectraSmart Spectrum 2.9.0.0
--------- Device Information -----------
Spectrum Name :  反射率_0
Saving Time :  2024/05/01 16:37:36
Spectro-Module Model Name : SE2030-DUVN
Spectro-Module Serial Number : OS361AC55029948
Wavelength Start : 200
Wavelength End : 1025
Wavelength Unit : Wavelength(nm)
Spectrum Unit : Reflectance(%)
-----------Spectrum Setting ------------
Integration Time : 20ms
Average : 10
Boxcar : 0
Background removal :  enabled
linearity correction :  enabled
SC :  disabled
Intensity correction :  disabled
DWT denoise :  enabled
savitzky-golay :  disabled
FFT :  disabled
Running average :  disabled
Kalman :  disabled
High pass :  disabled
---------------BEGIN--------------------
Wavelength(nm)             Reflectance(%)
200.29               0
200.75        77.68729
201.21        533.7271
201.67       -264.1255
202.13       -91.92388
202.58       -25.52177
203.04        18.15939
203.50        47.02855
203.96        61.84371
204.42        66.88659
204.88        62.04861
205.34       -141.1566
205.80         93.8923
206.26        65.23506
206.72         24.5995
207.18       -153.7014
207.64        320.9224
208.10        139.1572
208.55         89.3105
209.01         63.7695
209.47        53.77477
209.93        53.45535
210.39        56.57069
210.85        62.25711
211.31        71.98849
211.77        100.7345
212.23       -134.9288
212.69        12.85489
213.14        37.45246
213.60        85.82215
214.06       -393.6666
214.52        -56.3176
214.98        -28.0771
215.44       -10.09104
215.90        27.10227
216.36        555.0823
216.81       -265.2148
217.27       -341.9794
217.73        629.3508
218.19        98.90403
218.65        42.15179
219.11        12.13162
219.57       -42.73111
220.02       -254.6931
220.48       -141.6612
220.94       -30.88605
221.40        0.713781
221.86        13.61197
222.32        20.86163
222.77         27.3083
223.23        35.12289
223.69        44.66799
224.15        50.57532
224.61        49.56066
225.06        45.09152
225.52        41.48946
225.98        40.21654
226.44        40.96895
226.90         43.3596
227.36        46.77178
227.81         48.3528
228.27        47.03091
228.73        44.66648
229.19        42.88507
229.65        42.58666
230.10        43.60425
230.56        45.74791
231.02        48.39513
231.48        49.70741
231.93        48.87378
232.39        47.12766
232.85        45.38838
233.31        44.47739
233.77         44.4265
234.22        44.88149
234.68        45.73323
235.14        47.07249
235.60        49.05665
236.05        52.17277
236.51        56.63301
236.97        61.55572
237.43        65.28616
237.88        66.84049
238.34         66.4836
238.80        66.56026
239.26        68.03968
239.71        71.46317
240.17        75.84971
240.63        76.32948
241.08        69.79646
241.54        59.89664
242.00        53.54556
242.46        56.05194
242.91        69.62959
243.37        97.99473
243.83        146.4038
244.28        184.4469
244.74        176.0548
245.20        147.6405
245.66        123.0104
246.11         108.123
246.57        98.93374
247.03         89.8699
247.48         76.5357
247.94        54.94848
248.40        30.26741
248.85        10.67942
249.31        5.817129
249.77        16.86102
250.22        34.74058
250.68        52.80384
251.14        66.65487
251.59        74.95138
252.05        79.67184
252.51        82.66944
252.96         85.9777
253.42        98.05714
253.88        114.2061
254.33        113.8189
254.79        107.9292
255.25        101.6767
255.70        95.45593
256.16        90.88686
256.62        87.19389
257.07        84.02706
257.53        82.11924
257.99        80.79964
258.44          79.921
258.90        80.08497
259.35        80.59879
259.81        81.49483
260.27         82.1601
260.72         81.8948
261.18        81.00758
261.63        79.45135
262.09        77.79068
262.55        76.05046
263.00        74.19253
263.46        72.45647
263.91        70.68814
264.37        69.15141
264.83        67.78516
265.28        66.54505
265.74        65.52708
266.19        64.51718
266.65        63.60184
267.11        62.69218
267.56        61.86845
268.02        61.37952
268.47        61.17257
268.93        61.13332
269.38          60.971
269.84        60.18826
270.30        58.73254
270.75        56.77493
271.21        54.71072
271.66        52.98564
272.12         51.7863
272.57        50.91362
273.03          50.252
273.48        49.53585
273.94        48.72789
274.39        47.87454
274.85        47.03788
275.31        46.19512
275.76         45.3364
276.22        44.51573
276.67        43.68805
277.13        42.95292
277.58        42.23904
278.04        41.57173
278.49        40.90751
278.95         40.3275
279.40        39.77365
279.86        39.28616
280.31        38.73946
280.77        38.08712
281.22        37.27068
281.68        36.40033
282.13        35.51129
282.59        34.76239
283.04        34.14702
283.50        33.69022
283.95        33.32673
284.41        33.02528
284.86        32.75885
285.32        32.55951
285.77        32.46788
286.22         32.5959
286.68        32.93437
287.13        33.39812
287.59        33.84463
288.04        34.00045
288.50        33.84414
288.95        33.42918
289.41        32.96147
289.86        32.63736
290.32        32.55304
290.77        32.64738
291.22          32.851
291.68        33.04052
292.13        33.19049
292.59        33.38628
293.04        33.71234
293.50        34.34377
293.95         35.2879
294.40        36.49218
294.86        37.82474
295.31        39.08981
295.77        40.22575
296.22         41.2615
296.68        42.29826
297.13        43.47567
297.58        44.84689
298.04        46.38668
298.49        47.98233
298.95        49.49844
299.40        50.87107
299.85        52.14363
300.31        53.46236
300.76        55.02483
301.21        56.88717
301.67        59.00074
302.12        61.13619
302.58        62.96026
303.03        64.35687
303.48        65.46131
303.94        66.57779
304.39        68.04569
304.84        69.99553
305.30        72.29528
305.75        74.69872
306.20        76.85875
306.66        78.66913
307.11        80.16888
307.57         81.5155
308.02        82.82818
308.47        84.19369
308.93        85.57823
309.38        86.87428
309.83        88.01491
310.29        89.01581
310.74        89.91669
311.19         90.8246
311.65        91.87151
312.10        93.05292
312.55        94.30154
313.00        95.57581
313.46         96.8176
313.91         97.9721
314.36        99.05196
314.82        99.92574
315.27        100.4052
315.72        100.4682
316.18        100.2204
316.63        99.86835
317.08         99.7979
317.53        100.1054
317.99         100.702
318.44        101.4256
318.89        101.9665
319.35         102.234
319.80        102.3357
320.25        102.3861
320.70        102.5753
321.16        102.9389
321.61        103.4095
322.06         103.917
322.51        104.3782
322.97        104.7277
323.42        105.0317
323.87        105.2447
324.32        105.3144
324.78        105.2409
325.23        105.0868
325.68        104.9149
326.13        104.8526
326.59        104.9234
327.04        105.1505
327.49         105.507
327.94        105.9644
328.39        106.4858
328.85        107.0159
329.30        107.5734
329.75        108.0313
330.20        108.3583
330.66        108.5509
331.11        108.6703
331.56        108.6969
332.01        108.6739
332.46        108.6218
332.92        108.6478
333.37        109.0374
333.82        109.8074
334.27        110.9027
334.72        112.1331
335.17         113.147
335.63        113.7872
336.08        114.1719
336.53        114.3866
336.98        114.6596
337.43        115.0746
337.88        115.5726
338.34        116.0668
338.79        116.5078
339.24        116.8348
339.69         117.086
340.14        117.3516
340.59        117.7561
341.05        118.3108
341.50        118.9939
341.95        119.6605
342.40        120.0811
342.85        120.2237
343.30        120.1812
343.75         120.149
344.20        120.4326
344.66        121.0861
345.11        121.9829
345.56        122.9802
346.01        123.8221
346.46        124.4121
346.91        124.8487
347.36        125.1117
347.81        125.1743
348.26        125.0811
348.72        124.8391
349.17        124.6367
349.62         124.854
350.07        125.5179
350.52        126.4805
350.97        127.4017
351.42         127.712
351.87        127.2956
352.32        126.3936
352.77        125.2374
353.22        124.1887
353.67        123.3938
354.13        122.7644
354.58        122.3639
355.03        122.4096
355.48        122.8787
355.93          123.74
356.38        124.5832
356.83        124.7045
357.28        123.9666
357.73        122.5704
358.18        121.0578
358.63        120.2528
359.08        120.3039
359.53        120.9441
359.98        121.6961
360.43        121.7627
360.88        120.9385
361.33        119.5184
361.78        117.8933
362.23        116.6065
362.68        115.8018
363.13        115.3046
363.58        114.9267
364.03        114.3939
364.48        113.6174
364.93        112.6816
365.38        111.7232
365.83        110.9202
366.28         110.304
366.73        109.8247
367.18        109.2809
367.63        108.3749
368.08        107.0931
368.53        105.5667
368.98         104.135
369.43        103.2789
369.88        103.0667
370.33        103.3411
370.78        103.7479
371.23         103.668
371.68        102.9325
372.13        101.7477
372.58        100.4257
373.03        99.43282
373.48         98.8796
373.93        98.59308
374.38        98.42522
374.83        98.15051
375.28         97.6845
375.72        97.10401
376.17        96.44805
376.62        95.69559
377.07        94.87464
377.52        93.99068
377.97        93.13367
378.42        92.45767
378.87        91.99532
379.32        91.70577
379.77         91.5079
380.22        91.26509
380.67         90.9325
381.11        90.54764
381.56        90.12754
382.01        89.72675
382.46        89.36935
382.91        89.03587
383.36        88.71736
383.81         88.4059
384.26        88.09059
384.71        87.76846
385.15        87.43265
385.60        87.12053
386.05        86.81853
386.50        86.52766
386.95        86.20992
387.40        85.81247
387.85        85.34159
388.29        84.77636
388.74        84.28724
389.19        83.91941
389.64        83.67602
390.09        83.51148
390.54        83.36224
390.98        83.10732
391.43        82.77561
391.88        82.40017
392.33        82.02829
392.78        81.65655
393.23        81.29121
393.67         80.9884
394.12        80.86957
394.57        80.31383
395.02        80.57223
395.47        80.14134
395.91        79.53434
396.36        79.25269
396.81        79.34797
397.26         79.5582
397.71        79.67863
398.15        79.54201
398.60        79.20235
399.05        78.54991
399.50        77.87156
399.95        77.83057
400.39        78.37321
400.84        78.71554
401.29        78.66628
401.74        78.49215
402.18        78.14841
402.63        77.35783
403.08        76.40141
403.53        75.84554
403.97         75.7692
404.42        76.02109
404.87        76.37764
405.32        76.45138
405.76        76.13296
406.21        75.70079
406.66        75.29104
407.11        74.78275
407.55        74.40574
408.00        74.83422
408.45        75.80895
408.90        76.06609
409.34        75.49474
409.79        74.90672
410.24        74.50149
410.68        74.19929
411.13        74.07867
411.58        74.18425
412.03        74.42587
412.47        74.61099
412.92        74.65148
413.37         74.6271
413.81        74.54702
414.26        74.48248
414.71        74.43193
415.15        74.37629
415.60        74.30675
416.05        74.28392
416.49        74.31493
416.94        74.37945
417.39        74.43466
417.83        74.39156
418.28        74.24469
418.73        74.03931
419.17        73.82136
419.62        73.66982
420.07         73.5965
420.51        73.54863
420.96         73.5862
421.41        73.65714
421.85        73.71674
422.30        74.01096
422.74        74.36239
423.19        74.17413
423.64        73.58993
424.08        73.60074
424.53         74.1764
424.98        74.41283
425.42        74.23484
425.87         74.4173
426.31         74.8597
426.76         74.4465
427.21        73.49321
427.65        73.72219
428.10        74.83489
428.54         75.0897
428.99        74.50533
429.44         73.6143
429.88        72.79946
430.33        73.43459
430.77        74.91449
431.22         74.7264
431.66        73.13437
432.11        72.53148
432.56        73.02867
433.00        73.82198
433.45        74.67751
433.89        74.16426
434.34        73.06519
434.78        75.00054
435.23         74.3655
435.67        74.69955
436.12        74.43131
436.57        74.87288
437.01        75.80929
437.46        76.51617
437.90        76.13338
438.35        75.72223
438.79        75.70236
439.24          75.283
439.68        74.78041
440.13        74.77369
440.57        75.25481
441.02        75.61934
441.46        75.75917
441.91        76.20471
442.35        76.67127
442.80        76.55903
443.24        75.94553
443.69        75.62807
444.13        75.69437
444.58        75.72289
445.02        75.71471
445.47         76.0044
445.91        76.48541
446.36        76.81753
446.80        76.93214
447.24        76.97961
447.69        76.92632
448.13        76.91504
448.58        76.96033
449.02        77.00053
449.47        77.03636
449.91        77.03426
450.36        77.00777
450.80        76.95242
451.25        76.88509
451.69        76.77815
452.13        76.65087
452.58        76.52117
453.02        76.39259
453.47        76.34152
453.91        76.36018
454.36        76.35543
454.80        76.30939
455.24        76.38001
455.69         76.4627
456.13        76.18427
456.58        75.69501
457.02        75.25352
457.46        75.05014
457.91        75.39291
458.35        76.04797
458.79        76.15225
459.24        75.64754
459.68        75.15318
460.13        74.98272
460.57        73.98781
461.01        74.34469
461.46        74.39719
461.90        74.76514
462.34        74.52884
462.79         74.0657
463.23        74.08981
463.68        74.54688
464.12         74.6404
464.56        74.32777
465.01        73.97113
465.45        73.65192
465.89        73.77457
466.34        74.17786
466.78        74.28432
467.22        73.70177
467.67        73.49241
468.11         73.3447
468.55        73.37074
468.99        73.43698
469.44          73.438
469.88        73.37074
470.32        73.34627
470.77        73.37446
471.21        73.39967
471.65        73.40258
472.10        73.41866
472.54        73.39896
472.98         73.2894
473.42        73.08313
473.87        72.84978
474.31        72.61364
474.75        72.38329
475.20        72.24298
475.64        72.39106
476.08        72.70845
476.52        72.78973
476.97        72.58312
477.41        72.40207
477.85        71.78587
478.29        72.05804
478.74        72.80453
479.18        72.76193
479.62        71.95821
480.06        71.77107
480.50        72.27602
480.95        71.50691
481.39        71.89314
481.83        71.59438
482.27        71.33199
482.72         71.6536
483.16        71.41761
483.60        71.67702
484.04        72.03576
484.48        72.13295
484.93        72.12543
485.37        73.12527
485.81        72.20968
486.25        73.04044
486.69        73.21262
487.14        70.67356
487.58        69.89875
488.02        71.84484
488.46        71.44796
488.90        71.21095
489.34        71.75659
489.79        71.24326
490.23        71.59736
490.67        71.31691
491.11        70.95905
491.55        71.00893
491.99        71.37895
492.43        71.48444
492.88        71.26513
493.32        71.07991
493.76        70.99572
494.20        70.96947
494.64        70.99485
495.08        71.13481
495.52        71.34592
495.96        71.28966
496.41        70.96127
496.85         71.2884
497.29        71.23203
497.73        71.05602
498.17         70.5799
498.61        70.27821
499.05        70.26933
499.49        70.59066
499.93        71.09116
500.37        71.28145
500.82        71.17471
501.26        71.18056
501.70        71.27135
502.14        71.61935
502.58        71.28525
503.02        71.15819
503.46        70.98694
503.90        70.74475
504.34        70.52668
504.78         70.4996
505.22        70.68479
505.66        71.05621
506.10        71.47824
506.54          71.532
506.98        71.39065
507.42        71.07421
507.86        70.24711
508.30         69.9451
508.74        70.06633
509.18        70.39878
509.62        70.79744
510.06        71.10173
510.50        71.23958
510.94        71.25604
511.38        71.19167
511.82        71.10986
512.26        71.03422
512.70        70.92934
513.14        70.80858
513.58        70.70238
514.02        70.61759
514.46        70.56748
514.90        70.51666
515.34        70.39684
515.78        70.20528
516.22         69.9696
516.66        69.76544
517.10        69.70812
517.54        69.81702
517.98        70.05148
518.42        70.32715
518.86        70.50524
519.30        70.54478
519.74         70.4817
520.18        70.37347
520.62        70.31557
521.06        70.33218
521.50        70.38636
521.93        70.44615
522.37         70.4521
522.81        70.39571
523.25        70.30877
523.69        70.20397
524.13        70.09391
524.57        69.99294
525.01        69.89861
525.45        69.83834
525.89        69.85686
526.32        69.95348
526.76        70.10742
527.20        70.27048
527.64        70.36694
528.08        70.37642
528.52        70.32667
528.96        70.23618
529.40        70.13674
529.83        70.03921
530.27        69.95187
530.71        69.89961
531.15        69.93785
531.59        70.06964
532.03        70.27436
532.46        70.47912
532.90        70.58792
533.34        70.57658
533.78        70.42018
534.22        70.18591
534.66        70.10051
535.09        70.12431
535.53        69.97803
535.97        69.68652
536.41        69.53942
536.85        69.54962
537.28         69.5613
537.72        69.56184
538.16        69.58534
538.60        69.61808
539.04        69.66342
539.47        69.70235
539.91        69.70008
540.35        69.66118
540.79        69.71625
541.22        69.83727
541.66        69.79106
542.10        69.74641
542.54        69.63126
542.97        69.52853
543.41        69.49206
543.85        69.52242
544.29        69.60739
544.72        69.69001
545.16        69.71888
545.60        69.66785
546.04        69.55381
546.47        69.42227
546.91         69.3633
547.35         69.4034
547.79        69.48441
548.22        69.52637
548.66        69.57976
549.10        69.62164
549.53        69.29286
549.97        69.25697
550.41         69.2193
550.84         69.3795
551.28         69.6257
551.72        69.89127
552.15        70.10081
552.59        70.21512
553.03        70.17916
553.46         70.0026
553.90        69.92422
554.34        69.97271
554.77        69.84985
555.21        69.53995
555.65        69.98151
556.08        69.78526
556.52        69.69594
556.96        69.37126
557.39        69.24006
557.83        69.33937
558.27        69.36286
558.70        69.28854
559.14        69.52456
559.57        69.44318
560.01        69.58159
560.45        69.66147
560.88        69.58578
561.32        69.43033
561.75        69.04707
562.19        68.66326
562.63        68.99323
563.06        69.81487
563.50        69.82711
563.93        69.10788
564.37        68.91425
564.80        69.24183
565.24        69.41399
565.68        69.36888
566.11        69.33086
566.55        69.32168
566.98        69.25347
567.42        69.20707
567.85        69.24444
568.29        69.40791
568.72        69.61164
569.16        69.84879
569.60        69.98927
570.03        69.96909
570.47        69.78318
570.90        70.05836
571.34        69.38055
571.77        69.66991
572.21        69.70245
572.64        70.04803
573.08        69.70848
573.51          69.791
573.95        70.77379
574.38         69.4401
574.82        69.90263
575.25        70.13174
575.69        70.52999
576.12        70.16625
576.56        69.64269
576.99        70.23196
577.42        70.24896
577.86        69.97745
578.29        70.22665
578.73        71.02522
579.16        70.10242
579.60        69.25711
580.03        69.48168
580.47        70.19031
580.90         69.4249
581.33        70.07108
581.77        70.62612
582.20        70.69343
582.64        70.66066
583.07        70.02943
583.51        69.52547
583.94        69.44265
584.37        69.86374
584.81        70.66167
585.24        70.83613
585.68        70.34893
586.11        70.30723
586.54        70.25417
586.98        69.35022
587.41        69.32083
587.85        70.24101
588.28        70.22921
588.71        68.99303
589.15         69.9186
589.58        69.09548
590.01        69.19547
590.45        69.28806
590.88        69.79562
591.31        69.71149
591.75        69.57042
592.18        69.57451
592.61        69.18617
593.05        69.63351
593.48        69.33298
593.91         69.7965
594.35        69.49178
594.78         69.3242
595.21        68.85548
595.65        69.54909
596.08          69.464
596.51        69.02206
596.94         69.0583
597.38        69.02514
597.81        69.46516
598.24        68.69235
598.68        69.43452
599.11        69.16113
599.54        70.14681
599.97        69.98824
600.41         69.2394
600.84        69.67362
601.27        69.44771
601.70        69.80836
602.14         69.8399
602.57        69.68568
603.00        69.37846
603.43        69.13317
603.87        69.44366
604.30        69.61924
604.73        69.50201
605.16        69.00399
605.60        68.96552
606.03        69.23885
606.46         69.8097
606.89        69.63861
607.32        68.96526
607.76        68.68422
608.19        68.91792
608.62        69.22372
609.05        69.22847
609.48        69.19025
609.92        69.19716
610.35        68.84008
610.78        70.12998
611.21        70.10672
611.64        69.44204
612.07        69.79568
612.50        70.25521
612.94        70.24841
613.37        69.54321
613.80        69.57719
614.23        69.00434
614.66        69.31212
615.09        68.99531
615.52        69.14352
615.96        69.35191
616.39         69.4758
616.82        69.50526
617.25        69.53718
617.68        69.56998
618.11        69.55265
618.54        69.46665
618.97        69.22744
619.40        68.92819
619.84        68.78162
620.27        68.83066
620.70        69.15816
621.13        69.63151
621.56         69.4114
621.99         68.5443
622.42        68.79842
622.85        69.40677
623.28        68.91595
623.71        68.85507
624.14        69.28461
624.57        69.19223
625.00        69.34806
625.43        69.28233
625.86        69.25632
626.29        69.27534
626.72        68.91943
627.15        69.00725
627.58        68.84105
628.01        68.70126
628.44        68.73669
628.87        68.90423
629.30        68.93683
629.73        68.84226
630.16        68.85603
630.59        68.97301
631.02        69.05245
631.45         69.0635
631.88        69.02522
632.31        68.93463
632.74        68.79065
633.17        68.63584
633.60        68.53846
634.03         68.5176
634.46        68.56062
634.89        68.63599
635.32        68.68666
635.75        68.69361
636.18        68.66931
636.61        68.63255
637.04        68.61802
637.47        68.63912
637.89        68.66996
638.32        68.66118
638.75        68.64517
639.18        68.63242
639.61        68.34415
640.04        68.33154
640.47        68.23793
640.90        68.23085
641.33        68.26868
641.76        68.31391
642.18        68.39694
642.61        68.50336
643.04          68.483
643.47        68.27919
643.90        68.76932
644.33        68.47422
644.76        68.47814
645.18        68.40611
645.61        68.62289
646.04        69.02264
646.47        69.04576
646.90        68.73967
647.33         68.6452
647.75        68.77979
648.18        68.80568
648.61        68.73811
649.04        68.68948
649.47        68.64073
649.89        68.76058
650.32        68.94169
650.75        68.55952
651.18        67.84313
651.61         67.9613
652.03         68.8134
652.46        69.04456
652.89        68.58938
653.32        68.37083
653.74        68.62811
654.17            68.3
654.60         68.8782
655.03        69.19283
655.46        68.02891
655.88        68.50243
656.31        76.72935
656.74        75.24339
657.16         68.7745
657.59        67.42056
658.02        69.13092
658.45        68.99025
658.87        68.94654
659.30         67.9616
659.73        67.92322
660.15        68.97874
660.58        68.44267
661.01        68.48092
661.44        68.24605
661.86        68.17216
662.29        68.27808
662.72        68.45065
663.14        68.68486
663.57        68.87085
664.00        68.97213
664.42        69.00079
664.85        68.95187
665.27        68.75376
665.70        68.49058
666.13        68.35357
666.55        68.39102
666.98        68.53567
667.41          68.741
667.83        68.93451
668.26        69.06346
668.69        69.14427
669.11        69.19987
669.54        69.27022
669.96        69.34892
670.39        69.41411
670.82        69.44464
671.24        69.31797
671.67        69.10562
672.09        69.09458
672.52        69.26511
672.94        69.27666
673.37        69.11983
673.80         68.9875
674.22        68.90621
674.65        68.79575
675.07        68.68295
675.50        68.57793
675.92        68.51169
676.35        68.52119
676.77        68.61148
677.20        68.75768
677.62        68.91914
678.05        69.01732
678.47        69.03117
678.90        68.98861
679.32        68.91163
679.75        68.86256
680.17         68.8487
680.60        68.84916
681.02        68.86488
681.45        68.86721
681.87        68.86057
682.30        68.89617
682.72        68.95477
683.15        68.85418
683.57        68.64986
684.00        68.60276
684.42        68.72256
684.85        68.80801
685.27        68.83123
685.70        68.95673
686.12        69.11626
686.54        69.06088
686.97        68.80331
687.39        68.66356
687.82        68.63461
688.24        68.39157
688.66         68.0369
689.09        68.08182
689.51        68.49442
689.94        68.74784
690.36        68.79047
690.78        68.87672
691.21        69.03739
691.63        69.13336
692.06        69.22887
692.48        69.60214
692.90        70.12155
693.33        70.31031
693.75        70.12677
694.17        69.74967
694.60        69.33819
695.02        69.12395
695.44        69.10374
695.87        69.08823
696.29        69.05283
696.71         68.8826
697.14        68.71192
697.56        69.07762
697.98        69.81847
698.41         70.1572
698.83         70.0248
699.25        69.83033
699.68        69.66049
700.10        69.55758
700.52        69.56034
700.94        69.60765
701.37        69.67248
701.79        69.83901
702.21        70.01093
702.64        70.01159
703.06        69.86623
703.48        69.68159
703.90        69.46267
704.33        69.60629
704.75        69.25375
705.17        69.21277
705.59        69.23278
706.01        69.29597
706.44        69.41695
706.86        69.62497
707.28        69.88788
707.70        70.27644
708.12        70.66432
708.55        70.61929
708.97        70.21855
709.39        70.04875
709.81        70.14454
710.23         70.0964
710.66        69.91447
711.08        69.89569
711.50        70.01271
711.92         70.0853
712.34        70.09592
712.76        70.10082
713.19         70.0918
713.61        70.10257
714.03        70.11848
714.45        70.12082
714.87        70.12874
715.29         70.1795
715.71        70.27512
716.13         70.4088
716.56         70.5126
716.98        70.56154
717.40        70.51268
717.82         70.3825
718.24        70.24268
718.66        70.20911
719.08        70.30223
719.50        70.48519
719.92        70.67212
720.34        70.72229
720.76        70.60559
721.19        70.37375
721.61          70.112
722.03        69.94579
722.45        69.91986
722.87        70.00508
723.29        70.16014
723.71        70.31644
724.13        70.44088
724.55         70.5351
724.97        70.62497
725.39        70.75276
725.81        70.91647
726.23        71.09664
726.65        71.20787
727.07        71.12036
727.49        70.82706
727.91         70.3873
728.33         69.9465
728.75        69.73071
729.17        69.79165
729.59        70.06091
730.01        70.42421
730.43        70.67744
730.85        70.75449
731.27        70.72447
731.69        70.62881
732.10        70.53447
732.52        70.47401
732.94        70.40825
733.36        70.38116
733.78        70.45795
734.20        70.63494
734.62        70.94969
735.04        71.29233
735.46         71.3364
735.88        71.11813
736.30        71.02633
736.72        71.08033
737.13         71.0406
737.55        70.89558
737.97        70.79997
738.39        70.79713
738.81        70.95164
739.23        71.22133
739.65        71.39816
740.06        71.41309
740.48        71.46196
740.90        71.50828
741.32        71.44832
741.74        71.29982
742.16        71.15111
742.57        71.02603
742.99        70.96075
743.41        70.97229
743.83        70.91869
744.25        70.86211
744.67        71.14162
745.08        71.65434
745.50        71.82175
745.92        71.59975
746.34        71.26649
746.75        70.91088
747.17        70.61395
747.59        70.41164
748.01         70.2915
748.42         70.2734
748.84        70.35239
749.26        70.52565
749.68        70.78295
750.09        71.04926
750.51        71.22877
750.93        71.28873
751.35        71.24651
751.76        71.16283
752.18        71.13586
752.60        71.20065
753.01        71.35122
753.43        71.51817
753.85        71.63263
754.27        71.67785
754.68        71.67663
755.10        71.69542
755.52        71.82973
755.93        72.07837
756.35          72.393
756.77        72.68215
757.18        72.75824
757.60        72.60241
758.02        72.39523
758.43         72.1436
758.85        71.74458
759.26        71.37141
759.68        71.33871
760.10        71.76228
760.51        72.41521
760.93        72.01112
761.34        72.12867
761.76        72.36144
762.18         72.1233
762.59        71.58647
763.01        71.58407
763.42        72.13954
763.84        72.34734
764.26        72.18423
764.67        72.07119
765.09        72.06155
765.50        72.03358
765.92        72.04018
766.33        71.69411
766.75        71.64938
767.16        71.62953
767.58         71.8247
768.00         71.9206
768.41        72.02745
768.83        72.74261
769.24        73.80783
769.66        74.19021
770.07        73.85561
770.49        73.43008
770.90        73.09386
771.32         72.9642
771.73        73.03441
772.15        72.94924
772.56        72.72324
772.97        72.68398
773.39        72.80502
773.80        72.89517
774.22        72.89717
774.63          72.921
775.05        72.94267
775.46        72.99232
775.88        73.04576
776.29        73.11553
776.70        73.18464
777.12        73.25699
777.53        73.33853
777.95        73.39599
778.36        73.43301
778.77        73.39268
779.19         73.2692
779.60        73.20248
780.02        73.16584
780.43         72.8773
780.84        72.49771
781.26        72.53607
781.67        72.93124
782.09        73.31876
782.50         73.4824
782.91        73.00873
783.33        72.16531
783.74        71.97543
784.15        72.55086
784.57        73.27735
784.98        74.00333
785.39        74.68246
785.81         75.2081
786.22        75.35055
786.63        75.53483
787.04        75.40969
787.46        75.17075
787.87        74.76759
788.28        74.38255
788.70        74.26685
789.11        74.43148
789.52        74.84079
789.93        75.28905
790.35        75.41344
790.76        75.16255
791.17        74.63828
791.58        74.04463
792.00        73.73201
792.41        73.80855
792.82        74.02935
793.23        74.28601
793.65        74.75386
794.06        75.20982
794.47        74.88818
794.88        74.06673
795.29         73.7868
795.71        74.04897
796.12        74.42981
796.53        74.74582
796.94        74.90424
797.35        74.81358
797.76        74.52545
798.18        74.20913
798.59         74.0798
799.00        74.20187
799.41        74.49803
799.82        74.87056
800.23        75.15463
800.64        75.28886
801.06        75.30527
801.47        75.25909
801.88         75.1403
802.29        74.97317
802.70        74.74709
803.11        74.54395
803.52        74.50296
803.93        74.66708
804.34        75.01082
804.75        75.42103
805.17        75.78704
805.58        76.11056
805.99        76.04578
806.40        75.72417
806.81        76.18726
807.22        77.09936
807.63        76.55679
808.04        74.85795
808.45        74.17852
808.86        74.70367
809.27        75.25777
809.68        75.61442
810.09        75.91803
810.50        76.07095
810.91        76.04245
811.32        75.89644
811.73        75.74443
812.14        75.63553
812.55        75.53873
812.96        75.50103
813.37        75.59766
813.78        75.82918
814.19        76.17945
814.60         76.5375
815.01        76.72279
815.42        76.69382
815.83        76.48701
816.24        76.18716
816.65        75.97024
817.05        75.90803
817.46        75.93481
817.87        76.00882
818.28        76.01595
818.69        75.92639
819.10        75.77486
819.51        75.62646
819.92        75.59272
820.33        75.69841
820.74        75.89413
821.14        76.08322
821.55        76.15709
821.96        76.07909
822.37        75.90218
822.78        75.69792
823.19        75.59125
823.60        75.63431
824.00        75.81353
824.41        76.06129
824.82        76.37955
825.23        76.72852
825.64        77.08268
826.04        77.41238
826.45        77.58215
826.86        77.59443
827.27        77.49528
827.68        77.26448
828.08        76.90169
828.49        76.40545
828.90        75.79148
829.31        75.27423
829.72        75.18183
830.12        75.60461
830.53        76.44096
830.94        77.33418
831.35        77.58315
831.75        77.04388
832.16        75.88391
832.57        74.68423
832.97        74.32676
833.38        74.97413
833.79        76.33898
834.20        77.90316
834.60        78.77312
835.01        78.65446
835.42        77.87311
835.82        76.78158
836.23        75.91728
836.64        75.47101
837.04        75.27898
837.45        75.28905
837.86        75.49671
838.26        75.85577
838.67        76.35343
839.08        76.83922
839.48        77.00679
839.89        76.78426
840.29        76.26105
840.70        75.61904
841.11        75.12947
841.51        74.89914
841.92        74.82961
842.33        74.93403
842.73        75.23188
843.14        75.64098
843.54        76.21439
843.95        76.76993
844.35         77.0745
844.76        77.03584
845.17        76.70238
845.57        76.26921
845.98        76.04996
846.38        76.14269
846.79        76.44827
847.19        76.80631
847.60        76.84486
848.00        76.50856
848.41        75.91135
848.81        75.29522
849.22        75.00086
849.62         75.1263
850.03        75.53369
850.43        76.06188
850.84        76.28319
851.24        76.15144
851.65        75.75632
852.05        75.33412
852.46        75.22212
852.86        75.47811
853.27        75.96722
853.67        76.50127
854.07        77.03165
854.48         77.4548
854.88        77.91067
855.29        78.15357
855.69        78.02894
856.10        77.40827
856.50        76.44944
856.90        75.47358
857.31        74.96259
857.71        75.00617
858.12        75.42294
858.52        76.04713
858.92        76.33022
859.33        76.08487
859.73        75.52689
860.13        74.77107
860.54        74.02445
860.94         73.3922
861.34        72.81405
861.75         72.3875
862.15        72.33974
862.55        72.67732
862.96         73.3218
863.36        74.09926
863.76         74.6241
864.17        74.78226
864.57        74.67551
864.97        74.40992
865.38         74.1919
865.78        74.11681
866.18        74.07918
866.58        74.05679
866.99        74.02219
867.39        73.99971
867.79        74.03296
868.19        74.02464
868.60         73.7752
869.00        73.26188
869.40        72.52629
869.80        71.85364
870.21        71.76805
870.61        72.42215
871.01        73.56689
871.41        74.71383
871.81        75.13247
872.22        74.66724
872.62        73.55978
873.02        72.20361
873.42        71.25422
873.82        70.94559
874.22        71.11753
874.63        71.58241
875.03        72.03201
875.43         72.3548
875.83        72.63174
876.23        72.95328
876.63         73.4517
877.03        74.11852
877.44        74.82724
877.84        75.40218
878.24        75.52833
878.64        75.15492
879.04         74.4277
879.44        73.57293
879.84        72.91847
880.24        72.57037
880.64        72.45623
881.04        72.53896
881.44        72.73643
881.84        73.01167
882.24        73.40897
882.65        73.82709
883.05        74.18794
883.45        74.39507
883.85        74.41919
884.25        74.38914
884.65        74.52686
885.05        74.87577
885.45        75.40043
885.85        75.87708
886.25        75.92545
886.65        75.46661
887.05         74.6072
887.45        73.72659
887.85        73.40703
888.25        73.76964
888.65        74.66479
889.04        75.62675
889.44        75.87437
889.84        75.25969
890.24        74.02357
890.64         72.7299
891.04        72.19512
891.44         72.5817
891.84         73.6674
892.24        74.88385
892.64        75.26978
893.04        74.60295
893.44        73.19634
893.83         71.7364
894.23        71.25928
894.63        71.94305
895.03        73.46744
895.43        75.16103
895.83        75.81453
896.23        75.12653
896.63        73.58727
897.02        71.83005
897.42        70.84023
897.82        70.77758
898.22        71.36844
898.62        72.34264
899.01        73.27515
899.41        73.92099
899.81         74.4283
900.21        74.87948
900.61        75.39864
901.00        75.99303
901.40        76.52294
901.80        76.85769
902.20        76.84252
902.59        76.47868
902.99         75.8735
903.39        75.18176
903.79         74.6367
904.18        74.30665
904.58        74.14354
904.98        74.13972
905.38        74.28139
905.77        74.52972
906.17        74.92921
906.57        75.27931
906.96        75.26498
907.36        74.82771
907.76        74.05573
908.15        73.33389
908.55        73.25202
908.95        73.93866
909.34        75.21173
909.74        76.58315
910.14        77.32523
910.53        77.23888
910.93          76.563
911.33        75.64858
911.72        75.05321
912.12        74.96145
912.52         75.1729
912.91        75.52553
913.31        75.75159
913.70         75.7627
914.10        75.68021
914.49        75.53316
914.89        75.32183
915.29        75.08125
915.68        74.79401
916.08         74.5575
916.47        74.57359
916.87        74.86816
917.26        75.38033
917.66        75.94634
918.05        76.30878
918.45        76.39278
918.84        76.29176
919.24        76.09534
919.64        76.05479
920.03        76.25202
920.42        76.58401
920.82        76.93315
921.21        77.15077
921.61        77.16036
922.00        77.01569
922.40        76.77058
922.79        76.60017
923.19        76.53976
923.58        76.55612
923.98        76.52037
924.37        76.17787
924.77        75.54487
925.16        74.69553
925.55        73.90632
925.95        73.61787
926.34        73.96661
926.74        74.76836
927.13        75.80433
927.52        76.61893
927.92        77.04969
928.31         77.2239
928.70        77.20699
929.10        77.14703
929.49        77.12704
929.89        77.07179
930.28        76.99701
930.67        76.90159
931.07        76.76964
931.46        76.60958
931.85        76.46072
932.24        76.36964
932.64         76.3492
933.03         76.4564
933.42        76.51156
933.82        76.25552
934.21        75.66876
934.60        74.80297
934.99        74.08543
935.39        74.13984
935.78        75.09954
936.17        76.82767
936.56        78.64566
936.96         79.2933
937.35        78.49428
937.74        76.60998
938.13        74.55798
938.53        73.57513
938.92        73.85339
939.31         75.0735
939.70        76.60671
940.09        77.29639
940.49        76.81069
940.88        75.57676
941.27        74.17985
941.66        73.47298
942.05        73.68049
942.44        74.53178
942.84        75.67924
943.23        76.59524
943.62        76.99785
944.01        77.06734
944.40        76.97464
944.79        76.98683
945.18        77.17781
945.57        77.39808
945.97        77.56081
946.36         77.6618
946.75        77.64744
947.14        77.56947
947.53        77.38283
947.92        76.98634
948.31        76.40784
948.70        75.73271
949.09        75.13339
949.48         74.8438
949.87        74.93494
950.26        75.37344
950.65        76.06187
951.04        76.81358
951.43        77.49831
951.82        78.04508
952.21         78.4987
952.60         78.9784
952.99        79.46139
953.38        79.88831
953.77        79.96309
954.16         79.1972
954.55        77.60891
954.94         75.5267
955.33        73.49066
955.72        72.28924
956.11        72.10689
956.50        72.65726
956.89        73.74269
957.28        75.02388
957.66        76.34172
958.05        77.67124
958.44        78.61544
958.83        78.42764
959.22        77.04799
959.61        74.77453
960.00        72.42505
960.39        71.17776
960.78        71.26437
961.16        72.40167
961.55        74.03579
961.94        75.30121
962.33        75.86332
962.72        75.95287
963.11        75.69271
963.49        75.34694
963.88        75.01271
964.27        74.62356
964.66        74.22975
965.04        73.93922
965.43         73.7556
965.82        73.66233
966.21        73.68239
966.60        73.80335
966.98        74.01508
967.37        74.31345
967.76        74.52113
968.15        74.33106
968.53        73.71805
968.92        72.75304
969.31        71.81994
969.69         71.5343
970.08        71.96818
970.47        72.95044
970.86        74.03234
971.24        74.39847
971.63        73.76077
972.02        72.45973
972.40        70.89749
972.79        69.71258
973.17        69.12912
973.56        68.96257
973.95        69.13483
974.33        69.55109
974.72        70.07262
975.11        70.68255
975.49        71.38519
975.88        72.09419
976.26        72.78136
976.65        73.36646
977.04        73.52432
977.42        72.73582
977.81         71.0386
978.19        68.68981
978.58         66.7271
978.96        66.45849
979.35        68.10398
979.74        71.34223
980.12        75.45738
980.51        78.30959
980.89        79.27949
981.28        78.74397
981.66        77.32921
982.05        76.23404
982.43        75.83529
982.82        75.69604
983.20        76.00909
983.59        76.94241
983.97        78.51068
984.35        80.65592
984.74        82.53316
985.12        82.87166
985.51        81.42397
985.89        78.53854
986.28        75.32896
986.66        73.45681
987.04        73.47713
987.43        74.90837
987.81        76.91615
988.20        77.85121
988.58         77.2635
988.96        75.50166
989.35        73.44282
989.73        72.43533
990.12        72.77352
990.50        74.12062
990.88        75.45761
991.27        75.17996
991.65        73.08833
992.03        69.79996
992.42         66.6495
992.80        65.40698
993.18        66.56425
993.56        69.48878
993.95        73.06423
994.33        75.62724
994.71        76.34187
995.10        75.70821
995.48        74.15656
995.86        72.44593
996.24        70.98399
996.63        69.54155
997.01        68.32098
997.39         67.6249
997.77        67.47708
998.15        67.94382
998.54        68.71524
998.92        69.14252
999.30        69.03393
999.68        68.50485
1000.06        67.96037
1000.45        68.09844
1000.83        69.24051
1001.21        71.12707
1001.59        73.21501
1001.97        74.59888
1002.35        74.95919
1002.73        74.43697
1003.12        73.60874
1003.50        73.38731
1003.88         73.9963
1004.26        75.18288
1004.64         76.1748
1005.02         75.8186
1005.40        73.96809
1005.78        71.01508
1006.16        68.00184
1006.54        66.76751
1006.92        67.80972
1007.30        70.54356
1007.69        73.75095
1008.07        75.65598
1008.45        75.62776
1008.83        74.23815
1009.21        72.18659
1009.59        70.65797
1009.97        70.10251
1010.35        70.14922
1010.73        70.69269
1011.11        71.57598
1011.49        72.71119
1011.86        74.43264
1012.24        76.29699
1012.62        77.86042
1013.00        78.91799
1013.38        79.35687
1013.76        79.57452
1014.14        80.45715
1014.52        82.19608
1014.90        84.55737
1015.28        86.58102
1015.66        86.59127
1016.04        84.47973
1016.41        81.15767
1016.79        78.00792
1017.17        76.13792
1017.55        75.53282
1017.93        75.81818
1018.31        76.53714
1018.69        76.40015
1019.06         75.0264
1019.44        73.36761
1019.82        71.91456
1020.20         70.8141
1020.58        69.96993
1020.95        69.05708
1021.33        68.50407
1021.71        69.18056
1022.09        71.33682
1022.46        74.65122
1022.84        77.84342
1023.22          79.401
1023.60        79.07374
1023.97        77.35909
1024.35        74.95789
1024.73        73.25204
