SpectraSmart Spectrum 2.9.0.0
--------- Device Information -----------
Spectrum Name :  反射率_0
Saving Time :  2024/05/01 16:10:39
Spectro-Module Model Name : SE2030-DUVN
Spectro-Module Serial Number : OS361AC55029948
Wavelength Start : 200
Wavelength End : 1025
Wavelength Unit : Wavelength(nm)
Spectrum Unit : Reflectance(%)
-----------Spectrum Setting ------------
Integration Time : 20ms
Average : 10
Boxcar : 0
Background removal :  enabled
linearity correction :  enabled
SC :  disabled
Intensity correction :  disabled
DWT denoise :  enabled
savitzky-golay :  disabled
FFT :  disabled
Running average :  disabled
Kalman :  disabled
High pass :  disabled
---------------BEGIN--------------------
Wavelength(nm)             Reflectance(%)
200.29               0
200.75        64.92676
201.21        470.8027
201.67       -238.5861
202.13       -88.63419
202.58        -32.5395
203.04        3.528634
203.50        26.91733
203.96        38.17319
204.42        40.26359
204.88        29.99474
205.34       -308.3542
205.80        98.09375
206.26        71.37233
206.72         51.4761
207.18       -14.50665
207.64        152.9991
208.10        86.94633
208.55         69.1946
209.01        58.81127
209.47        52.11398
209.93        47.16266
210.39        41.22602
210.85         35.1861
211.31        30.39496
211.77        24.48555
212.23        41.96627
212.69        33.65378
213.14        46.25177
213.60        99.68972
214.06       -487.5987
214.52       -80.24644
214.98       -52.50632
215.44       -44.71257
215.90       -43.47384
216.36       -81.64836
216.81       -24.03646
217.27       -33.66818
217.73       -9.958062
218.19       -27.10942
218.65       -33.11894
219.11       -42.56379
219.57       -68.39283
220.02       -143.5171
220.48       -36.39825
220.94        2.664465
221.40        10.04768
221.86          13.154
222.32        16.78994
222.77        22.29667
223.23        30.47502
223.69        40.58495
224.15        44.68573
224.61        40.05931
225.06        32.64354
225.52         27.2871
225.98        25.36167
226.44        26.16187
226.90        28.92264
227.36        33.07267
227.81        35.58629
228.27        34.85061
228.73         32.7679
229.19        30.66518
229.65        29.01982
230.10        27.69054
230.56        26.56964
231.02        25.83639
231.48        26.23465
231.93        27.85655
232.39        30.15846
232.85        32.86028
233.31        35.91779
233.77        39.17591
234.22        42.51586
234.68        45.59918
235.14         48.2972
235.60        50.88289
236.05        53.86125
236.51        57.78192
236.97        63.03789
237.43        68.78605
237.88        73.75337
238.34        76.84097
238.80         78.9119
239.26        80.69765
239.71         82.6381
240.17        83.67703
240.63        81.42806
241.08        75.35731
241.54        68.27455
242.00        64.71367
242.46         67.7575
242.91        79.13777
243.37        102.2483
243.83        140.6421
244.28        168.1359
244.74         157.054
245.20        130.7591
245.66        109.0557
246.11        96.33324
246.57        88.87726
247.03        82.44268
247.48        72.76458
247.94        53.79013
248.40         28.2014
248.85        4.251883
249.31       -4.630627
249.77        7.056206
250.22        28.78908
250.68        51.41565
251.14         69.0431
251.59        79.72144
252.05        86.16582
252.51        91.69923
252.96        102.1817
253.42        134.3019
253.88        170.3448
254.33        167.8399
254.79        154.7095
255.25        143.6656
255.70        134.0079
256.16        126.8058
256.62         120.533
257.07        114.4868
257.53        110.1024
257.99        106.8797
258.44        104.7126
258.90        104.4471
259.35        105.1356
259.81        106.7063
260.27          108.39
260.72        109.2907
261.18        109.5893
261.63        108.9737
262.09        108.0282
262.55        106.6365
263.00        104.7123
263.46        102.6655
263.91        100.2449
264.37        97.79874
264.83        95.31098
265.28        92.81982
265.74        90.61244
266.19        88.58791
266.65        86.91161
267.11        85.43602
267.56        84.23863
268.02        83.58125
268.47        83.36654
268.93        83.46185
269.38        83.46711
269.84        82.71991
270.30        81.11848
270.75        78.86008
271.21        76.40812
271.66        74.30389
272.12        72.77129
272.57        71.55175
273.03        70.54629
273.48        69.48631
273.94        68.34901
274.39        67.17367
274.85        65.98985
275.31        64.66861
275.76        63.19829
276.22        61.71354
276.67        60.24201
277.13        59.04093
277.58        58.02801
278.04        57.19034
278.49        56.39762
278.95        55.64308
279.40        54.83049
279.86        54.06181
280.31        53.22336
280.77         52.3309
281.22         51.3192
281.68         50.3089
282.13        49.31243
282.59        48.50661
283.04        47.86456
283.50        47.42029
283.95        47.10095
284.41        46.88694
284.86         46.7321
285.32        46.67463
285.77        46.71156
286.22        46.92939
286.68        47.31774
287.13        47.79465
287.59        48.25344
288.04        48.47218
288.50        48.43717
288.95        48.15344
289.41        47.80529
289.86        47.52299
290.32          47.411
290.77        47.42957
291.22        47.51933
291.68        47.55672
292.13         47.5365
292.59        47.57183
293.04        47.80686
293.50        48.52283
293.95        49.72792
294.40        51.30916
294.86         53.0719
295.31        54.71431
295.77        56.12796
296.22        57.36015
296.68        58.46486
297.13        59.49951
297.58        60.54321
298.04        61.61376
298.49        62.75003
298.95        64.07022
299.40         65.5505
299.85        67.14938
300.31         68.8688
300.76        70.66665
301.21        72.53777
301.67        74.49474
302.12        76.35526
302.58        77.88377
303.03        78.99619
303.48        79.80469
303.94        80.62353
304.39        81.77834
304.84        83.40829
305.30        85.39867
305.75        87.50414
306.20        89.38375
306.66        90.94257
307.11        92.21427
307.57        93.36172
308.02        94.49106
308.47        95.68822
308.93        96.91568
309.38        98.06354
309.83        99.07371
310.29        99.96059
310.74        100.7548
311.19        101.5449
311.65        102.4336
312.10        103.4111
312.55        104.4239
313.00        105.4609
313.46        106.5111
313.91        107.5302
314.36        108.5173
314.82        109.3197
315.27        109.7149
315.72        109.6718
316.18        109.3153
316.63         108.854
317.08        108.6834
317.53        108.9019
317.99        109.4081
318.44        110.0552
318.89        110.5581
319.35        110.8265
319.80        110.9624
320.25        111.0377
320.70         111.175
321.16        111.3973
321.61        111.6591
322.06        111.9472
322.51        112.2745
322.97        112.5986
323.42        112.9617
323.87        113.2597
324.32        113.3449
324.78        113.1857
325.23        112.8678
325.68        112.4998
326.13        112.2838
326.59        112.2629
327.04        112.4477
327.49        112.7582
327.94        113.0787
328.39        113.3599
328.85        113.5778
329.30        113.8476
329.75        114.1916
330.20        114.6129
330.66        115.0518
331.11        115.4683
331.56        115.6675
332.01        115.6285
332.46        115.4075
332.92        115.1621
333.37        115.2722
333.82        115.7981
334.27        116.6808
334.72        117.7126
335.17        118.5146
335.63        118.9341
336.08        119.1058
336.53        119.2042
336.98        119.5894
337.43        120.3488
337.88         121.371
338.34        122.3722
338.79        122.9828
339.24         123.066
339.69        122.7536
340.14         122.358
340.59        122.3664
341.05        122.8854
341.50        123.7849
341.95        124.7612
342.40        125.3232
342.85        125.3586
343.30        125.0478
343.75        124.6726
344.20        124.6633
344.66        125.1152
345.11        125.8598
345.56        126.7146
346.01        127.3747
346.46        127.7306
346.91        127.8997
347.36        127.9138
347.81        127.8107
348.26        127.6434
348.72        127.4067
349.17         127.193
349.62        127.2358
350.07        127.5365
350.52        127.9797
350.97        128.3871
351.42        128.4513
351.87         128.105
352.32        127.5083
352.77        126.6654
353.22        125.5906
353.67        124.3642
354.13        123.0061
354.58        121.8211
355.03        121.3929
355.48        121.7776
355.93        122.8376
356.38        123.9359
356.83        123.9947
357.28         122.801
357.73        120.7017
358.18        118.4819
358.63        117.3116
359.08        117.4052
359.53        118.3667
359.98         119.529
360.43        119.7851
360.88        118.8272
361.33         117.044
361.78        114.9473
362.23         113.252
362.68        112.1566
363.13         111.445
363.58        110.8666
364.03        110.0577
364.48        108.9208
364.93         107.584
365.38        106.2938
365.83        105.3832
366.28        104.8965
366.73        104.7181
367.18        104.4865
367.63        103.6464
368.08        102.1266
368.53        100.1461
368.98        98.18824
369.43         96.9499
369.88        96.55594
370.33        96.78197
370.78        97.21282
371.23        97.12527
371.68        96.30868
372.13        95.00918
372.58        93.55139
373.03        92.40837
373.48        91.69998
373.93        91.25111
374.38        90.92345
374.83        90.51515
375.28        89.95787
375.72         89.3323
376.17        88.68924
376.62        88.02809
377.07        87.36331
377.52        86.66949
377.97        85.99696
378.42        85.44302
378.87        85.01636
379.32          84.689
379.77        84.37116
380.22        83.91424
380.67        83.29251
381.11        82.56821
381.56        81.82198
382.01           81.21
382.46        80.78709
382.91        80.50703
383.36        80.33202
383.81        80.20018
384.26        80.07182
384.71        79.95247
385.15        79.79457
385.60        79.57233
386.05        79.26457
386.50        78.87946
386.95          78.444
387.40        78.01523
387.85        77.61273
388.29        77.17651
388.74        76.79762
389.19        76.41968
389.64        76.02796
390.09        75.62257
390.54        75.18902
390.98         74.6906
391.43        74.19187
391.88        73.70356
392.33        73.25217
392.78        72.89845
393.23        72.65166
393.67        72.37873
394.12        72.14088
394.57        72.10652
395.02        72.15664
395.47        71.79145
395.91        71.14286
396.36        70.85135
396.81        70.96616
397.26         71.1707
397.71        71.28608
398.15        71.16345
398.60        70.84618
399.05        70.26298
399.50         69.6377
399.95        69.46542
400.39        69.71404
400.84        69.80692
401.29        69.62826
401.74        69.39648
402.18        69.08664
402.63        68.49572
403.08        67.80382
403.53        67.37349
403.97        67.25175
404.42        67.34295
404.87        67.50197
405.32         67.4961
405.76        67.25942
406.21        66.92947
406.66        66.59406
407.11        66.29784
407.55        66.14763
408.00        66.28048
408.45        66.58591
408.90        66.68494
409.34        66.47416
409.79        66.04777
410.24        65.53886
410.68        65.18745
411.13        65.05282
411.58        65.01014
412.03          65.014
412.47         65.0436
412.92        65.04784
413.37        65.04674
413.81        65.03536
414.26        65.05526
414.71        65.09271
415.15        65.15029
415.60        65.17838
416.05         65.1554
416.49        65.07984
416.94           64.95
417.39        64.82153
417.83        64.77197
418.28        64.81821
418.73         64.9406
419.17         65.0621
419.62        65.06998
420.07        64.94367
420.51        64.69083
420.96        64.44347
421.41        64.36707
421.85        64.43637
422.30        64.59324
422.74         64.7581
423.19        64.82248
423.64        64.82986
424.08        65.13924
424.53         65.6381
424.98        65.84376
425.42        65.68376
425.87        65.51023
426.31        65.40251
426.76        64.99353
427.21        64.51038
427.65         64.8906
428.10        65.80283
428.54        65.97856
428.99        65.47791
429.44        64.72531
429.88        64.08359
430.33        64.82657
430.77         66.3764
431.22        66.33768
431.66        64.92539
432.11        64.47685
432.56        65.08871
433.00        65.63958
433.45        65.94127
433.89        65.63931
434.34        64.93798
434.78        66.28069
435.23        65.55805
435.67         65.7804
436.12        65.79202
436.57        66.25323
437.01        66.98926
437.46        67.50237
437.90        67.17803
438.35        66.98025
438.79         66.8017
439.24        66.43387
439.68        66.00003
440.13        66.00095
440.57        66.43718
441.02        66.76476
441.46        66.88152
441.91        67.34946
442.35        67.86623
442.80        67.61281
443.24        66.75236
443.69        66.52963
444.13        66.94353
444.58        67.03899
445.02        66.76609
445.47        66.83521
445.91        67.26773
446.36        67.44379
446.80        67.24906
447.24        68.25642
447.69        67.87051
448.13        68.09586
448.58        68.17837
449.02        68.15891
449.47        68.07193
449.91        67.99283
450.36        67.97973
450.80         67.9693
451.25         67.9566
451.69        67.88823
452.13        67.76144
452.58        67.59871
453.02          67.409
453.47        67.24992
453.91        67.12263
454.36        67.01236
454.80        66.91109
455.24         66.7924
455.69        66.60061
456.13        66.35889
456.58        66.26881
457.02         65.6385
457.46        66.06908
457.91         66.5282
458.35        66.95258
458.79        67.00837
459.24        66.57483
459.68        66.04727
460.13        65.71298
460.57        64.74004
461.01        65.05828
461.46        65.10361
461.90        65.31376
462.34        65.40592
462.79        65.43583
463.23        65.37996
463.68        65.24737
464.12        65.14552
464.56        65.07311
465.01        64.84679
465.45        64.52171
465.89        64.70063
466.34        65.11269
466.78        65.22339
467.22        63.93914
467.67        63.64757
468.11        63.82631
468.55        64.00106
468.99        63.98384
469.44        63.95039
469.88        63.89147
470.32        63.75342
470.77        63.58831
471.21        63.48917
471.65        63.46571
472.10        63.50864
472.54        63.56291
472.98        63.55443
473.42        63.46254
473.87        63.37259
474.31        63.27773
474.75        63.11024
475.20        62.95411
475.64        63.03296
476.08        63.25319
476.52        63.27811
476.97        63.08136
477.41        62.73117
477.85        62.34409
478.29        62.40101
478.74        62.63754
479.18        62.67818
479.62        62.44057
480.06        62.44739
480.50        62.71442
480.95        62.00896
481.39        62.54953
481.83        61.77951
482.27        62.35619
482.72        62.21849
483.16        61.99231
483.60        62.03397
484.04        62.30845
484.48        62.31186
484.93        62.29178
485.37        62.99584
485.81         62.7176
486.25        63.77372
486.69        63.82158
487.14        61.54994
487.58        60.34289
488.02        62.35727
488.46        61.40834
488.90        61.26202
489.34         61.7678
489.79        61.49258
490.23        61.34212
490.67        60.99461
491.11        60.76609
491.55        61.01721
491.99        61.58924
492.43        61.78897
492.88        61.53677
493.32        61.25824
493.76         61.0542
494.20         60.9137
494.64        60.87148
495.08        60.91625
495.52        61.02178
495.96        61.09118
496.41        61.08367
496.85        61.12529
497.29        61.20031
497.73        60.79892
498.17        60.82037
498.61        60.45216
499.05        60.10748
499.49        60.08836
499.93        60.31322
500.37        60.50774
500.82         60.6903
501.26        60.32205
501.70        60.64911
502.14        60.97218
502.58         60.7121
503.02        60.66273
503.46        60.56252
503.90        60.39583
504.34        60.21531
504.78        60.16608
505.22        60.27345
505.66        60.49948
506.10        60.74401
506.54        60.81616
506.98        60.67498
507.42        60.44613
507.86        60.12514
508.30        59.94577
508.74        59.91976
509.18        59.99931
509.62        60.14237
510.06        60.28336
510.50        60.39066
510.94        60.48067
511.38        60.53797
511.82        60.53636
512.26        60.47231
512.70        60.34438
513.14        60.18256
513.58        60.04091
514.02        59.93729
514.46        59.86901
514.90        59.81424
515.34        59.73233
515.78        59.61969
516.22        59.49522
516.66        59.39747
517.10        59.38247
517.54         59.4572
517.98        59.59691
518.42        59.75497
518.86        59.85613
519.30        59.87889
519.74        59.84431
520.18        59.77996
520.62        59.73344
521.06        59.71708
521.50        59.70862
521.93        59.70733
522.37        59.70273
522.81         59.6962
523.25        59.70437
523.69        59.69868
524.13        59.62984
524.57        59.49981
525.01        59.32329
525.45        59.17768
525.89        59.18567
526.32        59.36087
526.76        59.65707
527.20          59.966
527.64        60.11446
528.08        60.06151
528.52        59.86805
528.96        59.61683
529.40        59.43826
529.83          59.367
530.27        59.37633
530.71        59.44076
531.15        59.53466
531.59        59.64025
532.03        59.76571
532.46        59.87624
532.90        59.93074
533.34        59.92196
533.78         59.8131
534.22        59.64668
534.66        59.59731
535.09        59.62412
535.53        59.49364
535.97        59.23612
536.41        59.11086
536.85        59.13159
537.28        59.16269
537.72        59.17396
538.16        59.17113
538.60        59.14218
539.04        59.08452
539.47        59.01831
539.91        59.00803
540.35        59.04754
540.79         59.1426
541.22        59.25607
541.66        59.24504
542.10        59.24698
542.54        59.15947
542.97         59.0625
543.41        59.04079
543.85        59.09791
544.29        59.20844
544.72        59.31656
545.16        59.36495
545.60        59.32621
546.04        59.22902
546.47        59.10377
546.91        59.01307
547.35         59.0078
547.79        59.05909
548.22        59.05861
548.66        59.26427
549.10        59.08815
549.53        58.75679
549.97        58.69888
550.41        58.69886
550.84        58.90604
551.28        59.20958
551.72        59.51433
552.15        59.63476
552.59        59.55707
553.03        59.51043
553.46        59.31269
553.90        59.28563
554.34        59.38494
554.77        59.47344
555.21        59.44994
555.65        59.80649
556.08        59.39887
556.52        59.22104
556.96        58.98846
557.39        58.82182
557.83        58.76675
558.27        58.73064
558.70        58.71387
559.14        58.97818
559.57        58.97957
560.01        59.24904
560.45        59.48404
560.88        59.38692
561.32         59.0647
561.75        58.64895
562.19        58.35639
562.63        58.62862
563.06        59.26321
563.50        59.28075
563.93        58.75946
564.37        58.42408
564.80        58.83839
565.24         58.9515
565.68        58.89214
566.11        58.87109
566.55        58.91087
566.98        58.91898
567.42        58.93557
567.85        58.97236
568.29        59.04112
568.72        59.15866
569.16        59.37871
569.60        59.42236
570.03        59.20092
570.47        59.58475
570.90        59.72728
571.34         59.0621
571.77        59.53559
572.21        59.54988
572.64         59.7352
573.08        59.56815
573.51        59.29665
573.95        60.01158
574.38        59.34349
574.82        59.82008
575.25        60.10452
575.69        60.03978
576.12         59.5209
576.56        59.33425
576.99         59.9687
577.42         59.4818
577.86        59.84962
578.29        60.23406
578.73        60.71843
579.16        59.77917
579.60        59.30604
580.03        58.94693
580.47        59.54341
580.90        59.17376
581.33        60.04138
581.77        60.54428
582.20        60.62131
582.64        60.28223
583.07        60.02456
583.51        59.56701
583.94        59.38879
584.37        59.50322
584.81        59.91245
585.24        60.10178
585.68        60.04863
586.11        60.01165
586.54        59.90229
586.98        59.16452
587.41         58.8162
587.85        59.97253
588.28        60.10338
588.71        58.85862
589.15        59.62104
589.58        59.24556
590.01         59.0905
590.45        59.08934
590.88        59.25166
591.31        59.37107
591.75        59.37025
592.18        59.16904
592.61        58.82725
593.05        59.16222
593.48        59.63667
593.91        59.31107
594.35        59.21473
594.78        58.95489
595.21        58.77926
595.65        59.48377
596.08         59.2931
596.51        59.04615
596.94        58.75615
597.38        58.62798
597.81        58.92505
598.24         58.4678
598.68          59.013
599.11        58.65002
599.54        59.60693
599.97        59.21907
600.41        58.86797
600.84        59.25096
601.27        59.00638
601.70        59.42104
602.14        59.49022
602.57        59.33458
603.00        58.95369
603.43        58.70736
603.87        58.99726
604.30        59.30953
604.73        59.10007
605.16        58.67878
605.60        58.75719
606.03        58.93694
606.46        59.26413
606.89        59.05267
607.32        58.52314
607.76        58.25493
608.19        58.33878
608.62        58.78867
609.05        58.77112
609.48        58.79244
609.92        58.48489
610.35        58.25053
610.78         59.1176
611.21        59.27065
611.64        58.98555
612.07        59.16152
612.50        59.17832
612.94        58.98847
613.37        58.59579
613.80        58.84802
614.23         58.4504
614.66         58.7268
615.09        58.34567
615.52        58.41806
615.96        58.59762
616.39        58.72308
616.82        58.77074
617.25        58.60399
617.68        58.54692
618.11        58.47406
618.54         58.4668
618.97        58.34387
619.40        58.15437
619.84        58.07512
620.27        58.12886
620.70        58.35886
621.13        58.67651
621.56        58.47104
621.99        58.12235
622.42        58.27114
622.85        58.21939
623.28        58.55221
623.71        57.98232
624.14           58.55
624.57        58.43655
625.00        58.57805
625.43        58.51492
625.86        58.39153
626.29        58.40624
626.72        58.03547
627.15        58.03822
627.58        57.76107
628.01        57.49458
628.44        57.62006
628.87        58.04344
629.30        58.11866
629.73        57.84167
630.16        57.90613
630.59        58.00783
631.02        58.09284
631.45        58.05849
631.88        57.98498
632.31        57.86065
632.74        57.93031
633.17        57.74411
633.60        57.73427
634.03        57.76645
634.46        57.85207
634.89        57.94246
635.32        57.96038
635.75        57.89358
636.18        57.75763
636.61        57.61357
637.04        57.56116
637.47         57.6255
637.89        57.76598
638.32        57.88975
638.75        57.93739
639.18         57.8948
639.61        57.55144
640.04        57.42046
640.47        57.27882
640.90        57.28824
641.33        57.39212
641.76        57.51697
642.18        57.62082
642.61        57.67375
643.04         57.5693
643.47        57.30541
643.90        57.68929
644.33        57.49409
644.76        57.60487
645.18        57.65463
645.61        57.86901
646.04        58.14256
646.47         58.0343
646.90         57.6364
647.33        57.49411
647.75        57.64453
648.18        57.74396
648.61        57.77642
649.04        57.85565
649.47        57.91007
649.89        57.96007
650.32        57.94846
650.75        57.48228
651.18        56.79123
651.61        56.92206
652.03        57.77625
652.46        57.90811
652.89        57.30724
653.32        57.37012
653.74        58.22638
654.17         57.7743
654.60        57.73904
655.03        58.10855
655.46        57.48713
655.88        57.72055
656.31        65.42262
656.74        64.91586
657.16        59.42463
657.59        57.59041
658.02        57.94248
658.45         57.7762
658.87        57.85004
659.30        57.12442
659.73        57.57485
660.15        58.20934
660.58         57.5824
661.01        57.42039
661.44        57.22503
661.86        57.31991
662.29        57.61479
662.72         57.6489
663.14        57.47803
663.57        57.59058
664.00          57.942
664.42        58.05035
664.85        57.89466
665.27        57.68648
665.70        57.50658
666.13        57.40572
666.55        57.42196
666.98        57.52555
667.41        57.67252
667.83        57.79631
668.26        57.85458
668.69        57.86105
669.11        57.84736
669.54        57.87023
669.96        57.92905
670.39        58.00133
670.82        58.06076
671.24        57.98157
671.67        57.82176
672.09        57.84488
672.52        58.02856
672.94        58.06306
673.37        57.93943
673.80        57.82656
674.22        57.76145
674.65        57.69682
675.07        57.65894
675.50         57.6525
675.92        57.67489
676.35        57.71084
676.77        57.75794
677.20        57.80833
677.62        57.86983
678.05        57.94513
678.47        58.02845
678.90        58.11699
679.32         58.1842
679.75        58.21177
680.17         58.1919
680.60        58.13515
681.02        58.06826
681.45         58.0226
681.87        58.01992
682.30        58.04277
682.72        58.08834
683.15        58.11932
683.57        58.13478
684.00         58.1422
684.42        58.14772
684.85        58.17176
685.27        58.20044
685.70        58.22714
686.12        58.23479
686.54        58.20003
686.97        58.11282
687.39         58.0624
687.82        58.01966
688.24         57.7993
688.66        57.48176
689.09        57.44396
689.51        57.68563
689.94        57.82224
690.36        57.83874
690.78        57.98135
691.21        58.24115
691.63        58.39382
692.06          58.476
692.48        58.77249
692.90        59.19284
693.33        59.35125
693.75        59.21756
694.17        58.93133
694.60        58.61362
695.02        58.42931
695.44        58.36851
695.87        58.32334
696.29        58.27292
696.71        58.02722
697.14        57.74947
697.56        58.09756
697.98        58.90372
698.41         59.2837
698.83        59.16091
699.25        59.00285
699.68        58.89058
700.10        58.81613
700.52        58.81265
700.94        58.83647
701.37        58.86415
701.79        58.96896
702.21        59.07434
702.64           59.04
703.06        58.88747
703.48         58.7084
703.90        58.50799
704.33        58.61214
704.75        58.32037
705.17        58.34898
705.59        58.48767
706.01        58.70992
706.44        58.96203
706.86        59.17189
707.28        59.29774
707.70        59.39922
708.12         59.4665
708.55        59.36303
708.97        59.14755
709.39        59.09275
709.81        59.18948
710.23        59.19071
710.66         59.0879
711.08         59.0504
711.50        59.07882
711.92        59.10877
712.34        59.13801
712.76        59.18243
713.19        59.21995
713.61        59.25816
714.03        59.27588
714.45        59.26846
714.87        59.25608
715.29        59.27226
715.71        59.32238
716.13        59.40138
716.56        59.45746
716.98        59.47946
717.40        59.43557
717.82        59.33958
718.24        59.24908
718.66        59.25624
719.08        59.37388
719.50        59.56736
719.92        59.76331
720.34        59.84193
720.76        59.77564
721.19        59.60857
721.61        59.40146
722.03        59.24367
722.45        59.17266
722.87         59.1685
723.29         59.2238
723.71        59.32655
724.13        59.45749
724.55        59.60433
724.97        59.75286
725.39        59.87833
725.81        59.96662
726.23        60.02483
726.65        60.01279
727.07        59.87212
727.49        59.61456
727.91        59.27407
728.33         58.9642
728.75        58.86277
729.17        59.00113
729.59        59.31897
730.01        59.70667
730.43         59.9674
730.85        60.03995
731.27        59.99385
731.69        59.86304
732.10        59.70383
732.52        59.54895
732.94        59.36726
733.36        59.23936
733.78        59.27055
734.20        59.46156
734.62        59.89063
735.04        60.39194
735.46        60.41116
735.88        60.03958
736.30        60.00127
736.72         60.2685
737.13        60.30896
737.55        60.07134
737.97        59.68993
738.39        59.33955
738.81        59.49755
739.23        60.08597
739.65        60.37936
740.06        60.26308
740.48        60.25763
740.90        60.32382
741.32        60.14774
741.74         59.7967
742.16         59.5761
742.57        59.54088
742.99        59.62829
743.41        59.80589
743.83        59.92215
744.25        59.98805
744.67        60.23945
745.08        60.59372
745.50        60.64005
745.92        60.36057
746.34          59.946
746.75        59.51547
747.17        59.22782
747.59        59.12255
748.01        59.16334
748.42         59.3152
748.84         59.4813
749.26        59.63064
749.68        59.78555
750.09        59.91182
750.51         59.9729
750.93        59.96138
751.35        59.87739
751.76        59.78207
752.18        59.77894
752.60        59.89183
753.01        60.10482
753.43        60.33028
753.85        60.45769
754.27        60.46159
754.68        60.38638
755.10        60.29218
755.52        60.26688
755.93         60.3219
756.35        60.41328
756.77        60.52939
757.18        60.59566
757.60        60.59495
758.02        60.71454
758.43        60.85451
758.85        60.55852
759.26          59.987
759.68        59.96076
760.10        60.45863
760.51        60.71245
760.93        60.62292
761.34         60.6037
761.76        60.67412
762.18        60.53962
762.59         60.3275
763.01         60.4589
763.42        60.90026
763.84        61.06776
764.26        60.93539
764.67        60.71085
765.09        60.52736
765.50         60.5258
765.92        60.68179
766.33        60.62857
766.75         60.3335
767.16        60.30239
767.58        60.52939
768.00        60.62392
768.41         60.6676
768.83        61.17339
769.24        61.98259
769.66         62.3546
770.07        62.23608
770.49         62.0195
770.90        61.80208
771.32         61.6294
771.73        61.53256
772.15        61.37603
772.56        61.19143
772.97        61.15456
773.39        61.23391
773.80        61.30579
774.22        61.31992
774.63        61.36066
775.05        61.40081
775.46        61.45295
775.88        61.49236
776.29        61.52804
776.70         61.5631
777.12        61.62984
777.53         61.7456
777.95        61.87936
778.36        61.99734
778.77        62.02335
779.19        61.94585
779.60        61.79079
780.02         61.6059
780.43        61.48285
780.84        61.45229
781.26        61.44748
781.67        61.45854
782.09        61.53765
782.50        61.63417
782.91        61.54597
783.33         61.3451
783.74        61.36953
784.15        61.65073
784.57        61.97626
784.98         62.3241
785.39         62.7017
785.81        63.07384
786.22        63.23563
786.63        63.50777
787.04        63.53184
787.46         63.4445
787.87        63.22172
788.28        62.99442
788.70        62.93739
789.11        63.05799
789.52        63.32908
789.93        63.61605
790.35        63.68626
790.76        63.50977
791.17        63.14878
791.58        62.73794
792.00        62.49137
792.41        62.47894
792.82        62.58231
793.23        62.72384
793.65         62.9265
794.06        63.08923
794.47        62.89404
794.88        62.49292
795.29        62.38515
795.71        62.54897
796.12        62.81814
796.53        63.06573
796.94        63.16753
797.35        63.05912
797.76        62.80288
798.18        62.52136
798.59        62.36541
799.00        62.38836
799.41        62.53261
799.82        62.76661
800.23         63.0365
800.64        63.30433
801.06        63.56993
801.47        63.79645
801.88        63.83259
802.29        63.66141
802.70        63.31754
803.11        62.94378
803.52        62.77748
803.93        62.88029
804.34        63.18908
804.75        63.58331
805.17        63.86192
805.58        63.99129
805.99        63.91129
806.40         63.6955
806.81        63.69252
807.22        63.83902
807.63        63.58603
808.04        63.03187
808.45        62.81868
808.86        63.00076
809.27        63.23755
809.68        63.45736
810.09          63.675
810.50        63.84953
810.91        63.98609
811.32        64.05312
811.73        64.00645
812.14        63.85332
812.55        63.59407
812.96        63.36745
813.37        63.41342
813.78        63.76703
814.19        64.34861
814.60        64.93655
815.01        65.18681
815.42        65.02357
815.83        64.54099
816.24        63.91658
816.65        63.50496
817.05        63.44513
817.46        63.61218
817.87        63.90796
818.28        64.14525
818.69        64.26061
819.10        64.31446
819.51        64.32205
819.92        64.30021
820.33        64.26118
820.74        64.18247
821.14        64.07327
821.55        63.98574
821.96        63.92485
822.37        63.91032
822.78        63.93939
823.19        63.99297
823.60          64.071
824.00        64.19073
824.41        64.35101
824.82        64.64749
825.23        65.06994
825.64        65.56242
826.04          66.026
826.45         66.2336
826.86        66.15383
827.27         65.8522
827.68        65.40169
828.08         64.9481
828.49        64.52974
828.90        64.13477
829.31         63.8329
829.72        63.71735
830.12        63.82906
830.53        64.13465
830.94        64.49814
831.35        64.61899
831.75        64.44391
832.16        64.00678
832.57        63.58709
832.97        63.61102
833.38        64.13747
833.79        65.01904
834.20        65.95449
834.60        66.43031
835.01        66.28315
835.42        65.70695
835.82        64.93829
836.23        64.33615
836.64        64.02892
837.04        63.92645
837.45        63.97823
837.86        64.15485
838.26        64.42296
838.67        64.76834
839.08        65.11801
839.48        65.31253
839.89        65.30222
840.29        65.12012
840.70        64.84653
841.11        64.59105
841.51        64.41137
841.92        64.25705
842.33        64.17331
842.73        64.23455
843.14        64.39821
843.54        64.70132
843.95        65.01084
844.35        65.16013
844.76        65.08231
845.17        64.81916
845.57        64.51801
845.98        64.40459
846.38        64.54846
846.79        64.87355
847.19        65.23771
847.60         65.3242
848.00        65.08245
848.41        64.59612
848.81        64.08826
849.22        63.87683
849.62        64.04881
850.03        64.48064
850.43        64.99853
850.84        65.17361
851.24        64.95607
851.65        64.45652
852.05         63.9256
852.46        63.74147
852.86        63.97448
853.27        64.46336
853.67        65.02931
854.07        65.60526
854.48        66.08736
854.88        66.60355
855.29        66.88178
855.69        66.66084
856.10        65.82006
856.50        64.55843
856.90        63.28356
857.31        62.58167
857.71        62.56776
858.12         63.0443
858.52        63.81757
858.92        64.30729
859.33        64.29298
859.73        63.98087
860.13        63.45097
860.54        62.86334
860.94        62.30814
861.34        61.71712
861.75        61.21926
862.15         61.0944
862.55        61.37411
862.96        61.98087
863.36        62.70847
863.76        63.11578
864.17         63.0919
864.57        62.77106
864.97         62.3314
865.38        62.09064
865.78        62.16108
866.18        62.40106
866.58        62.71948
866.99        62.96206
867.39        63.08194
867.79        63.13974
868.19        63.06601
868.60         62.7115
869.00        62.08186
869.40         61.2282
869.80        60.41811
870.21         60.1517
870.61        60.59484
871.01        61.52753
871.41        62.58577
871.81        63.21857
872.22        63.27304
872.62        62.90737
873.02        62.29215
873.42        61.71809
873.82        61.32311
874.22        61.05422
874.63        60.90766
875.03        60.88075
875.43        60.96416
875.83        61.16516
876.23        61.50979
876.63        62.01777
877.03        62.64995
877.44        63.34423
877.84        63.94416
878.24         64.1567
878.64        63.93059
879.04        63.36784
879.44        62.68905
879.84        62.23543
880.24         62.0942
880.64        62.17187
881.04        62.37381
881.44        62.52747
881.84        62.58201
882.24        62.62169
882.65        62.61202
883.05        62.58302
883.45        62.51408
883.85        62.37045
884.25        62.28999
884.65        62.49366
885.05        63.00114
885.45        63.76184
885.85        64.50446
886.25        64.75765
886.65        64.41021
887.05        63.59239
887.45        62.67303
887.85        62.23643
888.25        62.41578
888.65        63.04268
889.04         63.7621
889.44        63.96929
889.84        63.53733
890.24        62.66994
890.64        61.71984
891.04        61.18081
891.44        61.17607
891.84        61.58538
892.24        62.12287
892.64        62.31259
893.04        62.04173
893.44        61.44995
893.83        60.91415
894.23        61.01574
894.63        61.82406
895.03        63.14167
895.43        64.47475
895.83        64.93613
896.23        64.33064
896.63        63.03773
897.02        61.56038
897.42        60.69579
897.82        60.57451
898.22        60.98341
898.62        61.75843
899.01        62.63699
899.41        63.42188
899.81        64.19998
900.21        64.90551
900.61        65.42052
901.00        65.69778
901.40        65.68703
901.80        65.43388
902.20        65.05554
902.59        64.62079
902.99        64.15514
903.39        63.69046
903.79        63.25533
904.18        62.86602
904.58        62.55095
904.98        62.37004
905.38        62.40827
905.77        62.65181
906.17        63.08388
906.57        63.50677
906.96        63.61703
907.36        63.34293
907.76        62.78162
908.15        62.21891
908.55        62.08101
908.95        62.48273
909.34        63.29668
909.74        64.21316
910.14        64.80028
910.53        64.90943
910.93        64.65514
911.33         64.2215
911.72        63.89725
912.12        63.78971
912.52        63.80976
912.91        63.80408
913.31        63.52959
913.70         62.9646
914.10        62.23465
914.49        61.58122
914.89        61.33615
915.29        61.56865
915.68        62.15188
916.08        62.87806
916.47        63.40759
916.87        63.61946
917.26        63.61366
917.66        63.46344
918.05        63.29015
918.45        63.13799
918.84        62.98311
919.24        62.86041
919.64        62.91012
920.03        63.15526
920.42          63.539
920.82        63.92927
921.21        64.14333
921.61         64.1092
922.00        63.88988
922.40        63.53394
922.79        63.20313
923.19        62.96116
923.58         62.7863
923.98        62.66239
924.37        62.52105
924.77        62.37949
925.16        62.26064
925.55        62.22883
925.95        62.34549
926.34        62.62716
926.74        62.99358
927.13        63.45461
927.52        63.94399
927.92        64.40397
928.31         64.8423
928.70        65.16025
929.10        65.22931
929.49        65.05391
929.89        64.68194
930.28        64.23408
930.67        63.87211
931.07        63.65355
931.46        63.53301
931.85        63.54197
932.24        63.72136
932.64        64.03677
933.03        64.50548
933.42        64.90209
933.82        64.89367
934.21        64.43926
934.60        63.62299
934.99        62.80564
935.39        62.51612
935.78        62.89537
936.17        63.83452
936.56        64.91486
936.96        65.35889
937.35        64.98822
937.74        63.99535
938.13        62.91362
938.53        62.45688
938.92        62.72135
939.31        63.53403
939.70        64.45841
940.09        64.70847
940.49        64.09672
940.88        62.92921
941.27        61.71222
941.66         61.1902
942.05        61.52925
942.44        62.48902
942.84        63.70493
943.23        64.56007
943.62        64.77099
944.01        64.55256
944.40        64.06852
944.79        63.58467
945.18        63.21721
945.57        62.84494
945.97        62.55462
946.36        62.59851
946.75        62.96074
947.14        63.62669
947.53        64.30267
947.92        64.43855
948.31        63.91555
948.70        62.90674
949.09        61.82866
949.48        61.31526
949.87        61.52482
950.26        62.30156
950.65        63.32696
951.04        64.02985
951.43        64.21411
951.82        64.01156
952.21        63.70952
952.60        63.76104
952.99         64.2384
953.38        64.96215
953.77        65.59113
954.16        65.54485
954.55        64.73003
954.94        63.45862
955.33        62.08841
955.72        61.14228
956.11        60.77195
956.50        60.75768
956.89         61.1163
957.28        61.87897
957.66        62.99479
958.05        64.37685
958.44        65.51536
958.83        65.44203
959.22        64.01585
959.61        61.61641
960.00        59.11414
960.39        57.74511
960.78        57.76757
961.16        58.88054
961.55         60.5132
961.94        61.77639
962.33        62.33583
962.72        62.42057
963.11        62.23645
963.49        62.18336
963.88        62.34053
964.27        62.52837
964.66        62.60917
965.04        62.44586
965.43        62.01152
965.82        61.39774
966.21        60.72556
966.60        60.19148
966.98        59.89681
967.37        59.79016
967.76         59.8072
968.15        59.81265
968.53        59.76067
968.92        59.67941
969.31        59.60721
969.69        59.60787
970.08        59.66513
970.47        59.75249
970.86        59.81737
971.24        59.80265
971.63        59.65194
972.02        59.40608
972.40        59.12641
972.79        58.92644
973.17        58.86486
973.56        58.93008
973.95        59.05017
974.33        59.11325
974.72        59.03999
975.11        58.79013
975.49        58.61753
975.88        58.98812
976.26        60.02953
976.65        61.56128
977.04        62.88235
977.42         62.8583
977.81        61.32256
978.19        58.63936
978.58         56.1017
978.96        55.41327
979.35        56.89975
979.74        60.17472
980.12        64.19091
980.51        66.26169
980.89        65.66964
981.28        63.05653
981.66        59.78896
982.05        58.18808
982.43        58.83874
982.82        61.00165
983.20        63.98605
983.59         66.4459
983.97        67.93218
984.35        68.80572
984.74        68.96402
985.12        68.36253
985.51        67.10152
985.89        65.13687
986.28        63.11937
986.66        61.97822
987.04        62.05347
987.43         63.1487
987.81        64.69934
988.20        65.48857
988.58        65.20246
988.96        64.02071
989.35        62.64182
989.73        62.17234
990.12        62.81495
990.50        64.29269
990.88        65.67056
991.27        65.46185
991.65         63.5039
992.03        60.38877
992.42        57.34199
992.80         55.9816
993.18         56.7793
993.56        59.14319
993.95        62.18907
994.33        64.63348
994.71        65.74037
995.10        65.90834
995.48        65.22129
995.86        63.85545
996.24        62.11962
996.63        60.03329
997.01        58.13444
997.39        57.21878
997.77        57.41539
998.15         58.5527
998.54        60.27536
998.92        61.81687
999.30         62.8294
999.68         63.4468
1000.06        63.60863
1000.45        63.24326
1000.83        62.52695
1001.21        61.38723
1001.59        60.13018
1001.97        59.34364
1002.35        59.21685
1002.73        59.64458
1003.12        60.47144
1003.50        61.30087
1003.88        61.97808
1004.26        62.59035
1004.64        63.00447
1005.02        63.01947
1005.40        62.66462
1005.78        62.00411
1006.16        61.32278
1006.54        61.16691
1006.92        61.64739
1007.30        62.51674
1007.69        63.50441
1008.07        64.38377
1008.45        64.91866
1008.83        65.25513
1009.21        65.12273
1009.59        64.07007
1009.97        62.13351
1010.35        59.47477
1010.73        56.93806
1011.11        55.99986
1011.49        57.14014
1011.86        60.27506
1012.24        64.33982
1012.62         67.5872
1013.00        69.25465
1013.38        69.52575
1013.76         69.1903
1014.14        69.88363
1014.52         72.0506
1014.90        75.12973
1015.28        77.82505
1015.66        77.93698
1016.04        75.31767
1016.41        71.31478
1016.79        67.53813
1017.17        65.29983
1017.55        64.61939
1017.93        65.00885
1018.31        66.21825
1018.69        67.26733
1019.06        67.43104
1019.44        67.15098
1019.82        66.49593
1020.20        65.35209
1020.58        63.71093
1020.95        61.33923
1021.33        58.70138
1021.71        57.16132
1022.09        57.58274
1022.46        59.64841
1022.84        62.58609
1023.22        65.44518
1023.60        67.78601
1023.97        69.79036
1024.35        70.82848
1024.73        69.89844
