SpectraSmart Spectrum 2.9.0.0
--------- Device Information -----------
Spectrum Name :  反射率_0
Saving Time :  2024/05/01 16:38:19
Spectro-Module Model Name : SE2030-DUVN
Spectro-Module Serial Number : OS361AC55029948
Wavelength Start : 200
Wavelength End : 1025
Wavelength Unit : Wavelength(nm)
Spectrum Unit : Reflectance(%)
-----------Spectrum Setting ------------
Integration Time : 20ms
Average : 10
Boxcar : 0
Background removal :  enabled
linearity correction :  enabled
SC :  disabled
Intensity correction :  disabled
DWT denoise :  enabled
savitzky-golay :  disabled
FFT :  disabled
Running average :  disabled
Kalman :  disabled
High pass :  disabled
---------------BEGIN--------------------
Wavelength(nm)             Reflectance(%)
200.29               0
200.75        54.86023
201.21        441.4139
201.67       -239.2553
202.13       -90.77637
202.58       -32.30661
203.04        6.285241
203.50          30.534
203.96        38.97653
204.42        32.16181
204.88       -8.108967
205.34       -1069.884
205.80        197.6821
206.26        110.3537
206.72         29.7087
207.18       -280.1266
207.64        538.0436
208.10        225.0663
208.55        136.6902
209.01        87.78291
209.47        60.62671
209.93        46.39104
210.39        35.83611
210.85        27.78659
211.31        21.69569
211.77        12.86079
212.23        41.66203
212.69        24.12799
213.14         33.5734
213.60        78.29598
214.06       -417.4229
214.52       -74.57742
214.98       -52.47124
215.44       -48.88102
215.90       -58.54827
216.36       -251.5029
216.81         37.8948
217.27        27.25852
217.73       -71.24746
218.19       -27.19585
218.65       -33.08701
219.11       -54.04169
219.57       -122.5106
220.02       -385.4796
220.48       -170.2937
220.94       -31.73466
221.40        1.996991
221.86        14.25133
222.32        20.70724
222.77        26.06888
223.23        32.16984
223.69        38.25239
224.15        38.51857
224.61        32.62107
225.06        25.66867
225.52        21.00431
225.98         19.1979
226.44        19.58045
226.90        21.58911
227.36        25.53527
227.81        30.18729
228.27        33.30692
228.73        34.95346
229.19        35.37399
229.65        34.88011
230.10        33.67376
230.56        31.68724
231.02        29.40214
231.48         28.6613
231.93        30.04036
232.39        32.62218
232.85        35.31184
233.31        37.19044
233.77         38.2807
234.22         39.0357
234.68        39.58117
235.14        40.19337
235.60         41.0515
236.05        42.18227
236.51        43.94693
236.97        46.87679
237.43        50.68584
237.88        54.73809
238.34        57.64079
238.80        58.95206
239.26        58.70277
239.71        56.56691
240.17        51.58893
240.63        44.78633
241.08         39.6109
241.54        38.21611
242.00        40.09359
242.46        43.89149
242.91        50.44439
243.37        61.49556
243.83        80.99077
244.28        102.1836
244.74        107.4554
245.20        101.7316
245.66        93.79658
246.11        86.60099
246.57        78.92992
247.03        67.50319
247.48        48.22475
247.94        21.86683
248.40       -1.169505
248.85       -15.24063
249.31       -13.57007
249.77        2.155387
250.22        22.29691
250.68        41.28751
251.14        55.32824
251.59        63.25679
252.05        66.96204
252.51        67.50719
252.96        64.22117
253.42        63.44122
253.88        74.30456
254.33        82.18118
254.79        83.95277
255.25        82.63725
255.70        80.03168
256.16        78.07438
256.62        76.61959
257.07        75.58946
257.53        75.43638
257.99        75.49872
258.44        75.43704
258.90        75.60556
259.35        75.52679
259.81        75.48086
260.27        75.21276
260.72        74.50506
261.18        73.68385
261.63         72.4995
262.09        71.28027
262.55        69.86156
263.00        68.17344
263.46        66.49381
263.91        64.72456
264.37        63.14524
264.83        61.71696
265.28        60.40157
265.74        59.25341
266.19        58.03405
266.65        56.83733
267.11        55.60841
267.56        54.51757
268.02        53.94253
268.47        53.84779
268.93        54.06124
269.38        54.19983
269.84        53.60577
270.30        52.18949
270.75          50.194
271.21        48.03976
271.66        46.22245
272.12        44.95476
272.57        44.00938
273.03        43.35912
273.48        42.88765
273.94        42.53318
274.39        42.27729
274.85        41.96631
275.31         41.2857
275.76        40.21187
276.22        38.92507
276.67        37.59913
277.13        36.61131
277.58        35.95652
278.04        35.56015
278.49        35.27185
278.95        34.99448
279.40        34.62104
279.86        34.23473
280.31        33.77204
280.77        33.25058
281.22        32.63197
281.68        31.98994
282.13        31.31106
282.59        30.67993
283.04        30.09362
283.50        29.60245
283.95        29.22541
284.41        29.04772
284.86        29.05245
285.32         29.2114
285.77        29.46792
286.22        29.79333
286.68        30.15801
287.13        30.53062
287.59         30.8381
288.04         30.9204
288.50        30.79061
288.95        30.46806
289.41        30.12538
289.86        29.92337
290.32        29.93625
290.77           30.11
291.22        30.37612
291.68        30.60943
292.13        30.78629
292.59        30.99832
293.04        31.30851
293.50        31.85871
293.95        32.66614
294.40        33.69843
294.86        34.90218
295.31        36.20257
295.77        37.55357
296.22         38.9402
296.68        40.36574
297.13        41.82293
297.58        43.32967
298.04        44.90568
298.49        46.50012
298.95        48.07591
299.40        49.59839
299.85        51.07544
300.31        52.62485
300.76        54.40953
301.21        56.47168
301.67          58.773
302.12         61.0885
302.58         63.0844
303.03        64.64149
303.48        65.89291
303.94        67.12995
304.39        68.67805
304.84        70.67407
305.30        72.99554
305.75         75.4334
306.20        77.69487
306.66        79.68161
307.11        81.41595
307.57        83.00647
308.02        84.49737
308.47        85.96168
308.93        87.38391
309.38        88.70357
309.83        89.93204
310.29        91.09329
310.74         92.1898
311.19        93.27255
311.65         94.3878
312.10        95.51457
312.55        96.62634
313.00        97.72021
313.46        98.79581
313.91        99.82516
314.36        100.8077
314.82        101.6318
315.27        102.1386
315.72        102.3014
316.18        102.2155
316.63        102.0327
317.08        102.0562
317.53         102.364
317.99        102.8834
318.44        103.4977
318.89         103.977
319.35        104.2531
319.80        104.4112
320.25        104.5278
320.70        104.7311
321.16        105.0428
321.61        105.4202
322.06        105.8304
322.51        106.2475
322.97        106.6224
323.42        107.0049
323.87        107.3167
324.32        107.4542
324.78         107.398
325.23        107.2178
325.68        107.0043
326.13        106.9299
326.59        107.0286
327.04        107.3165
327.49        107.7208
327.94        108.1363
328.39        108.5168
328.85        108.8357
329.30        109.1985
329.75        109.6207
330.20        110.1043
330.66        110.5961
331.11        111.0642
331.56        111.3317
332.01        111.3829
332.46        111.2701
332.92        111.1436
333.37        111.3664
333.82        111.9945
334.27        112.9712
334.72        114.0921
335.17        114.9836
335.63        115.4926
336.08        115.7473
336.53        115.9173
336.98        116.3555
337.43        117.1496
337.88        118.1936
338.34        119.2114
338.79        119.8429
339.24        119.9554
339.69        119.6765
340.14        119.3193
340.59        119.3713
341.05        119.9388
341.50        120.8965
341.95        121.9286
342.40        122.5241
342.85        122.5707
343.30         122.256
343.75        121.8944
344.20        121.9667
344.66        122.5794
345.11        123.5527
345.56        124.6629
346.01        125.5333
346.46        126.0369
346.91        126.3115
347.36        126.4328
347.81        126.5118
348.26        126.6122
348.72        126.6932
349.17        126.8097
349.62         127.135
350.07        127.6525
350.52         128.274
350.97        128.8166
351.42        128.9655
351.87        128.6631
352.32        128.0672
352.77        127.2453
353.22        126.3099
353.67        125.3522
354.13        124.3667
354.58        123.5578
355.03        123.3539
355.48        123.7843
355.93         124.757
356.38        125.7451
356.83        125.8558
357.28        124.9115
357.73        123.1857
358.18        121.3518
358.63        120.4202
359.08        120.5728
359.53        121.4754
359.98        122.5252
360.43        122.7176
360.88        121.7891
361.33        120.1009
361.78        118.1566
362.23        116.6644
362.68        115.8094
363.13          115.37
363.58        115.0782
364.03         114.534
364.48        113.6201
364.93        112.4666
365.38        111.2969
365.83        110.4159
366.28         109.877
366.73        109.5811
367.18        109.2343
367.63        108.3908
368.08         107.004
368.53        105.2624
368.98        103.5836
369.43        102.5627
369.88        102.2997
370.33        102.5983
370.78        103.0792
371.23        103.0799
371.68        102.4057
372.13        101.2764
372.58         99.9861
373.03        98.97146
373.48        98.34159
373.93        97.92792
374.38        97.61578
374.83         97.2401
375.28        96.73753
375.72        96.17704
376.17        95.57048
376.62         94.8522
377.07        94.03671
377.52        93.13546
377.97        92.26627
378.42         91.6263
378.87        91.24944
379.32        91.07571
379.77        90.96789
380.22        90.70719
380.67        90.23747
381.11        89.62441
381.56        88.95847
382.01        88.41474
382.46        88.04872
382.91        87.80736
383.36        87.61324
383.81        87.34989
384.26        86.98106
384.71        86.53996
385.15        86.07339
385.60        85.70146
386.05        85.43056
386.50        85.22667
386.95        85.00925
387.40        84.67061
387.85        84.19524
388.29         83.5704
388.74        83.00066
389.19        82.58391
389.64        82.34911
390.09        82.24627
390.54        82.15204
390.98         81.9457
391.43         81.6669
391.88        81.08988
392.33        80.39077
392.78        80.42174
393.23        80.90942
393.67        80.38699
394.12        79.14204
394.57        78.72568
395.02        79.07585
395.47        78.90627
395.91        78.26992
396.36        78.05139
396.81        78.27112
397.26        78.53397
397.71        78.67117
398.15        78.56036
398.60         78.2589
399.05        77.68166
399.50        77.05646
399.95        76.90315
400.39        77.18591
400.84        77.27425
401.29        77.06762
401.74        76.86281
402.18        76.63388
402.63        76.10137
403.08         75.4228
403.53        74.99028
403.97        74.83304
404.42        74.81042
404.87        74.85432
405.32        74.81185
405.76        74.62624
406.21        74.60009
406.66        74.63587
407.11        74.10262
407.55        73.27465
408.00        73.18843
408.45        73.80508
408.90        74.30577
409.34        74.39138
409.79        73.87907
410.24        72.98831
410.68        72.51109
411.13        72.53345
411.58        72.53487
412.03        72.47447
412.47        72.56375
412.92        72.74939
413.37        72.96744
413.81        73.13982
414.26        73.21763
414.71        73.16628
415.15        73.02116
415.60        72.79825
416.05        72.59294
416.49        72.44283
416.94        72.32069
417.39        72.23312
417.83        72.16657
418.28        72.12324
418.73        72.13275
419.17        72.15511
419.62        72.12328
420.07        72.01734
420.51        71.82714
420.96        71.69504
421.41        71.69449
421.85        71.80258
422.30        72.23796
422.74        72.76588
423.19        72.62923
423.64        71.99255
424.08        72.06021
424.53        72.75716
424.98        72.97536
425.42        72.63764
425.87         72.5094
426.31        72.62723
426.76        72.33964
427.21        71.86423
427.65        72.21188
428.10        73.07905
428.54        73.34196
428.99        72.99575
429.44        72.12799
429.88        71.17485
430.33        71.80163
430.77        73.41479
431.22        73.40418
431.66        71.95477
432.11        71.38316
432.56        71.79637
433.00        72.34635
433.45        72.85091
433.89        72.51015
434.34        71.35266
434.78        73.29979
435.23        72.49106
435.67        72.79167
436.12        72.56257
436.57        72.94407
437.01        73.79089
437.46        74.11685
437.90        73.85847
438.35        73.65289
438.79        73.53955
439.24        73.20795
439.68        72.78288
440.13        72.84975
440.57        73.41245
441.02        73.75023
441.46         73.7293
441.91        74.20764
442.35        74.99145
442.80        74.10724
443.24        74.04575
443.69         73.7981
444.13        74.07159
444.58        74.16911
445.02        74.08341
445.47        74.22216
445.91        74.56506
446.36        74.89462
446.80        75.15431
447.24        75.63614
447.69        75.84421
448.13        76.00158
448.58        75.98315
449.02        75.79677
449.47        75.54922
449.91        75.40118
450.36        75.40418
450.80          75.444
451.25         75.4922
451.69        75.49497
452.13        75.43991
452.58        75.33777
453.02        75.18939
453.47        75.07545
453.91        75.00071
454.36        74.87821
454.80        74.71569
455.24        74.69106
455.69        74.69241
456.13        74.34945
456.58        73.90838
457.02        73.29911
457.46        73.72498
457.91        74.17752
458.35        74.71769
458.79        74.75198
459.24        74.22651
459.68        73.55719
460.13        73.10215
460.57        71.99008
461.01        72.37079
461.46        72.54772
461.90        72.84384
462.34        73.04897
462.79        72.01373
463.23        72.10798
463.68        72.80648
464.12        72.94323
464.56        72.46317
465.01        72.07281
465.45         71.8847
465.89        71.97966
466.34        72.13268
466.78        72.51932
467.22        71.63957
467.67        71.11653
468.11        71.34819
468.55        71.38121
468.99        71.38931
469.44        71.39918
469.88        71.42116
470.32        71.48957
470.77        71.52597
471.21        71.56337
471.65        71.55605
472.10        71.52998
472.54        71.45422
472.98        71.29358
473.42        71.04845
473.87           70.82
474.31        70.61137
474.75        70.31973
475.20        70.04543
475.64        70.18546
476.08        70.63389
476.52        70.75269
476.97        70.44982
477.41        70.66241
477.85        69.93021
478.29        70.33086
478.74        70.93613
479.18        70.97045
479.62        70.00045
480.06         69.7739
480.50        70.25829
480.95        69.50901
481.39        69.93633
481.83         69.6377
482.27        69.80804
482.72        70.16125
483.16        69.85799
483.60        69.98022
484.04        70.15101
484.48        70.07073
484.93        70.06315
485.37        70.37191
485.81        70.07671
486.25        71.22211
486.69        71.12002
487.14        68.80459
487.58        67.98589
488.02        69.63976
488.46        69.25723
488.90        68.85493
489.34        69.73296
489.79        69.45819
490.23        69.59279
490.67        69.21348
491.11        68.78986
491.55         68.9221
491.99        69.48003
492.43         69.6649
492.88        69.40099
493.32        69.19247
493.76        69.13036
494.20        69.12418
494.64        69.18081
495.08        69.36625
495.52        69.58905
495.96        69.51211
496.41        69.18349
496.85        69.12772
497.29        69.21215
497.73        69.01505
498.17        68.58252
498.61        68.17464
499.05        67.96442
499.49        68.28329
499.93        68.95339
500.37        69.16957
500.82        68.92931
501.26        68.84867
501.70        69.14708
502.14        69.17957
502.58        68.99911
503.02        68.84647
503.46        68.74725
503.90        68.59276
504.34        68.50651
504.78        68.54171
505.22        68.70656
505.66        69.02895
506.10         69.3957
506.54        69.43603
506.98        69.07317
507.42        69.07326
507.86        68.40323
508.30        68.23067
508.74         68.2642
509.18        68.45891
509.62        68.72976
510.06        68.95872
510.50        69.10413
510.94        69.19102
511.38        69.21407
511.82        69.16268
512.26        69.04331
512.70        68.84761
513.14        68.62747
513.58        68.47384
514.02        68.40844
514.46        68.42052
514.90        68.45201
515.34        68.39856
515.78        68.24506
516.22        68.03438
516.66        67.83986
517.10        67.77254
517.54        67.85094
517.98        68.02795
518.42        68.24677
518.86         68.3976
519.30        68.44322
519.74        68.46814
520.18        68.47089
520.62        68.32737
521.06        68.10765
521.50        68.08219
521.93        68.23238
522.37        68.26871
522.81        68.17999
523.25        68.14657
523.69        68.14404
524.13        68.05173
524.57        67.87321
525.01        67.64814
525.45        67.45636
525.89        67.42298
526.32        67.56679
526.76        67.83979
527.20        68.14739
527.64        68.34087
528.08        68.37679
528.52        68.29993
528.96        68.16467
529.40        68.05933
529.83        68.00659
530.27        67.99502
530.71        68.00928
531.15        68.04386
531.59        68.09201
532.03        68.15683
532.46        68.21677
532.90         68.2554
533.34         68.2663
533.78        68.19927
534.22        68.07297
534.66        68.03706
535.09        68.03725
535.53        67.82743
535.97         67.4638
536.41        67.27645
536.85        67.29273
537.28        67.34356
537.72        67.40115
538.16        67.48072
538.60        67.55939
539.04        67.63065
539.47        67.67783
539.91        67.70248
540.35        67.69371
540.79        67.70311
541.22        67.72193
541.66        67.62012
542.10        67.57323
542.54        67.46712
542.97        67.37623
543.41        67.36153
543.85         67.4195
544.29        67.53237
544.72         67.6489
545.16        67.72676
545.60        67.73795
546.04         67.6908
546.47        67.60938
546.91        67.55926
547.35        67.56322
547.79         67.5539
548.22        67.48012
548.66        67.48354
549.10        67.53696
549.53          67.161
549.97        67.00882
550.41        66.98197
550.84        67.24852
551.28        67.43787
551.72        67.53693
552.15        67.82748
552.59        68.17293
553.03        68.26404
553.46        67.69046
553.90        67.54357
554.34        67.72776
554.77        67.72698
555.21        67.47617
555.65        67.88508
556.08        67.61887
556.52        67.47961
556.96        67.15561
557.39        67.01058
557.83        67.08578
558.27        67.14379
558.70        67.14108
559.14        67.37853
559.57        67.26447
560.01        67.40565
560.45        67.52993
560.88        67.53551
561.32         67.4668
561.75        67.04003
562.19        66.52108
562.63        66.87628
563.06        67.84498
563.50        67.82001
563.93        66.92281
564.37        66.64924
564.80        67.10342
565.24        67.38466
565.68        67.41554
566.11        67.43638
566.55        67.46072
566.98        67.32624
567.42         67.1612
567.85        67.26474
568.29        67.58081
568.72        67.69336
569.16        67.68874
569.60        67.63965
570.03        67.43982
570.47         67.8157
570.90        67.85801
571.34        66.98434
571.77        67.44931
572.21         67.4323
572.64        67.73038
573.08         67.2806
573.51        67.46111
573.95        68.11157
574.38        67.64354
574.82        67.76614
575.25        68.09757
575.69        68.26559
576.12         68.0426
576.56        67.71835
576.99        67.78156
577.42        67.63492
577.86        68.35682
578.29        68.09604
578.73        68.94497
579.16        67.50069
579.60        67.06421
580.03        66.91353
580.47          67.689
580.90        67.28283
581.33        68.20431
581.77        68.14727
582.20        68.50537
582.64        68.30511
583.07        68.23067
583.51        67.83643
583.94        67.53171
584.37        67.73743
584.81        68.42125
585.24        68.40502
585.68         67.7039
586.11         67.9891
586.54        68.05953
586.98        67.30147
587.41        66.86277
587.85        67.65928
588.28        67.91764
588.71        66.84071
589.15        67.94756
589.58        66.90854
590.01        67.01723
590.45        67.02872
590.88         67.5144
591.31        67.65709
591.75        67.35394
592.18        67.18579
592.61        67.00758
593.05        67.17919
593.48        67.21674
593.91        67.67697
594.35        67.02155
594.78        66.90158
595.21        66.82247
595.65        67.39014
596.08        67.22268
596.51        67.06153
596.94        66.61132
597.38        66.55384
597.81        66.96012
598.24         66.8313
598.68        67.17267
599.11        66.84498
599.54        68.15434
599.97        67.56069
600.41        67.11341
600.84        67.30332
601.27        67.23661
601.70        67.74293
602.14        67.93851
602.57        67.75622
603.00         67.2014
603.43        66.87872
603.87        67.29743
604.30        67.28905
604.73         67.0518
605.16        66.82675
605.60        66.65135
606.03        67.05827
606.46        67.55794
606.89        67.42127
607.32        66.67168
607.76         66.4578
608.19        66.79155
608.62        67.36707
609.05        67.21487
609.48        67.16708
609.92          66.638
610.35         66.4529
610.78        67.61286
611.21         67.8363
611.64        67.25558
612.07        67.21868
612.50        67.65809
612.94        67.63636
613.37        67.17037
613.80        67.11633
614.23        66.88753
614.66        67.22487
615.09        66.88667
615.52        67.03159
615.96        67.27387
616.39        67.33327
616.82        67.20006
617.25        67.20676
617.68         67.3312
618.11        67.21732
618.54          66.914
618.97        66.77063
619.40        66.84974
619.84        66.85223
620.27        66.76074
620.70        67.08083
621.13         67.7548
621.56        67.00622
621.99        66.65352
622.42        66.74261
622.85        66.89759
623.28         66.8643
623.71        66.76293
624.14        67.31847
624.57        67.08091
625.00         67.3159
625.43        67.49049
625.86        67.34827
626.29        67.13289
626.72         66.6292
627.15        66.71687
627.58         66.5737
628.01        66.44868
628.44        66.43092
628.87        66.50924
629.30        66.62613
629.73        66.74657
630.16        66.84538
630.59        66.89932
631.02        66.90538
631.45        66.86708
631.88        66.80076
632.31        66.71556
632.74        66.60842
633.17        66.51023
633.60        66.45808
634.03        66.45913
634.46        66.54227
634.89        66.66411
635.32        66.66387
635.75        66.56126
636.18        66.56207
636.61        66.65825
637.04        66.67437
637.47         66.6097
637.89        66.56292
638.32        66.50819
638.75        66.43784
639.18        66.36533
639.61        66.11501
640.04        66.06248
640.47        65.96565
640.90        65.93975
641.33        65.95357
641.76         65.9788
642.18        66.06163
642.61        66.19203
643.04        66.21413
643.47        66.06543
643.90         66.5844
644.33        66.33401
644.76        66.36593
645.18        66.31189
645.61        66.52023
646.04        66.88663
646.47        66.86471
646.90        66.51722
647.33        66.39617
647.75        66.52688
648.18        66.58253
648.61        66.54811
649.04         66.4995
649.47        66.42821
649.89        66.45625
650.32          66.519
650.75        66.27475
651.18        65.85511
651.61        65.87756
652.03        66.34395
652.46        66.55382
652.89        66.37847
653.32        66.34174
653.74        66.67055
654.17        65.79227
654.60        66.23603
655.03        66.85278
655.46        65.92238
655.88        66.54169
656.31        73.98325
656.74        72.38518
657.16        66.28529
657.59        64.93224
658.02        66.60594
658.45        66.70756
658.87         66.7318
659.30        65.82951
659.73        65.64687
660.15        66.55791
660.58        66.33671
661.01        66.24007
661.44        65.68481
661.86        65.79583
662.29        66.47359
662.72        66.74994
663.14        66.60344
663.57        66.56931
664.00        66.68114
664.42        66.67629
664.85          66.569
665.27        66.43345
665.70        66.31627
666.13        66.28056
666.55        66.34815
666.98        66.47968
667.41        66.63969
667.83        66.77612
668.26        66.85049
668.69        66.87531
669.11        66.86465
669.54        66.86543
669.96        66.87852
670.39        66.83846
670.82        66.77129
671.24        66.73591
671.67        66.75382
672.09        66.84016
672.52        66.95788
672.94         66.9575
673.37        66.82983
673.80        66.64086
674.22        66.45385
674.65        66.32202
675.07         66.2883
675.50        66.31993
675.92        66.40432
676.35         66.5097
676.77        66.62054
677.20        66.73638
677.62        66.83603
678.05        66.87127
678.47        66.83533
678.90        66.74723
679.32        66.63506
679.75         66.5695
680.17        66.55944
680.60         66.5888
681.02        66.64437
681.45        66.66949
681.87        66.66178
682.30        66.68156
682.72        66.73064
683.15        66.65012
683.57        66.50514
684.00        66.57283
684.42        66.81746
684.85        66.93612
685.27        66.88914
685.70        66.89169
686.12        66.91611
686.54        66.76112
686.97        66.46164
687.39        66.33163
687.82         66.3549
688.24        66.17717
688.66        65.88523
689.09        66.00507
689.51        66.48116
689.94         66.7331
690.36         66.7189
690.78        66.73434
691.21        66.83809
691.63        66.94389
692.06        67.09742
692.48        67.46732
692.90        67.92041
693.33        68.08095
693.75        67.90675
694.17        67.50508
694.60        67.05096
695.02        66.82757
695.44        66.83707
695.87         66.9038
696.29        66.95869
696.71        66.76814
697.14        66.47575
697.56        66.73701
697.98        67.43627
698.41        67.78329
698.83        67.71874
699.25        67.67903
699.68        67.68847
700.10        67.65735
700.52         67.5967
700.94        67.48656
701.37        67.36185
701.79        67.40353
702.21        67.54878
702.64        67.59922
703.06        67.53831
703.48        67.40524
703.90        67.18556
704.33        67.28207
704.75        66.89413
705.17        66.84755
705.59        66.91205
706.01        67.05373
706.44        67.25103
706.86        67.48792
707.28        67.72333
707.70        68.00949
708.12        68.27192
708.55        68.23801
708.97        67.96233
709.39        67.82689
709.81        67.85548
710.23        67.79159
710.66        67.64655
711.08        67.61373
711.50        67.68958
711.92         67.7832
712.34        67.88297
712.76        68.01675
713.19        68.12975
713.61        68.17818
714.03        68.13076
714.45        67.99653
714.87        67.84828
715.29        67.80321
715.71        67.88373
716.13        68.06175
716.56        68.23389
716.98        68.30891
717.40         68.2267
717.82         68.0286
718.24        67.81538
718.66        67.74607
719.08        67.85358
719.50        68.08403
719.92        68.33679
720.34        68.44965
720.76        68.38096
721.19        68.18527
721.61         67.9474
722.03        67.79253
722.45        67.76508
722.87        67.83432
723.29        67.95571
723.71        68.05746
724.13        68.11042
724.55        68.12499
724.97        68.14512
725.39          68.229
725.81        68.38168
726.23        68.59945
726.65        68.78954
727.07        68.72515
727.49        68.51846
727.91        68.12067
728.33        67.72682
728.75        67.56749
729.17        67.68991
729.59         68.0537
730.01        68.50418
730.43        68.68067
730.85        68.55545
731.27        68.44019
731.69        68.37235
732.10        68.22161
732.52        68.02481
732.94        67.86825
733.36        67.81312
733.78         67.9042
734.20        68.13762
734.62        68.51347
735.04        68.91416
735.46        69.07993
735.88         69.0078
736.30        68.91628
736.72        68.82671
737.13        68.70943
737.55        68.58156
737.97        68.36121
738.39        68.15134
738.81        68.45943
739.23        69.12643
739.65        69.20314
740.06        68.71281
740.48        68.59756
740.90        68.85423
741.32        68.97389
741.74         68.9129
742.16        68.87769
742.57        68.87125
742.99        68.82963
743.41        68.79678
743.83        68.81803
744.25        68.90143
744.67        69.06336
745.08        69.24628
745.50          69.256
745.92        69.08107
746.34        68.78242
746.75        68.45509
747.17        68.25236
747.59        68.19511
748.01        68.31811
748.42        68.54276
748.84        68.54477
749.26        68.37344
749.68        68.41602
750.09        68.66615
750.51        68.84972
750.93        68.94126
751.35        69.06363
751.76        69.21086
752.18        69.32182
752.60        69.39335
753.01        69.44455
753.43        69.45679
753.85        69.46046
754.27        69.46648
754.68         69.4647
755.10        69.48119
755.52        69.55496
755.93        69.67845
756.35          69.827
756.77        69.95136
757.18        69.98623
757.60        69.94038
758.02        69.84879
758.43        69.66224
758.85        69.67541
759.26        69.20631
759.68        69.21565
760.10        69.49626
760.51        69.79181
760.93        69.93575
761.34         69.9996
761.76        69.96582
762.18        69.44381
762.59        68.74426
763.01        68.96552
763.42         69.9951
763.84        70.38136
764.26        70.03631
764.67        69.62559
765.09        69.36536
765.50        69.43858
765.92        69.75877
766.33        69.60467
766.75        68.99594
767.16         68.9058
767.58        69.36264
768.00        69.74923
768.41        70.02477
768.83        70.55429
769.24        71.17782
769.66         71.3262
770.07        71.05075
770.49        70.77556
770.90        70.63655
771.32          70.735
771.73        70.98683
772.15        71.00226
772.56        70.76479
772.97        70.53223
773.39        70.36866
773.80        70.30908
774.22        70.34603
774.63        70.51408
775.05        70.71808
775.46        70.87376
775.88        70.92018
776.29        70.90847
776.70        70.86717
777.12        70.87148
777.53        70.94859
777.95        71.03455
778.36        71.11103
778.77        71.09965
779.19        70.98859
779.60        70.91006
780.02        70.83617
780.43        70.55253
780.84        70.19843
781.26        70.10404
781.67        70.27706
782.09        70.68739
782.50        71.09553
782.91        70.77051
783.33        69.94505
783.74        69.79372
784.15        70.41889
784.57        71.11505
784.98        71.74013
785.39        72.32527
785.81        72.78231
786.22        72.86278
786.63        73.01299
787.04        72.94663
787.46        72.84921
787.87        72.65712
788.28        72.46662
788.70        72.38597
789.11        72.40539
789.52        72.55753
789.93        72.73379
790.35        72.67561
790.76         72.4031
791.17        72.10693
791.58        71.87401
792.00        71.73164
792.41        71.73146
792.82        71.80899
793.23        71.92876
793.65        72.23509
794.06        72.59528
794.47        72.46418
794.88        71.99629
795.29        71.87152
795.71        72.06406
796.12        72.31708
796.53        72.50508
796.94        72.57249
797.35        72.46597
797.76         72.2262
798.18        71.98003
798.59        71.88109
799.00        71.97697
799.41        72.20727
799.82        72.51007
800.23        72.77876
800.64        72.96574
801.06        73.08436
801.47        73.13827
801.88        73.03819
802.29        72.78673
802.70        72.39393
803.11         72.0041
803.52        71.85373
803.93        72.01051
804.34        72.42894
804.75        72.92757
805.17         73.2754
805.58        73.44466
805.99        73.13581
806.40        72.57567
806.81         72.9327
807.22        73.91325
807.63        73.61915
808.04        72.22778
808.45        71.67013
808.86        72.08061
809.27          72.371
809.68         72.4343
810.09        72.60725
810.50        72.85175
810.91        73.07486
811.32        73.24016
811.73        73.29432
812.14        73.23244
812.55        73.07464
812.96        72.91765
813.37        72.92072
813.78        73.12074
814.19        73.47518
814.60        73.86447
815.01        74.09995
815.42        74.13609
815.83         74.0197
816.24        73.83413
816.65        73.74052
817.05        73.79391
817.46        73.91396
817.87        74.04886
818.28        74.08128
818.69        73.98092
819.10        73.78576
819.51        73.55373
819.92        73.38791
820.33        73.32844
820.74        73.34714
821.14        73.38843
821.55        73.39647
821.96        73.34403
822.37        73.26782
822.78        73.21283
823.19        73.25037
823.60         73.4052
824.00        73.67071
824.41         73.9696
824.82        74.29056
825.23        74.59774
825.64        74.86555
826.04        75.09431
826.45        75.21086
826.86        75.22593
827.27        75.15873
827.68        74.96627
828.08        74.60293
828.49        74.05647
828.90        73.37896
829.31        72.75344
829.72        72.45296
830.12        72.57488
830.53        73.03014
830.94        73.60869
831.35        73.87058
831.75        73.71529
832.16        73.21674
832.57        72.71568
832.97         72.7286
833.38        73.33421
833.79         74.3475
834.20         75.4183
834.60        75.95894
835.01        75.77737
835.42        75.09687
835.82        74.19047
836.23        73.47041
836.64        73.08273
837.04        72.92725
837.45        72.93107
837.86        73.03869
838.26        73.21037
838.67        73.43562
839.08         73.6723
839.48        73.80341
839.89        73.78825
840.29        73.65642
840.70        73.43845
841.11        73.16345
841.51        72.88017
841.92        72.56163
842.33         72.3418
842.73        72.44089
843.14        72.84148
843.54        73.53846
843.95        74.27616
844.35        74.69353
844.76        74.65429
845.17        74.24374
845.57        73.71297
845.98        73.45659
846.38         73.5927
846.79        74.00068
847.19        74.45034
847.60        74.46062
848.00        73.95955
848.41        73.10598
848.81        72.25436
849.22        71.91068
849.62        72.20444
850.03        72.95033
850.43        73.87131
850.84        74.33804
851.24        74.23757
851.65        73.71722
852.05        73.09708
852.46        72.87026
852.86        73.13706
853.27        73.69089
853.67        74.30732
854.07        74.88707
854.48        75.31191
854.88        75.75492
855.29        75.93321
855.69        75.61044
856.10        74.67189
856.50        73.31097
856.90        71.98744
857.31        71.37163
857.71        71.57621
858.12        72.37398
858.52        73.45499
858.92         73.9914
859.33        73.70472
859.73        72.89838
860.13        71.81341
860.54        70.85992
860.94        70.20165
861.34        69.70049
861.75        69.43594
862.15        69.60038
862.55        70.16873
862.96          71.089
863.36        72.09073
863.76        72.62862
864.17        72.56618
864.57        72.03191
864.97        71.31396
865.38         70.9227
865.78        71.02618
866.18        71.46301
866.58        71.98425
866.99        72.14466
867.39        71.85992
867.79        71.30302
868.19        70.67619
868.60        70.21875
869.00        69.99941
869.40        69.93969
869.80        70.04609
870.21        70.33263
870.61        70.80354
871.01        71.37877
871.41        71.88288
871.81         72.0555
872.22        71.84344
872.62        71.32124
873.02        70.64146
873.42        70.07089
873.82        69.72496
874.22        69.57538
874.63        69.58422
875.03        69.67159
875.43        69.80819
875.83        70.01133
876.23        70.32124
876.63        70.79295
877.03        71.40385
877.44        72.07972
877.84        72.68452
878.24        72.95599
878.64         72.8342
879.04         72.3953
879.44        71.82861
879.84        71.42355
880.24        71.25965
880.64         71.2795
881.04        71.37066
881.44        71.33315
881.84        71.12598
882.24        70.82832
882.65        70.53615
883.05        70.52056
883.45        70.79018
883.85        71.23285
884.25        71.73406
884.65        72.14856
885.05        72.43546
885.45        72.64622
885.85        72.75318
886.25        72.71551
886.65        72.53645
887.05        72.20637
887.45        71.86385
887.85        71.72658
888.25        71.84045
888.65         72.1792
889.04        72.52963
889.44        72.51331
889.84        72.07458
890.24        71.31199
890.64        70.55609
891.04         70.2857
891.44        70.58566
891.84        71.34437
892.24        72.15273
892.64         72.3136
893.04         71.6912
893.44        70.51839
893.83        69.35715
894.23        69.06711
894.63        69.78396
895.03        71.23495
895.43         72.8569
895.83        73.62004
896.23        73.24136
896.63        72.11654
897.02        70.71435
897.42        69.80468
897.82        69.52052
898.22        69.66611
898.62        70.10618
899.01        70.65108
899.41        71.14272
899.81        71.66985
900.21        72.24329
900.61        72.85228
901.00        73.46036
901.40        73.98929
901.80         74.3281
902.20        74.34486
902.59        74.05295
902.99        73.52986
903.39        72.95854
903.79        72.62895
904.18        72.59911
904.58        72.78695
904.98        73.09315
905.38        73.37074
905.77        73.54658
906.17        73.68897
906.57        73.68336
906.96        73.35784
907.36        72.70784
907.76        71.81995
908.15        70.99191
908.55        70.66122
908.95        70.94659
909.34        71.72667
909.74        72.70605
910.14        73.46309
910.53        73.82933
910.93        73.89827
911.33        73.76063
911.72        73.56965
912.12        73.41035
912.52        73.22894
912.91        72.99057
913.31        72.65205
913.70         72.2401
914.10        71.81334
914.49        71.50604
914.89        71.48051
915.29         71.7595
915.68        72.27674
916.08        72.86885
916.47        73.27846
916.87        73.41788
917.26        73.35547
917.66        73.18067
918.05        73.03735
918.45        72.96741
918.84        72.96111
919.24        72.99853
919.64        73.12581
920.03        73.35314
920.42        73.65398
920.82         73.9772
921.21        74.26367
921.61        74.45653
922.00        74.56042
922.40        74.55645
922.79        74.50212
923.19        74.39803
923.58        74.25237
923.98        74.02051
924.37        73.56559
924.77        72.93161
925.16        72.17208
925.55        71.50021
925.95        71.24457
926.34        71.51303
926.74        72.15611
927.13        73.04755
927.52        73.88003
927.92        74.51192
928.31        75.00741
928.70        75.30917
929.10        75.36835
929.49        75.21701
929.89        74.85088
930.28        74.38245
930.67        73.96763
931.07        73.66175
931.46        73.44789
931.85        73.34998
932.24        73.38731
932.64        73.53704
933.03        73.82977
933.42        74.09007
933.82        74.05965
934.21        73.70229
934.60        73.07565
934.99         72.4772
935.39        72.33566
935.78        72.76631
936.17        73.67213
936.56        74.66815
936.96         75.0544
937.35        74.68147
937.74        73.71233
938.13        72.63757
938.53          72.103
938.92        72.19553
939.31        72.78442
939.70        73.48821
940.09        73.62395
940.49        73.03651
940.88        71.98219
941.27        70.93778
941.66        70.60954
942.05        71.14578
942.44        72.33176
942.84        73.72115
943.23        74.57897
943.62        74.59055
944.01        73.99643
944.40        73.14978
944.79         72.6169
945.18        72.56972
945.57        72.81034
945.97        73.18235
946.36        73.54932
946.75        73.80903
947.14        74.04854
947.53        74.22911
947.92        74.24985
948.31          74.104
948.70        73.80868
949.09        73.49274
949.48        73.36414
949.87        73.48219
950.26        73.82477
950.65        74.28653
951.04        74.66953
951.43        74.89437
951.82         74.9645
952.21        75.00612
952.60        75.23568
952.99        75.65748
953.38         76.1745
953.77        76.51987
954.16         76.2361
954.55        75.28215
954.94        73.92938
955.33        72.51194
955.72        71.51741
956.11        71.09495
956.50        71.06288
956.89        71.44115
957.28        72.26345
957.66        73.47413
958.05        74.92816
958.44        76.16811
958.83        76.30454
959.22        75.19445
959.61        73.22225
960.00        71.03959
960.39        69.57001
960.78        69.05247
961.16        69.25471
961.55        70.01662
961.94        71.16342
962.33         72.5151
962.72        74.11549
963.11        75.55052
963.49        76.06776
963.88        75.45203
964.27        73.96503
964.66        72.16999
965.04        70.87361
965.43        70.25411
965.82        70.10349
966.21        70.26482
966.60        70.41522
966.98        70.43626
967.37        70.45294
967.76        70.44292
968.15        70.31365
968.53        70.07397
968.92        69.68584
969.31        69.31535
969.69        69.27615
970.08        69.57375
970.47        70.11324
970.86        70.65849
971.24        70.79292
971.63        70.34388
972.02         69.5076
972.40        68.46561
972.79        67.51791
973.17        66.81852
973.56        66.32989
973.95        66.09258
974.33        66.16488
974.72        66.48983
975.11        67.02755
975.49        67.83807
975.88        68.94195
976.26        70.29891
976.65        71.75188
977.04        72.85452
977.42        72.92168
977.81        71.86812
978.19        69.89485
978.58        67.98763
978.96        67.38916
979.35        68.33859
979.74         70.6061
980.12        73.47679
980.51        74.89674
980.89        74.41761
981.28        72.47827
981.66        70.15176
982.05        69.25655
982.43        70.21344
982.82        72.42873
983.20        75.25303
983.59        77.39816
983.97        78.48811
984.35         78.8237
984.74        78.46995
985.12        77.67778
985.51        76.57961
985.89        75.05845
986.28        73.50488
986.66        72.40019
987.04        71.98949
987.43        72.23168
987.81        72.80373
988.20        72.89433
988.58        72.36263
988.96        71.28064
989.35        70.28728
989.73        70.39195
990.12        71.69785
990.50        73.90187
990.88        75.95782
991.27        76.19247
991.65        74.37849
992.03        71.15135
992.42        67.73089
992.80        65.73451
993.18        65.69854
993.56        67.07252
993.95        69.20488
994.33        71.24081
994.71        72.55406
995.10        73.41904
995.48        73.66975
995.86        73.02302
996.24        71.59724
996.63        69.50301
997.01         67.3056
997.39        65.86242
997.77        65.36975
998.15        65.66376
998.54        66.48309
998.92         67.2923
999.30        67.84189
999.68        68.23297
1000.06         68.4735
1000.45        68.54451
1000.83        68.59155
1001.21        68.53918
1001.59        68.34283
1001.97         67.9888
1002.35         67.5421
1002.73        67.04778
1003.12        66.86639
1003.50        67.48619
1003.88        68.92797
1004.26        70.93986
1004.64        72.91496
1005.02        73.98071
1005.40        73.97672
1005.78        73.15864
1006.16        71.95882
1006.54        71.18037
1006.92        71.08691
1007.30         71.4054
1007.69        71.86123
1008.07        72.23309
1008.45        72.31008
1008.83        72.27557
1009.21        72.04214
1009.59        71.41196
1009.97        70.42583
1010.35        69.14303
1010.73        67.98479
1011.11        67.71156
1011.49         68.5687
1011.86        70.57116
1012.24        73.06616
1012.62        75.21463
1013.00        76.62164
1013.38        77.36749
1013.76        77.76636
1014.14        78.53521
1014.52        79.82538
1014.90        81.28026
1015.28        82.33469
1015.66        82.08116
1016.04         80.5185
1016.41        78.33475
1016.79         76.1228
1017.17        74.11118
1017.55        72.15373
1017.93        69.81587
1018.31        67.40308
1018.69        66.38597
1019.06        67.33134
1019.44        69.52771
1019.82        71.38342
1020.20        71.47827
1020.58        69.81549
1020.95        66.57743
1021.33        62.61472
1021.71        60.42271
1022.09        61.50483
1022.46         65.1546
1022.84        69.98264
1023.22        74.22777
1023.60        77.25142
1023.97        79.52771
1024.35        80.61096
1024.73        79.78817
