SpectraSmart Spectrum 2.9.0.0
--------- Device Information -----------
Spectrum Name :  反射率_0
Saving Time :  2024/05/01 16:34:24
Spectro-Module Model Name : SE2030-DUVN
Spectro-Module Serial Number : OS361AC55029948
Wavelength Start : 200
Wavelength End : 1025
Wavelength Unit : Wavelength(nm)
Spectrum Unit : Reflectance(%)
-----------Spectrum Setting ------------
Integration Time : 20ms
Average : 10
Boxcar : 0
Background removal :  enabled
linearity correction :  enabled
SC :  disabled
Intensity correction :  disabled
DWT denoise :  enabled
savitzky-golay :  disabled
FFT :  disabled
Running average :  disabled
Kalman :  disabled
High pass :  disabled
---------------BEGIN--------------------
Wavelength(nm)             Reflectance(%)
200.29               0
200.75        90.28603
201.21        283.0962
201.67       -74.96085
202.13       -8.843754
202.58         11.9449
203.04        24.18148
203.50        31.58191
203.96        34.57877
204.42        34.09718
204.88        27.35421
205.34       -137.7436
205.80        48.87296
206.26        21.96059
206.72       -22.43353
207.18       -243.2312
207.64        398.5284
208.10        176.8969
208.55        124.1124
209.01        97.05811
209.47        79.45244
209.93         66.1038
210.39         52.8991
210.85        41.60435
211.31        35.89213
211.77        41.48285
212.23       -62.15925
212.69       -2.170577
213.14        7.940219
213.60         31.4345
214.06       -202.3235
214.52       -37.38808
214.98       -22.47795
215.44       -11.36898
215.90        12.60802
216.36        344.7586
216.81       -160.3093
217.27       -179.1197
217.73        242.6086
218.19        13.52955
218.65       -16.93449
219.11       -44.14108
219.57       -111.1211
220.02       -354.6685
220.48       -155.9467
220.94       -28.62363
221.40        2.745807
221.86        14.31102
222.32        20.48207
222.77        25.79915
223.23        32.12755
223.69        38.97223
224.15        40.79668
224.61        36.44719
225.06        30.26792
225.52        26.21263
225.98        25.51539
226.44        27.62741
226.90         32.1526
227.36        38.20756
227.81        41.13264
228.27        38.97287
228.73        34.83376
229.19        30.94995
229.65        28.13993
230.10         25.9962
230.56        24.03043
231.02        22.40108
231.48        22.09368
231.93        23.31067
232.39        25.43667
232.85        27.70568
233.31        29.51627
233.77        30.81967
234.22         31.8421
234.68        32.52526
235.14        32.95705
235.60        33.23841
236.05        33.35794
236.51        33.52553
236.97        34.31565
237.43         35.8797
237.88        37.85707
238.34        39.45292
238.80        40.33296
239.26        40.45368
239.71        40.05217
240.17         37.9333
240.63        31.79167
241.08         22.7443
241.54        14.50022
242.00        10.80582
242.46        13.74414
242.91        24.50393
243.37        46.09038
243.83        84.18327
244.28        119.4394
244.74        120.9751
245.20         104.607
245.66        87.38454
246.11         73.9654
246.57        61.41332
247.03        44.04913
247.48        17.66127
247.94       -11.55146
248.40       -28.54886
248.85       -30.24842
249.31       -17.19858
249.77        1.319571
250.22        17.77766
250.68        31.04366
251.14        39.31048
251.59         41.6027
252.05        38.21853
252.51        25.74751
252.96       -5.443336
253.42       -42.90309
253.88       -21.50738
254.33        28.73738
254.79        54.48493
255.25        61.04152
255.70        59.63044
256.16        56.44705
256.62        53.62622
257.07         52.5817
257.53        53.19489
257.99        54.15826
258.44        54.79216
258.90         54.9903
259.35        54.49387
259.81        53.79575
260.27        52.90397
260.72        51.90155
261.18        51.09428
261.63        50.19491
262.09        49.34956
262.55        48.37996
263.00        47.20214
263.46        45.98943
263.91        44.69491
264.37        43.51276
264.83        42.41906
265.28        41.40331
265.74        40.43373
266.19        39.24747
266.65         37.9317
267.11        36.49018
267.56        35.20567
268.02        34.60301
268.47        34.69427
268.93        35.26257
269.38        35.84869
269.84        35.65419
270.30        34.54184
270.75        32.78594
271.21        30.84511
271.66        29.29862
272.12        28.36958
272.57        27.81925
273.03        27.55445
273.48        27.38676
273.94          27.233
274.39        27.12662
274.85        26.98013
275.31        26.61148
275.76        26.00428
276.22         25.2434
276.67        24.43207
277.13        23.80721
277.58        23.36425
278.04        23.07225
278.49        22.82539
278.95        22.55729
279.40        22.20703
279.86        21.84084
280.31        21.45653
280.77        21.11448
281.22        20.79088
281.68        20.50866
282.13        20.21101
282.59        19.88566
283.04        19.51739
283.50        19.15778
283.95        18.85254
284.41        18.70975
284.86        18.73162
285.32        18.87988
285.77        19.09429
286.22        19.31483
286.68        19.52258
287.13        19.71619
287.59        19.87992
288.04        19.94713
288.50        19.93853
288.95        19.84259
289.41        19.75795
289.86        19.77023
290.32          19.917
290.77        20.17101
291.22         20.4747
291.68        20.72737
292.13        20.91987
292.59        21.13071
293.04        21.41756
293.50        21.91211
293.95        22.63002
294.40        23.53423
294.86        24.59555
295.31        25.77721
295.77        27.03671
296.22        28.36472
296.68        29.70212
297.13        30.95328
297.58        32.13176
298.04         33.2961
298.49        34.51473
298.95        35.92841
299.40        37.53848
299.85        39.28535
300.31        41.15422
300.76        43.12546
301.21        45.19051
301.67        47.36399
302.12        49.50684
302.58        51.41467
303.03         53.0076
303.48        54.36652
303.94        55.71635
304.39        57.31407
304.84        59.27697
305.30        61.52045
305.75        63.88351
306.20        66.13135
306.66        68.17662
307.11        70.02215
307.57        71.74499
308.02         73.3658
308.47         74.9385
308.93        76.45045
309.38        77.84305
309.83        79.12042
310.29        80.30603
310.74        81.41002
311.19        82.48607
311.65        83.58723
312.10        84.70583
312.55        85.82232
313.00        86.94841
313.46        88.10374
313.91        89.26339
314.36        90.41552
314.82        91.43766
315.27        92.14977
315.72        92.50817
316.18        92.59866
316.63        92.55769
317.08        92.66426
317.53        92.99489
317.99        93.48584
318.44        94.04266
318.89        94.47636
319.35        94.73718
319.80        94.91084
320.25        95.06336
320.70        95.30052
321.16        95.64058
321.61         96.0437
322.06        96.50087
322.51        97.02311
322.97        97.56284
323.42        98.14668
323.87        98.64591
324.32        98.87243
324.78        98.79012
325.23        98.49676
325.68        98.13378
326.13        97.95831
326.59        98.02869
327.04        98.32288
327.49        98.76082
327.94        99.21935
328.39        99.63937
328.85        100.0204
329.30        100.4037
329.75        100.7054
330.20        100.9219
330.66        101.0323
331.11        101.1469
331.56        101.3396
332.01        101.6499
332.46        102.0606
332.92        102.5443
333.37        103.1552
333.82        103.8545
334.27        104.6504
334.72        105.4738
335.17        106.1988
335.63        106.7565
336.08        107.2042
336.53        107.5933
336.98        108.0857
337.43        108.7255
337.88        109.4739
338.34        110.1972
338.79        110.7555
339.24        111.0667
339.69        111.1765
340.14        111.2339
340.59         111.469
341.05         111.933
341.50        112.5972
341.95        113.2791
342.40        113.6824
342.85        113.7599
343.30        113.6185
343.75        113.5288
344.20        113.9077
344.66         114.823
345.11        116.1184
345.56        117.5007
346.01        118.4735
346.46        118.8969
346.91         118.939
347.36        118.7998
347.81        118.7896
348.26        119.0136
348.72        119.3755
349.17         119.821
349.62        120.3401
350.07        120.8701
350.52        121.3847
350.97        121.7836
351.42        121.8852
351.87         121.668
352.32        121.2382
352.77        120.6167
353.22        119.8492
353.67        119.0075
354.13         118.117
354.58        117.3932
355.03        117.2706
355.48        117.7882
355.93        118.8462
356.38        119.9428
356.83        120.2287
357.28         119.522
357.73        118.0707
358.18        116.4975
358.63        115.7423
359.08        115.9744
359.53        116.8837
359.98        117.8985
360.43        118.0664
360.88         117.151
361.33        115.5108
361.78        113.6477
362.23        112.2667
362.68        111.5497
363.13        111.2705
363.58        111.1733
364.03         110.871
364.48        110.2351
364.93        109.3853
365.38        108.4812
365.83        107.7369
366.28        107.1951
366.73        106.7815
367.18        106.2977
367.63        105.4566
368.08        104.2432
368.53         102.795
368.98        101.4241
369.43        100.5658
369.88        100.2853
370.33        100.4376
370.78        100.7245
371.23        100.6266
371.68        99.99643
372.13         99.0075
372.58        97.89465
373.03        97.00784
373.48        96.43033
373.93        96.02126
374.38        95.69569
374.83        95.33244
375.28        94.88148
375.72        94.39713
376.17        93.86276
376.62         93.1751
377.07        92.34483
377.52        91.39917
377.97        90.49626
378.42        89.89377
378.87        89.63197
379.32        89.62428
379.77        89.68593
380.22        89.52619
380.67        89.07483
381.11        88.42583
381.56        87.69958
382.01        87.12071
382.46        86.76277
382.91        86.55394
383.36        86.42171
383.81        86.25717
384.26         86.0182
384.71          85.738
385.15        85.42208
385.60        85.12424
386.05        84.83818
386.50         84.5449
386.95         84.2224
387.40        83.85068
387.85        83.43393
388.29        82.94215
388.74        82.50342
389.19        82.10168
389.64        81.73776
390.09        81.39529
390.54        81.06019
390.98        80.70065
391.43        80.37047
391.88        80.04638
392.33        79.73127
392.78        79.49317
393.23        79.31652
393.67         78.9939
394.12        78.62391
394.57        78.49253
395.02        78.49612
395.47        78.07281
395.91        77.36293
396.36        77.05653
396.81        77.20215
397.26        77.46049
397.71        77.65779
398.15         77.6334
398.60        77.42278
399.05        76.99578
399.50        76.52834
399.95        76.34268
400.39        76.45638
400.84        76.56318
401.29        76.54801
401.74        76.38414
402.18         76.0384
402.63        75.45811
403.08        74.82013
403.53        74.40521
403.97        74.25582
404.42        74.30058
404.87        74.41507
405.32        74.39054
405.76        74.16851
406.21        73.90798
406.66        73.66508
407.11        73.38697
407.55        73.21277
408.00        73.38239
408.45        73.78407
408.90        74.05702
409.34        74.00072
409.79        73.40537
410.24        72.52094
410.68        72.06264
411.13        72.12408
411.58        72.32258
412.03        72.53796
412.47        72.72643
412.92        72.79475
413.37        72.77726
413.81        72.69421
414.26         72.6345
414.71        72.59819
415.15         72.5668
415.60        72.51774
416.05        72.48035
416.49        72.45994
416.94        72.45551
417.39        72.44338
417.83        72.36279
418.28        72.21622
418.73        72.03544
419.17        71.86796
419.62        71.79341
420.07        71.81515
420.51        71.87908
420.96        72.00709
421.41        72.09086
421.85        72.08009
422.30        72.24218
422.74        72.46282
423.19        72.22362
423.64        71.71008
424.08        71.92332
424.53        72.73639
424.98        73.14018
425.42        72.98045
425.87        72.78788
426.31        72.67316
426.76        72.28252
427.21         71.8615
427.65        72.34786
428.10        73.38805
428.54          73.604
428.99        73.03341
429.44        72.28831
429.88        71.68224
430.33        72.09527
430.77        73.11354
431.22        73.10263
431.66         72.1759
432.11        71.83155
432.56        72.10474
433.00        72.49144
433.45         72.8757
433.89        72.52161
434.34        71.46579
434.78        73.34021
435.23        72.96173
435.67         73.1926
436.12        72.72122
436.57        73.28262
437.01        74.63069
437.46         75.2467
437.90        74.66491
438.35        74.20116
438.79        73.88683
439.24        73.40411
439.68        72.91911
440.13        73.01482
440.57        73.61964
441.02        74.05643
441.46        74.19866
441.91        74.56142
442.35         74.9397
442.80        74.85727
443.24         74.4739
443.69        74.28285
444.13        74.35571
444.58        74.37288
445.02        74.31949
445.47        74.48275
445.91        74.82783
446.36        75.06757
446.80        75.13364
447.24        75.56451
447.69        75.52321
448.13        75.65559
448.58        75.73167
449.02        75.74379
449.47        75.72504
449.91        75.70454
450.36        75.71883
450.80         75.7319
451.25        75.74542
451.69        75.71003
452.13        75.62677
452.58        75.51878
453.02        75.38511
453.47        75.25981
453.91        75.13316
454.36         75.0261
454.80        74.92773
455.24        74.75719
455.69        74.51628
456.13        74.38252
456.58        74.42637
457.02        74.04467
457.46        73.85445
457.91        74.27571
458.35        75.14147
458.79        75.25638
459.24         74.5788
459.68        73.78607
460.13        73.22478
460.57        72.29445
461.01        72.60685
461.46        72.54634
461.90        72.95375
462.34        73.19442
462.79        72.60278
463.23        72.70967
463.68        73.10947
464.12        73.21873
464.56        73.05522
465.01        72.25658
465.45        72.25017
465.89        72.25249
466.34        72.54868
466.78        72.42479
467.22        71.92829
467.67        71.83871
468.11        71.89119
468.55        71.94736
468.99        71.88788
469.44        71.85918
469.88        71.86337
470.32        71.85031
470.77        71.82662
471.21        71.82148
471.65        71.82323
472.10        71.84319
472.54        71.84008
472.98        71.77279
473.42        71.63494
473.87        71.48727
474.31        71.33489
474.75        71.17588
475.20        71.06889
475.64        71.16821
476.08        71.39851
476.52        71.43977
476.97        71.24196
477.41         71.2182
477.85        70.62165
478.29        70.86156
478.74        71.26344
479.18        71.14221
479.62        70.48554
480.06        70.28317
480.50        70.56908
480.95        69.87196
481.39        70.71532
481.83         69.6861
482.27        70.44546
482.72        70.89707
483.16        70.34475
483.60        70.45346
484.04        70.70222
484.48        70.56672
484.93         70.3774
485.37        70.93171
485.81        70.73998
486.25        71.94246
486.69        71.41962
487.14        69.04344
487.58        68.29359
488.02        70.48664
488.46        70.20944
488.90         69.7177
489.34        70.42905
489.79        70.18494
490.23        70.00248
490.67        69.80959
491.11        69.75072
491.55        69.90083
491.99        70.14296
492.43        70.21574
492.88        70.07417
493.32        69.88239
493.76        69.72521
494.20        69.67483
494.64        69.74498
495.08        69.93909
495.52         70.1919
495.96        70.19063
496.41        69.93939
496.85        69.95959
497.29        70.22074
497.73        69.64613
498.17        69.58405
498.61        69.16018
499.05         68.9059
499.49        69.13642
499.93        69.70061
500.37        69.80087
500.82        69.46709
501.26        69.48161
501.70        69.85559
502.14        70.12209
502.58        70.17753
503.02        70.09268
503.46        69.86206
503.90        69.46677
504.34        69.07414
504.78        68.95937
505.22        69.16878
505.66         69.6442
506.10        70.18948
506.54         70.4027
506.98        70.18736
507.42        69.92693
507.86         69.3379
508.30        69.03973
508.74        68.97485
509.18        69.06863
509.62        69.25546
510.06        69.44101
510.50        69.58188
510.94        69.70542
511.38        69.79094
511.82        69.79758
512.26        69.72083
512.70        69.56062
513.14        69.36009
513.58        69.19779
514.02        69.09952
514.46        69.05842
514.90        69.04581
515.34        69.00893
515.78        68.93726
516.22        68.84793
516.66        68.78276
517.10        68.80342
517.54        68.91584
517.98        69.09389
518.42        69.27316
518.86        69.35011
519.30        69.30439
519.74        69.17249
520.18        69.01752
520.62        68.94218
521.06         68.9678
521.50        69.04809
521.93        69.15417
522.37        69.22849
522.81        69.25262
523.25        69.25562
523.69        69.20267
524.13        69.03442
524.57        68.76522
525.01        68.42547
525.45         68.1277
525.89        68.04945
526.32        68.21752
526.76         68.5666
527.20        68.97878
527.64        69.26109
528.08        69.35274
528.52        69.31342
528.96        69.18232
529.40        69.02602
529.83        68.87238
530.27        68.71578
530.71         68.5942
531.15        68.58823
531.59        68.70494
532.03        68.92242
532.46        69.15149
532.90        69.26295
533.34        69.22588
533.78        69.02898
534.22        68.75089
534.66        68.63336
535.09        68.64422
535.53         68.5022
535.97        68.23347
536.41        68.12643
536.85        68.19036
537.28        68.26697
537.72        68.32903
538.16        68.39265
538.60        68.44031
539.04        68.46341
539.47        68.45262
539.91        68.43481
540.35        68.40049
540.79        68.37478
541.22         68.3679
541.66        68.30082
542.10        68.34875
542.54        68.36371
542.97         68.3873
543.41        68.43641
543.85        68.49474
544.29        68.56026
544.72        68.59433
545.16        68.57549
545.60        68.48722
546.04        68.33576
546.47        68.16797
546.91        68.07359
547.35        68.07895
547.79        68.14305
548.22         68.1754
548.66        68.18091
549.10        68.14785
549.53        67.78257
549.97        67.74545
550.41        67.72803
550.84        67.93114
551.28        68.24484
551.72        68.58556
552.15        68.89449
552.59        69.09012
553.03        68.99231
553.46        68.67216
553.90        68.55274
554.34        68.67216
554.77        68.69789
555.21        68.53204
555.65        68.86553
556.08        68.38329
556.52        68.16603
556.96        67.88509
557.39        67.71545
557.83        67.70091
558.27        67.69319
558.70        67.68139
559.14        68.00402
559.57         68.0361
560.01        68.30965
560.45          68.515
560.88         68.5106
561.32        68.36887
561.75        67.92832
562.19        67.43929
562.63        67.74831
563.06        68.61292
563.50        68.49474
563.93        67.54942
564.37        67.39687
564.80        67.99624
565.24        68.31834
565.68        68.26254
566.11        68.25369
566.55        68.30634
566.98        68.15996
567.42        67.93732
567.85        67.94913
568.29        68.19282
568.72          68.266
569.16        68.31694
569.60        68.31729
570.03        68.23352
570.47        68.24361
570.90        68.55949
571.34        67.71929
571.77        68.13886
572.21        68.05462
572.64         68.2335
573.08        67.96311
573.51        68.22089
573.95        68.89274
574.38        68.23351
574.82        68.50232
575.25        68.42031
575.69         68.9629
576.12        68.62278
576.56        68.20245
576.99        68.63891
577.42        68.85494
577.86        68.65688
578.29        68.80601
578.73        69.64059
579.16        68.24997
579.60        67.99486
580.03        67.84258
580.47        68.62935
580.90        67.77811
581.33        68.86757
581.77        68.97894
582.20        69.25806
582.64        69.19901
583.07        68.84417
583.51        68.36318
583.94        68.05952
584.37        68.27945
584.81          68.983
585.24        69.10248
585.68        68.61708
586.11        68.80113
586.54        68.88939
586.98        68.07671
587.41         67.9565
587.85        68.49558
588.28        68.95316
588.71        67.43553
589.15        68.49109
589.58        68.01473
590.01        67.68197
590.45        67.75906
590.88        68.27594
591.31        68.29589
591.75        68.16264
592.18        67.85655
592.61        67.60291
593.05        67.68201
593.48        67.88174
593.91        67.89087
594.35        67.84251
594.78        67.76263
595.21        67.63668
595.65        68.07295
596.08        68.04444
596.51        67.80264
596.94         67.7206
597.38        67.61613
597.81        67.74533
598.24        67.49027
598.68         68.3472
599.11        67.37769
599.54        68.22719
599.97        67.96177
600.41        67.81831
600.84        68.29937
601.27        68.12617
601.70        68.38784
602.14        68.62857
602.57        68.46488
603.00        68.01498
603.43        67.67139
603.87        67.96485
604.30        68.02835
604.73        67.76314
605.16        67.62878
605.60        67.54638
606.03        67.78367
606.46        68.10609
606.89        67.95516
607.32        67.48737
607.76        67.27486
608.19        67.38048
608.62        67.97752
609.05        68.11415
609.48        68.06475
609.92        67.58988
610.35        67.55781
610.78        68.68469
611.21        68.83871
611.64        68.29021
612.07        68.32639
612.50        68.55051
612.94        68.40875
613.37        68.07125
613.80        67.84277
614.23        67.76065
614.66        68.03661
615.09        67.61864
615.52        67.75261
615.96        68.05303
616.39        68.22172
616.82        68.20985
617.25        68.16439
617.68        68.10479
618.11        67.99397
618.54        67.85446
618.97        67.69769
619.40        67.59758
619.84        67.52071
620.27        67.45419
620.70        67.79012
621.13        68.48599
621.56        67.69872
621.99        67.27697
622.42        67.65285
622.85        67.76162
623.28        67.63917
623.71        67.31362
624.14         67.7878
624.57        67.61065
625.00        67.79201
625.43        67.86425
625.86        67.80898
626.29        67.57277
626.72        67.73968
627.15        67.41884
627.58        67.25211
628.01        67.04372
628.44        67.07954
628.87        67.31176
629.30        67.40356
629.73        67.39469
630.16        67.43758
630.59        67.53538
631.02        67.54705
631.45        67.47874
631.88        67.42025
632.31        67.38239
632.74        67.33705
633.17        67.30129
633.60        67.29835
634.03         67.3298
634.46        67.41209
634.89         67.5061
635.32        67.50586
635.75        67.41364
636.18        67.32641
636.61        67.27443
637.04        67.23905
637.47        67.23606
637.89        67.28401
638.32        67.31504
638.75        67.30272
639.18        67.24864
639.61        66.89664
640.04        66.81291
640.47         66.6899
640.90        66.70169
641.33        66.79472
641.76         66.9054
642.18        67.02112
642.61        67.11471
643.04        67.04751
643.47        66.79144
643.90        67.24908
644.33        66.98273
644.76        67.03893
645.18        67.01495
645.61        67.21239
646.04        67.51776
646.47         67.4029
646.90        66.96413
647.33        66.81432
647.75        66.99335
648.18        67.12589
648.61        67.18085
649.04        67.26689
649.47        67.32508
649.89        67.36403
650.32        67.34385
650.75        67.00526
651.18        66.52443
651.61         66.6451
652.03        67.29593
652.46        67.44212
652.89        67.05593
653.32        67.00102
653.74        67.42526
654.17         66.9667
654.60        67.36564
655.03         67.3391
655.46         66.8568
655.88        67.11271
656.31        74.63447
656.74        73.02343
657.16        66.71512
657.59        65.38097
658.02        66.97375
658.45        67.14532
658.87        67.53254
659.30         66.1662
659.73        66.50217
660.15        67.39977
660.58        66.95961
661.01        66.93997
661.44        66.64468
661.86        66.68849
662.29        67.02666
662.72        67.32574
663.14        67.52648
663.57        67.57215
664.00        67.48743
664.42        67.40524
664.85        67.34616
665.27        67.17537
665.70        66.94972
666.13        66.84148
666.55        66.88389
666.98        67.01558
667.41         67.1949
667.83        67.35547
668.26        67.45289
668.69        67.50524
669.11        67.53401
669.54        67.59168
669.96        67.67443
670.39        67.71763
670.82        67.72352
671.24        67.68873
671.67         67.6434
672.09        67.67941
672.52        67.76441
672.94        67.70338
673.37        67.49353
673.80        67.23165
674.22        67.00259
674.65        66.87659
675.07        66.89867
675.50         67.0309
675.92        67.21811
676.35        67.36027
676.77        67.42735
677.20        67.43629
677.62        67.41278
678.05        67.38673
678.47        67.37216
678.90        67.36738
679.32        67.35781
679.75        67.34675
680.17        67.32631
680.60        67.29991
681.02        67.29478
681.45        67.31695
681.87        67.37482
682.30        67.50905
682.72        67.67525
683.15        67.62347
683.57        67.41371
684.00        67.39445
684.42        67.55459
684.85         67.6068
685.27        67.52798
685.70         67.4999
686.12        67.51108
686.54        67.45961
686.97        67.33517
687.39        67.26217
687.82        67.21371
688.24        66.98544
688.66        66.67043
689.09        66.69671
689.51        67.04843
689.94        67.25692
690.36         67.2948
690.78        67.44794
691.21        67.71886
691.63        67.87057
692.06        67.95174
692.48         68.2896
692.90        68.76265
693.33        68.89507
693.75         68.6551
694.17        68.22211
694.60        67.76936
695.02        67.54642
695.44        67.57599
695.87        67.62477
696.29        67.64702
696.71        67.54694
697.14        67.41508
697.56        67.64703
697.98        68.15472
698.41        68.41056
698.83        68.37248
699.25         68.3336
699.68        68.31145
700.10        68.27467
700.52        68.23372
700.94        68.15034
701.37        68.06243
701.79        68.15619
702.21        68.36316
702.64        68.47881
703.06        68.46527
703.48        68.33095
703.90         68.0562
704.33        68.05797
704.75        67.55518
705.17         67.4307
705.59        67.46976
706.01        67.63134
706.44        67.86861
706.86         68.1424
707.28        68.40521
707.70        68.65469
708.12        68.85281
708.55        68.93084
708.97        68.87961
709.39        68.72626
709.81        68.52573
710.23        68.38652
710.66        68.34413
711.08        68.38344
711.50        68.47118
711.92        68.56418
712.34        68.64333
712.76         68.7261
713.19        68.77492
713.61        68.77446
714.03         68.7047
714.45        68.57432
714.87         68.4462
715.29        68.41956
715.71        68.51202
716.13        68.69746
716.56        68.88732
716.98        69.01479
717.40        69.01876
717.82        68.92812
718.24        68.80532
718.66        68.75166
719.08        68.79187
719.50        68.89355
719.92        69.00201
720.34        69.03153
720.76        68.96212
721.19        68.82546
721.61        68.67825
722.03        68.59805
722.45        68.61299
722.87        68.70921
723.29        68.84216
723.71        68.93995
724.13        68.97683
724.55        68.95458
724.97        68.93522
725.39        69.02002
725.81        69.21818
726.23        69.49742
726.65        69.72514
727.07        69.69043
727.49        69.36794
727.91        68.84162
728.33        68.30162
728.75        68.04738
729.17        68.14711
729.59        68.50312
730.01         68.9685
730.43         69.2861
730.85        69.37068
731.27        69.31103
731.69         69.1562
732.10        68.98281
732.52        68.83469
732.94        68.67146
733.36        68.55687
733.78        68.60016
734.20        68.80431
734.62        69.16991
735.04        69.57104
735.46        69.70232
735.88        69.57286
736.30        69.47404
736.72        69.42805
737.13         69.3472
737.55        69.23846
737.97        69.04658
738.39        68.87413
738.81        69.20072
739.23        69.88033
739.65        70.02357
740.06        69.62834
740.48        69.54754
740.90        69.77135
741.32        69.84206
741.74        69.72187
742.16        69.59628
742.57        69.47933
742.99         69.3518
743.41          69.286
743.83        69.29115
744.25        69.41225
744.67        69.81921
745.08        70.37202
745.50        70.56906
745.92         70.3522
746.34        69.92728
746.75        69.43982
747.17        69.08711
747.59        68.92066
748.01        68.92724
748.42        69.05071
748.84        69.08674
749.26         69.0438
749.68        69.12141
750.09        69.30442
750.51         69.4446
750.93        69.52529
751.35        69.61655
751.76        69.72107
752.18        69.80232
752.60        69.86341
753.01        69.93475
753.43        69.98135
753.85        69.99147
754.27        69.97089
754.68        69.92736
755.10        69.91216
755.52        69.99947
755.93        70.18637
756.35        70.43706
756.77        70.68631
757.18        70.78847
757.60        70.72423
758.02        70.64651
758.43        70.54368
758.85        70.24443
759.26        69.86245
759.68        69.84747
760.10          70.186
760.51        70.38988
760.93        70.34694
761.34        70.36938
761.76        70.43245
762.18        70.05847
762.59        69.48676
763.01        69.60854
763.42         70.4629
763.84        70.80581
764.26        70.58633
764.67        70.44044
765.09        70.44158
765.50        70.29533
765.92        70.05864
766.33        69.83504
766.75        69.63046
767.16        69.65115
767.58        69.87862
768.00        70.15828
768.41        70.49157
768.83         71.0798
769.24        71.75103
769.66        71.96996
770.07         71.7375
770.49        71.39043
770.90        71.07863
771.32        70.99152
771.73         71.1167
772.15        71.10999
772.56        70.97496
772.97        70.98309
773.39        71.10535
773.80        71.19317
774.22        71.19654
774.63        71.20715
775.05        71.20753
775.46        71.24525
775.88        71.29939
776.29        71.37411
776.70        71.45699
777.12        71.55752
777.53        71.67901
777.95        71.78702
778.36        71.85462
778.77        71.79302
779.19        71.59992
779.60        71.38237
780.02        71.16659
780.43         70.8905
780.84        70.66953
781.26        70.67686
781.67        70.90326
782.09        71.33975
782.50        71.77992
782.91        71.62486
783.33        71.03219
783.74        70.91064
784.15        71.33997
784.57         71.7524
784.98        72.10651
785.39        72.54803
785.81        73.03235
786.22        73.28142
786.63        73.64383
787.04        73.66816
787.46        73.50792
787.87        73.15689
788.28        72.78997
788.70        72.64084
789.11        72.73205
789.52        73.02737
789.93        73.37495
790.35        73.51077
790.76        73.39132
791.17        73.07711
791.58        72.70733
792.00        72.50307
792.41        72.53683
792.82        72.68314
793.23         72.8344
793.65        72.98637
794.06        73.03391
794.47        72.64337
794.88        72.05444
795.29        71.90363
795.71        72.17651
796.12        72.68132
796.53        73.20606
796.94        73.46292
797.35        73.32468
797.76        72.89428
798.18        72.39828
798.59        72.14603
799.00        72.23067
799.41         72.5474
799.82        72.98096
800.23        73.33757
800.64        73.53863
801.06        73.62475
801.47        73.64362
801.88        73.56825
802.29        73.42089
802.70        73.19789
803.11        72.97432
803.52        72.88195
803.93        72.95528
804.34        73.16266
804.75        73.44022
805.17         73.6908
805.58         73.9113
805.99        73.96808
806.40        73.87739
806.81         73.9673
807.22         74.1208
807.63         73.6748
808.04        72.79609
808.45        72.37357
808.86        72.50576
809.27        72.73672
809.68        72.97793
810.09        73.26026
810.50        73.52459
810.91        73.76849
811.32        73.93847
811.73        73.95003
812.14        73.80218
812.55        73.51042
812.96        73.22033
813.37        73.19044
813.78        73.47311
814.19        73.98442
814.60        74.54667
815.01        74.88336
815.42        74.92249
815.83        74.73888
816.24        74.42168
816.65        74.15164
817.05        74.01355
817.46        73.93285
817.87        73.91096
818.28        73.90419
818.69        73.89212
819.10        73.89833
819.51        73.92124
819.92        73.94333
820.33        73.95527
820.74        73.94842
821.14        73.91267
821.55        73.86828
821.96        73.81409
822.37        73.77483
822.78        73.76215
823.19        73.79095
823.60        73.87578
824.00        74.02706
824.41        74.24307
824.82        74.63419
825.23        75.17957
825.64          75.807
826.04        76.38899
826.45        76.63523
826.86        76.50751
827.27        76.10394
827.68        75.49798
828.08        74.84338
828.49        74.19486
828.90        73.53559
829.31        73.03474
829.72        72.93984
830.12        73.31658
830.53        74.09643
830.94         74.9521
831.35        75.22921
831.75        74.79054
832.16        73.76934
832.57        72.71322
832.97         72.4653
833.38        73.17441
833.79        74.56482
834.20        76.11411
834.60        76.92362
835.01        76.70731
835.42        75.79373
835.82        74.57161
836.23        73.63274
836.64        73.17866
837.04         73.0374
837.45        73.11575
837.86        73.33096
838.26        73.62159
838.67        74.00465
839.08        74.37964
839.48        74.52422
839.89        74.38484
840.29        74.01166
840.70        73.55309
841.11        73.23066
841.51        73.12917
841.92         73.1676
842.33        73.33592
842.73        73.61613
843.14        73.92746
843.54        74.32706
843.95        74.70085
844.35        74.93469
844.76        74.96143
845.17        74.79298
845.57        74.53889
845.98        74.37192
846.38        74.35772
846.79        74.44917
847.19        74.54521
847.60        74.38327
848.00        73.95444
848.41        73.34077
848.81        72.78196
849.22        72.61658
849.62        72.92661
850.03         73.5734
850.43         74.3467
850.84        74.73018
851.24        74.64912
851.65        74.21645
852.05        73.69881
852.46        73.49892
852.86        73.70764
853.27        74.17345
853.67        74.72687
854.07        75.34434
854.48        75.91749
854.88        76.57263
855.29        77.01883
855.69        76.98804
856.10         76.3109
856.50        75.18664
856.90        73.96395
857.31        73.15796
857.71        72.87966
858.12        72.94036
858.52        73.25849
858.92        73.44814
859.33        73.36388
859.73        73.18069
860.13        72.86211
860.54        72.37814
860.94        71.76903
861.34        71.01295
861.75        70.33272
862.15        70.17901
862.55        70.61745
862.96        71.50634
863.36        72.51735
863.76        73.02122
864.17         72.8571
864.57        72.21375
864.97        71.39771
865.38         70.9256
865.78        70.97917
866.18        71.38876
866.58        71.93713
866.99        72.23851
867.39         72.2051
867.79        71.97166
868.19        71.67426
868.60        71.46705
869.00        71.39633
869.40        71.39844
869.80        71.49406
870.21        71.73085
870.61        72.13084
871.01        72.60674
871.41        72.99274
871.81        73.03838
872.22        72.69843
872.62        72.06527
873.02        71.29381
873.42        70.64399
873.82        70.23851
874.22        70.05492
874.63        70.07355
875.03        70.24637
875.43        70.53348
875.83        70.91303
876.23        71.39188
876.63        71.97843
877.03        72.62954
877.44        73.29163
877.84        73.79458
878.24        73.82311
878.64        73.34528
879.04        72.48577
879.44        71.56416
879.84        71.06021
880.24        71.07915
880.64        71.49056
881.04        72.06887
881.44        72.42809
881.84        72.46118
882.24        72.29385
882.65        72.01507
883.05         71.9034
883.45        71.98864
883.85         72.1462
884.25        72.36263
884.65        72.64043
885.05        72.96462
885.45        73.37766
885.85        73.71924
886.25        73.70654
886.65        73.29478
887.05        72.54273
887.45        71.79324
887.85         71.5905
888.25        72.02961
888.65        72.95705
889.04        73.92141
889.44        74.15819
889.84        73.52916
890.24        72.29483
890.64        70.96127
891.04        70.25807
891.44        70.35007
891.84        71.03542
892.24        71.92204
892.64        72.34081
893.04         72.1147
893.44        71.46069
893.83        70.77718
894.23        70.67715
894.63        71.25948
895.03         72.3125
895.43        73.43819
895.83         73.9325
896.23        73.60567
896.63        72.73263
897.02        71.65914
897.42        70.98638
897.82        70.79697
898.22         70.9637
898.62        71.33045
899.01        71.66402
899.41        71.82379
899.81        71.91066
900.21        72.06213
900.61        72.49244
901.00        73.21584
901.40        74.08826
901.80        74.85799
902.20        75.16293
902.59        74.94265
902.99         74.3299
903.39        73.55997
903.79        73.01503
904.18        72.80025
904.58        72.82065
904.98        72.98113
905.38        73.14147
905.77        73.23901
906.17        73.35728
906.57        73.41244
906.96         73.2715
907.36        72.91724
907.76        72.39369
908.15        71.92993
908.55        71.85906
908.95        72.26551
909.34        73.05823
909.74        73.94547
910.14        74.52285
910.53        74.65332
910.93        74.43562
911.33        74.04965
911.72        73.78705
912.12        73.74795
912.52        73.83344
912.91        73.88976
913.31        73.66615
913.70        73.13587
914.10        72.42803
914.49        71.75329
914.89        71.39757
915.29        71.43118
915.68        71.74754
916.08        72.21117
916.47        72.61156
916.87        72.85476
917.26        73.00212
917.66        73.04998
918.05        72.98916
918.45        72.83991
918.84        72.64164
919.24        72.47138
919.64         72.5548
920.03        72.94811
920.42        73.54476
920.82        74.23658
921.21        74.89007
921.61        75.41068
922.00        75.82861
922.40        76.04514
922.79         75.9768
923.19        75.61755
923.58        75.03616
923.98        74.35033
924.37         73.6543
924.77        73.02997
925.16        72.45879
925.55        72.05799
925.95        71.97043
926.34         72.2431
926.74         72.8066
927.13        73.54712
927.52         74.1735
927.92        74.57955
928.31        74.81486
928.70        74.94909
929.10        75.15073
929.49        75.47056
929.89        75.82294
930.28        76.09872
930.67        76.08559
931.07        75.73264
931.46         75.1196
931.85        74.43529
932.24        73.98326
932.64         73.8558
933.03        74.03263
933.42        74.27981
933.82        74.24465
934.21        73.85691
934.60        73.19533
934.99        72.62534
935.39        72.66927
935.78        73.44862
936.17        74.84183
936.56        76.27415
936.96         76.7047
937.35        75.92539
937.74          74.233
938.13        72.44376
938.53        71.64817
938.92         72.0031
939.31        73.23916
939.70        74.73564
940.09        75.35182
940.49        74.77131
940.88        73.40005
941.27        71.87511
941.66        71.13346
942.05        71.40807
942.44        72.41952
942.84        73.72723
943.23        74.61681
943.62        74.76946
944.01        74.43381
944.40         73.9294
944.79        73.75348
945.18        74.03664
945.57        74.55965
945.97        75.13004
946.36        75.57538
946.75        75.78986
947.14        75.87524
947.53         75.8202
947.92        75.58006
948.31        75.19096
948.70        74.68228
949.09        74.21438
949.48        74.02891
949.87        74.17811
950.26        74.61617
950.65        75.19982
951.04        75.65989
951.43        75.88412
951.82        75.89576
952.21        75.79624
952.60        75.76441
952.99        75.82018
953.38        75.89204
953.77        75.82467
954.16        75.35844
954.55        74.50336
954.94        73.46264
955.33        72.45812
955.72        71.80402
956.11        71.57563
956.50        71.60963
956.89        71.93542
957.28        72.60539
957.66        73.58889
958.05        74.76329
958.44         75.6624
958.83        75.40491
959.22        73.89314
959.61        71.52332
960.00         69.1123
960.39         67.8056
960.78        67.83774
961.16        68.90327
961.55        70.52299
961.94        71.97482
962.33        72.94078
962.72        73.60394
963.11        73.92403
963.49        73.86343
963.88        73.43476
964.27        72.66999
964.66        71.80261
965.04         71.1906
965.43         70.9032
965.82        70.87112
966.21        71.04475
966.60        71.27752
966.98        71.50349
967.37        71.74587
967.76        71.90364
968.15         71.7912
968.53        71.39188
968.92        70.72448
969.31        70.01526
969.69        69.63985
970.08        69.64481
970.47        69.95942
970.86        70.35207
971.24         70.4074
971.63        69.96805
972.02        69.22021
972.40        68.41671
972.79        67.96738
973.17        67.98232
973.56        68.31754
973.95        68.80273
974.33         69.2035
974.72        69.37856
975.11        69.33853
975.49          69.265
975.88        69.45263
976.26        70.03351
976.65        70.87401
977.04        71.50814
977.42        71.16185
977.81        69.75657
978.19        67.56813
978.58        65.69053
978.96        65.51857
979.35        67.29823
979.74        70.71619
980.12        74.87434
980.51        77.32056
980.89        77.39724
981.28        75.58318
981.66        73.02449
982.05        71.71879
982.43        72.17772
982.82        73.75141
983.20        75.92091
983.59        77.61599
983.97         78.5261
984.35        78.96885
984.74        78.80779
985.12        77.92455
985.51        76.38885
985.89        74.19111
986.28          72.005
986.66        70.77665
987.04         70.8447
987.43        72.00235
987.81        73.60984
988.20        74.32153
988.58        73.81161
988.96        72.28014
989.35        70.59591
989.73        70.14579
990.12        71.16875
990.50        73.28999
990.88        75.32912
991.27        75.39313
991.65        73.22584
992.03        69.56582
992.42        65.85719
992.80        64.03835
993.18        64.69801
993.56        67.18234
993.95        70.53468
994.33        73.35456
994.71        74.82937
995.10        75.35194
995.48        75.05161
995.86        74.16575
996.24        72.95329
996.63        71.34835
997.01        69.68898
997.39        68.50798
997.77        67.92496
998.15        67.90492
998.54        68.31895
998.92        68.84545
999.30        69.34525
999.68        69.89642
1000.06        70.43009
1000.45        70.80704
1000.83         71.1057
1001.21        71.18891
1001.59        71.15147
1001.97        71.23286
1002.35        71.47146
1002.73        71.80222
1003.12        72.05701
1003.50        71.89023
1003.88        71.31304
1004.26        70.54557
1004.64        69.77543
1005.02        69.23478
1005.40        69.01046
1005.78        69.01306
1006.16        69.34777
1006.54         70.1851
1006.92        71.43234
1007.30        72.92487
1007.69        74.19728
1008.07        74.74641
1008.45          74.374
1008.83        73.33595
1009.21        71.87652
1009.59        70.42834
1009.97        69.24834
1010.35        68.25494
1010.73        67.86452
1011.11        68.75366
1011.49         71.0607
1011.86        74.86903
1012.24        79.08566
1012.62        82.04641
1013.00          83.064
1013.38        82.24209
1013.76        80.59225
1014.14        80.20259
1014.52        81.70434
1014.90        84.53597
1015.28        87.34926
1015.66        87.73065
1016.04        85.35368
1016.41        81.50233
1016.79        77.73129
1017.17        75.21268
1017.55        73.89523
1017.93        73.20989
1018.31        72.79248
1018.69        71.99735
1019.06        70.77254
1019.44        69.80231
1019.82        69.03195
1020.20        68.09436
1020.58        66.91399
1020.95        65.34948
1021.33         64.0212
1021.71        64.38382
1022.09        67.01626
1022.46        71.24055
1022.84        75.77238
1023.22        79.20348
1023.60         81.1059
1023.97        81.88329
1024.35        81.14116
1024.73        78.44904
