SpectraSmart Spectrum 2.9.0.0
--------- Device Information -----------
Spectrum Name :  反射率_0
Saving Time :  2024/05/01 16:12:46
Spectro-Module Model Name : SE2030-DUVN
Spectro-Module Serial Number : OS361AC55029948
Wavelength Start : 200
Wavelength End : 1025
Wavelength Unit : Wavelength(nm)
Spectrum Unit : Reflectance(%)
-----------Spectrum Setting ------------
Integration Time : 20ms
Average : 10
Boxcar : 0
Background removal :  enabled
linearity correction :  enabled
SC :  disabled
Intensity correction :  disabled
DWT denoise :  enabled
savitzky-golay :  disabled
FFT :  disabled
Running average :  disabled
Kalman :  disabled
High pass :  disabled
---------------BEGIN--------------------
Wavelength(nm)             Reflectance(%)
200.29               0
200.75       -110.6851
201.21       -165.9584
201.67        7.027047
202.13        8.224526
202.58        26.13259
203.04        43.49688
203.50        58.55217
203.96        72.42419
204.42        91.94302
204.88        147.8019
205.34         1571.35
205.80       -174.4329
206.26        -119.463
206.72       -153.4721
207.18       -478.7048
207.64        575.9385
208.10        248.8349
208.55        188.6446
209.01        166.8382
209.47        153.5912
209.93        142.7455
210.39        132.8219
210.85         129.823
211.31         150.144
211.77          260.95
212.23        -693.433
212.69       -121.1938
213.14       -86.04723
213.60        -127.426
214.06        533.9637
214.52        89.17757
214.98        67.61743
215.44        77.13581
215.90        131.7799
216.36         1048.93
216.81       -386.0687
217.27       -522.9314
217.73        1211.858
218.19        277.8643
218.65        205.3154
219.11        218.1197
219.57        328.9384
220.02        781.1038
220.48        386.8442
220.94        145.9026
221.40        89.12862
221.86        72.57502
222.32        71.32834
222.77        78.74512
223.23        94.88928
223.69        116.2175
224.15        122.6167
224.61        108.7559
225.06        88.97642
225.52        75.90355
225.98        73.42538
226.44        79.88808
226.90        94.41004
227.36        113.4985
227.81        121.1746
228.27        112.1025
228.73        97.07833
229.19        85.18166
229.65        81.06124
230.10        83.70418
230.56        91.34526
231.02        102.1178
231.48        109.5626
231.93        109.8371
232.39        106.4434
232.85        101.6732
233.31        97.51942
233.77        94.58358
234.22        92.20084
234.68        90.94553
235.14        91.62174
235.60        94.55872
236.05        100.7035
236.51        110.4341
236.97        121.8893
237.43        131.5018
237.88        137.2012
238.34        139.1945
238.80        142.3024
239.26         148.991
239.71        160.6162
240.17        175.3581
240.63        182.7247
241.08         172.756
241.54        150.8957
242.00        132.0983
242.46        126.7286
242.91        136.4734
243.37        164.1142
243.83        212.2585
244.28        241.4115
244.74        218.5989
245.20        179.8663
245.66        150.8644
246.11        136.6518
246.57        132.4133
247.03        133.2845
247.48        136.6249
247.94        132.3676
248.40        114.8733
248.85        92.71564
249.31        77.49905
249.77        75.48559
250.22         82.5882
250.68        92.95733
251.14        103.3784
251.59        114.2808
252.05        129.2668
252.51         157.346
252.96        224.5314
253.42         348.835
253.88        394.8132
254.33        317.8751
254.79        250.2985
255.25        210.5649
255.70        184.4966
256.16         167.173
256.62        154.7347
257.07        145.6666
257.53         140.667
257.99        138.0818
258.44         137.204
258.90        138.8277
259.35        141.5874
259.81        145.3551
260.27        148.8767
260.72        150.5998
261.18         150.812
261.63        149.3777
262.09        147.3388
262.55        144.7657
263.00        141.6355
263.46        138.4831
263.91        135.0612
264.37        131.9824
264.83        129.1569
265.28         126.513
265.74        124.2683
266.19        122.0481
266.65        120.0319
267.11         118.121
267.56         116.447
268.02         115.402
268.47        114.8986
268.93        114.7423
269.38        114.5358
269.84        113.6456
270.30        111.9462
270.75        109.6242
271.21        107.0265
271.66        104.4776
272.12        102.2011
272.57        99.99279
273.03        97.98923
273.48        96.23769
273.94        94.81897
274.39        93.65806
274.85        92.60966
275.31        91.21906
275.76        89.41216
276.22        87.47077
276.67        85.57344
277.13        84.28162
277.58        83.48521
278.04        83.05318
278.49        82.62379
278.95        81.92012
279.40         80.7618
279.86        79.41241
280.31         77.8497
280.77        76.29688
281.22        74.70799
281.68        73.19174
282.13        71.73051
282.59        70.53324
283.04        69.53265
283.50        68.79035
283.95        68.17091
284.41        67.59798
284.86        67.00656
285.32        66.47935
285.77        66.04432
286.22        65.87549
286.68        65.96259
287.13         66.1792
287.59        66.38811
288.04        66.31078
288.50        65.94595
288.95        65.33095
289.41         64.6717
289.86        64.07563
290.32        63.67277
290.77         63.3991
291.22        63.27067
291.68        63.27463
292.13        63.39288
292.59        63.69373
293.04        64.17735
293.50        64.91283
293.95        65.86687
294.40        67.00816
294.86        68.27129
295.31        69.56202
295.77        70.83584
296.22        72.06001
296.68        73.24886
297.13        74.38092
297.58         75.5013
298.04        76.65919
298.49         77.8346
298.95        79.05714
299.40        80.30285
299.85        81.57085
300.31        82.98287
300.76        84.66431
301.21        86.64397
301.67        88.86957
302.12        91.06663
302.58        92.85839
303.03         94.1026
303.48        94.96141
303.94        95.77023
304.39        96.85738
304.84        98.39127
305.30        100.2494
305.75        102.2337
306.20        104.0972
306.66          105.76
307.11        107.2194
307.57        108.5675
308.02        109.7746
308.47        110.9081
308.93         111.971
309.38        112.9156
309.83        113.7973
310.29        114.6577
310.74         115.483
311.19        116.3148
311.65        117.1791
312.10        118.0479
312.55        118.9114
313.00        119.7876
313.46        120.7068
313.91        121.6389
314.36        122.5578
314.82        123.3298
315.27        123.7683
315.72        123.8292
316.18        123.6247
316.63        123.2747
317.08        123.0514
317.53        123.0388
317.99         123.179
318.44        123.4271
318.89        123.6666
319.35        123.8602
319.80        124.0666
320.25        124.2966
320.70         124.571
321.16        124.8722
321.61        125.1834
322.06        125.5031
322.51        125.8638
322.97        126.2277
323.42        126.6284
323.87        126.9473
324.32        127.0252
324.78        126.8314
325.23        126.4642
325.68        126.0612
326.13        125.8703
326.59        125.9378
327.04        126.2626
327.49        126.7222
327.94        127.1332
328.39        127.4231
328.85        127.5778
329.30        127.7475
329.75        127.9944
330.20        128.3445
330.66        128.7325
331.11        129.1246
331.56        129.3125
332.01        129.2807
332.46        129.1012
332.92         128.949
333.37        129.2421
333.82         130.037
334.27        131.2484
334.72        132.6344
335.17        133.7609
335.63        134.4352
336.08        134.7948
336.53        134.9854
336.98        135.3421
337.43        135.9584
337.88        136.7362
338.34        137.4426
338.79        137.8096
339.24        137.7318
339.69        137.3321
340.14        136.8997
340.59         136.869
341.05        137.3336
341.50        138.1924
341.95        139.1483
342.40        139.7189
342.85        139.7952
343.30        139.5402
343.75        139.2567
344.20        139.4142
344.66        140.1044
345.11        141.1456
345.56        142.2893
346.01         143.119
346.46        143.5082
346.91        143.6192
347.36        143.5654
347.81        143.5133
348.26        143.5424
348.72        143.5937
349.17        143.7176
349.62        144.0834
350.07        144.6573
350.52        145.3426
350.97        145.9119
351.42        145.9814
351.87        145.4831
352.32         144.601
352.77        143.4479
353.22        142.2091
353.67        140.9988
354.13        139.7968
354.58        138.7973
355.03        138.4206
355.48        138.6891
355.93        139.5229
356.38        140.3692
356.83        140.2932
357.28        139.1157
357.73        137.1184
358.18        135.0313
358.63        133.9476
359.08        134.0554
359.53        134.9947
359.98        136.0799
360.43         136.172
360.88        134.9816
361.33        132.9152
361.78        130.5766
362.23        128.8185
362.68        127.8536
363.13        127.4167
363.58        127.1531
364.03        126.5234
364.48        125.3791
364.93        123.8999
365.38        122.3923
365.83        121.2858
366.28        120.6603
366.73        120.3705
367.18        120.0533
367.63        119.1569
368.08        117.6022
368.53        115.6088
368.98        113.6422
369.43        112.3621
369.88        111.8847
370.33        111.9996
370.78        112.2879
371.23        112.0287
371.68        111.0284
372.13         109.538
372.58        107.9365
373.03        106.7747
373.48        106.1768
373.93        105.9401
374.38        105.8379
374.83        105.5237
375.28        104.8845
375.72        104.0266
376.17        103.0887
376.62        102.1969
377.07        101.4031
377.52        100.6637
377.97        99.95235
378.42        99.24465
378.87        98.54115
379.32        97.86446
379.77         97.2588
380.22         96.7738
380.67        96.40752
381.11        96.14483
381.56        95.89455
382.01        95.53554
382.46        95.04971
382.91        94.47552
383.36        93.91258
383.81         93.5164
384.26        93.30663
384.71        93.21822
385.15        93.13544
385.60        92.93269
386.05        92.55873
386.50        92.07202
386.95        91.52045
387.40        90.98634
387.85        90.50081
388.29        89.97737
388.74        89.54262
389.19        89.17032
389.64        88.85204
390.09        88.58628
390.54        88.29731
390.98        87.87218
391.43         87.3716
391.88        86.73757
392.33        86.10336
392.78        85.86627
393.23        85.95193
393.67        85.76591
394.12        85.35901
394.57         85.2153
395.02        85.19408
395.47        84.52982
395.91         83.4493
396.36        82.91855
396.81        83.02888
397.26        83.35212
397.71        83.62705
398.15         83.5901
398.60        83.26636
399.05        82.61893
399.50        81.92651
399.95        81.75906
400.39        82.10802
400.84        82.34985
401.29        82.31124
401.74        82.16923
402.18          81.847
402.63         81.0302
403.08        79.99227
403.53        79.37189
403.97        79.24608
404.42        79.37896
404.87         79.6208
405.32        79.74171
405.76        79.64145
406.21        79.56126
406.66        79.47729
407.11        78.99895
407.55        78.32603
408.00        78.23229
408.45        78.64706
408.90        78.66779
409.34        78.22319
409.79        77.85237
410.24        77.61044
410.68        77.36141
411.13        77.13391
411.58        76.93411
412.03        76.78766
412.47        76.76658
412.92         76.8443
413.37        77.00404
413.81          77.146
414.26        77.18863
414.71        77.09072
415.15        76.89291
415.60        76.64033
416.05        76.48067
416.49        76.45694
416.94        76.51659
417.39        76.60583
417.83        76.62573
418.28        76.55293
418.73        76.42682
419.17        76.27652
419.62        76.15016
420.07        76.06169
420.51        75.98062
420.96        75.95572
421.41         75.9444
421.85        75.91304
422.30        76.02074
422.74        76.19592
423.19        76.12274
423.64        76.02553
424.08        76.21341
424.53        76.63398
424.98        76.76614
425.42        76.54755
425.87        76.38609
426.31        76.33148
426.76        75.89892
427.21        75.35188
427.65        75.75304
428.10        76.76821
428.54        77.14297
428.99        76.84747
429.44        75.98766
429.88        75.02746
430.33         75.7298
430.77         77.4564
431.22        77.44124
431.66        75.87186
432.11        75.11843
432.56        75.32172
433.00        75.73284
433.45        76.23906
433.89        75.54822
434.34        74.92611
434.78        76.50982
435.23        76.04598
435.67        76.24158
436.12        75.97649
436.57         76.4514
437.01        77.35091
437.46        78.47955
437.90        77.73884
438.35        76.97647
438.79          76.965
439.24        76.41706
439.68        75.85314
440.13        75.85865
440.57        76.41099
441.02        76.78967
441.46        76.85683
441.91        77.27093
442.35         77.7466
442.80        77.47651
443.24        76.64042
443.69        76.52515
444.13        77.07807
444.58         77.2522
445.02         76.9894
445.47        77.00604
445.91        77.36463
446.36        77.57426
446.80        77.54291
447.24        78.50968
447.69        78.46134
448.13        78.59189
448.58        78.42524
449.02        78.35616
449.47        78.41418
449.91        78.33465
450.36        78.17113
450.80         78.0579
451.25        78.02631
451.69         77.9848
452.13        77.93121
452.58        77.89468
453.02        77.83124
453.47         77.7077
453.91        77.50845
454.36        77.27777
454.80         77.0318
455.24        76.78739
455.69        76.57496
456.13        76.40884
456.58        76.37875
457.02        76.26563
457.46         76.4118
457.91         76.7186
458.35        77.10112
458.79        77.04465
459.24        76.52448
459.68        75.93654
460.13        75.60914
460.57        74.50285
461.01         74.8115
461.46        74.90829
461.90        75.25636
462.34        75.01092
462.79        74.65224
463.23        74.53969
463.68        74.74322
464.12        74.73887
464.56        74.52135
465.01        74.35658
465.45        74.24955
465.89        74.50095
466.34        74.85503
466.78        74.98869
467.22        73.76525
467.67        73.47863
468.11        73.55842
468.55        73.63019
468.99        73.53792
469.44        73.50917
469.88        73.55332
470.32        73.56632
470.77        73.53693
471.21        73.55342
471.65        73.61781
472.10          73.364
472.54        73.42527
472.98        73.25857
473.42         73.0624
473.87        72.87724
474.31        72.70857
474.75        72.53869
475.20        72.39474
475.64        72.48274
476.08         72.7366
476.52        72.74803
476.97        72.43176
477.41         72.9286
477.85        71.80875
478.29        72.69888
478.74        72.50418
479.18        72.68781
479.62         71.7336
480.06        71.51405
480.50        71.77867
480.95         71.2025
481.39        72.29312
481.83        70.88249
482.27        71.48708
482.72        71.64835
483.16        71.21793
483.60        71.36433
484.04        71.67743
484.48        71.71127
484.93        71.75343
485.37        72.56022
485.81        72.60692
486.25        73.39098
486.69        74.01076
487.14        70.93765
487.58        69.50622
488.02        71.73837
488.46        70.94181
488.90        70.41608
489.34        71.12017
489.79        71.06776
490.23        70.74345
490.67        70.63184
491.11        70.69663
491.55        70.79989
491.99        70.85959
492.43        70.84407
492.88        70.74534
493.32        70.63485
493.76        70.53336
494.20        70.47356
494.64        70.46144
495.08        70.42133
495.52        70.37704
495.96        70.45196
496.41        70.54841
496.85        70.57591
497.29        70.16956
497.73        69.79967
498.17        69.82296
498.61        69.51546
499.05        69.14821
499.49         69.3625
499.93        69.99281
500.37         70.1788
500.82        69.96376
501.26         69.6852
501.70        70.18471
502.14        70.31334
502.58         70.2627
503.02        70.16511
503.46        70.02924
503.90        69.80246
504.34        69.57172
504.78         69.5035
505.22        69.62259
505.66         69.8932
506.10        70.17921
506.54        70.24438
506.98        70.04147
507.42        69.65631
507.86        69.23239
508.30        68.98804
508.74        68.98052
509.18        69.13985
509.62        69.38246
510.06        69.57171
510.50        69.65618
510.94        69.67434
511.38        69.64924
511.82        69.61615
512.26        69.58666
512.70        69.53822
513.14        69.46659
513.58        69.37354
514.02        69.26303
514.46        69.14907
514.90        69.03783
515.34        68.93211
515.78        68.84058
516.22        68.76965
516.66        68.73144
517.10        68.74146
517.54         68.7961
517.98        68.88209
518.42        68.98306
518.86        69.06355
519.30        69.10932
519.74        69.15231
520.18        69.17891
520.62        69.11094
521.06        68.97931
521.50        68.92353
521.93         68.9498
522.37        68.93332
522.81        68.87784
523.25        68.87044
523.69        68.88431
524.13        68.83517
524.57        68.72263
525.01        68.57571
525.45        68.45738
525.89        68.46659
526.32        68.61547
526.76        68.86112
527.20        69.12675
527.64        69.29348
528.08        69.32584
528.52        69.26251
528.96        69.13777
529.40        69.00796
529.83        68.89104
530.27        68.78776
530.71         68.7112
531.15        68.69897
531.59        68.75354
532.03        68.86582
532.46        68.98355
532.90        69.04075
533.34        69.02114
533.78        68.89194
534.22        68.70397
534.66        68.65607
535.09        68.70305
535.53        68.57774
535.97        68.31053
536.41        68.19629
536.85        68.24999
537.28        68.31006
537.72        68.36006
538.16        68.43563
538.60        68.52064
539.04        68.59846
539.47        68.64436
539.91         68.6615
540.35        68.63185
540.79        68.58456
541.22        68.53432
541.66        68.40995
542.10         68.3936
542.54        68.34119
542.97        68.29621
543.41        68.27685
543.85         68.2726
544.29        68.28685
544.72        68.29548
545.16        68.29713
545.60        68.27471
546.04        68.22179
546.47        68.16246
546.91        68.14997
547.35        68.19628
547.79        68.26661
548.22        68.27612
548.66        68.24109
549.10        68.15668
549.53        67.72835
549.97        67.62394
550.41        67.54931
550.84        67.70937
551.28        67.99322
551.72        68.31737
552.15        68.61872
552.59        68.81705
553.03        68.73922
553.46        68.44422
553.90        68.34714
554.34        68.48815
554.77         68.4953
555.21        68.29736
555.65        68.72982
556.08        68.42971
556.52        68.22533
556.96        67.81978
557.39        67.62138
557.83        67.67694
558.27         67.7356
558.70          67.755
559.14        67.99648
559.57        67.85809
560.01        68.08265
560.45        68.35548
560.88        68.24961
561.32        67.89078
561.75        67.54544
562.19        67.38505
562.63         67.6804
563.06        68.24412
563.50        68.18852
563.93          67.592
564.37        67.42882
564.80        67.69701
565.24        67.86852
565.68        67.86737
566.11        67.85746
566.55        67.86086
566.98        67.73486
567.42        67.60143
567.85         67.7476
568.29        68.12756
568.72        68.30146
569.16        68.32681
569.60        68.34882
570.03        68.29811
570.47        68.40625
570.90        68.65697
571.34        67.83847
571.77        68.22824
572.21        68.17009
572.64         68.4036
573.08        68.01556
573.51        68.37711
573.95        68.86473
574.38        68.32816
574.82        68.54925
575.25        68.85425
575.69        69.21047
576.12        68.78746
576.56        67.98569
576.99        68.97796
577.42        68.72965
577.86        68.98788
578.29        69.22283
578.73        70.02458
579.16        68.82877
579.60        68.06279
580.03        68.08321
580.47        68.65613
580.90        67.83979
581.33        69.15715
581.77        69.23208
582.20        69.53953
582.64         69.2865
583.07        69.07345
583.51        68.51228
583.94        68.08154
584.37        68.22144
584.81        68.89005
585.24        69.15397
585.68        68.92903
586.11        68.80457
586.54        68.73213
586.98        68.24291
587.41        67.89191
587.85        68.85764
588.28        68.94296
588.71        67.58817
589.15         68.6778
589.58        68.00578
590.01        67.80833
590.45        67.73683
590.88         68.0417
591.31        68.10889
591.75        67.86044
592.18        67.63758
592.61        67.52956
593.05        67.90741
593.48        68.01029
593.91        68.51109
594.35        67.69768
594.78        67.51375
595.21        67.47755
595.65        67.98887
596.08        67.93687
596.51        67.83482
596.94        67.57101
597.38        67.44061
597.81        67.53013
598.24        67.61256
598.68        67.86188
599.11        67.40322
599.54        68.46384
599.97        68.17975
600.41        67.50034
600.84        68.16142
601.27        67.88763
601.70        67.99608
602.14        68.24098
602.57        68.04504
603.00        67.70936
603.43         67.4201
603.87        67.69938
604.30        67.81955
604.73        67.58302
605.16        67.29609
605.60        67.10153
606.03        67.43893
606.46         68.0692
606.89        67.95386
607.32        67.32347
607.76        67.03263
608.19        67.19402
608.62        67.56892
609.05        67.53065
609.48         67.3758
609.92         67.1557
610.35        66.88935
610.78        68.11705
611.21        68.16534
611.64        67.55301
612.07        67.63459
612.50         68.0625
612.94        68.01973
613.37        67.37617
613.80        67.65851
614.23        67.29023
614.66        67.54921
615.09        66.97533
615.52        67.01962
615.96        67.31458
616.39        67.52068
616.82        67.58035
617.25         67.5611
617.68        67.47672
618.11        67.38237
618.54        67.28616
618.97        67.07417
619.40        66.83055
619.84        66.70691
620.27        66.72961
620.70        67.07164
621.13        67.63195
621.56        67.22161
621.99        66.77544
622.42        66.95048
622.85        66.99353
623.28        66.92898
623.71        66.84286
624.14        67.04334
624.57        67.21804
625.00        67.42009
625.43        67.57652
625.86        67.22966
626.29        67.00908
626.72        67.28814
627.15        66.91911
627.58        66.50723
628.01        66.47719
628.44        66.45319
628.87        66.59742
629.30        66.58448
629.73          66.466
630.16        66.51525
630.59        66.70776
631.02        66.91712
631.45        67.09224
631.88        67.07663
632.31        66.81997
632.74        67.00216
633.17        66.53242
633.60        66.45675
634.03        66.46215
634.46        66.55026
634.89        66.67022
635.32        66.75627
635.75        66.79159
636.18         66.7822
636.61        66.74307
637.04        66.69889
637.47        66.66439
637.89        66.61963
638.32        66.53134
638.75        66.45678
639.18        66.41478
639.61        66.12975
640.04        66.13258
640.47        66.07133
640.90        66.10327
641.33        66.19053
641.76        66.28289
642.18        66.38749
642.61        66.48537
643.04        66.43237
643.47        66.19596
643.90        66.66513
644.33        66.41321
644.76        66.48045
645.18        66.47296
645.61        66.69634
646.04        67.03686
646.47        66.96716
646.90        66.57011
647.33         66.4257
647.75        66.56898
648.18        66.66235
648.61        66.68578
649.04        66.70042
649.47        66.67283
649.89        66.74974
650.32        66.86559
650.75        66.52549
651.18        65.91617
651.61        66.06185
652.03        66.83914
652.46           66.87
652.89        66.19362
653.32        66.04202
653.74         66.5823
654.17        66.45859
654.60        66.51369
655.03        66.89051
655.46        66.28522
655.88        66.60986
656.31        74.74348
656.74        74.52827
657.16        67.90389
657.59        65.54829
658.02        66.57742
658.45        66.75358
658.87        66.88701
659.30        66.16496
659.73        65.77258
660.15        67.06455
660.58        66.52278
661.01        66.35478
661.44        65.64288
661.86         65.6626
662.29        66.31723
662.72        66.61215
663.14        66.51529
663.57        66.50822
664.00        66.61465
664.42        66.60828
664.85        66.49619
665.27         66.3081
665.70        66.09859
666.13        65.98028
666.55        65.98647
666.98        66.05995
667.41        66.18453
667.83        66.34388
668.26        66.50021
668.69        66.65244
669.11        66.77393
669.54        66.84895
669.96        66.86279
670.39        66.75587
670.82        66.58466
671.24        66.49054
671.67        66.49857
672.09        66.54248
672.52        66.59711
672.94        66.59037
673.37        66.51307
673.80        66.39008
674.22        66.26517
674.65        66.17355
675.07        66.15065
675.50        66.17126
675.92        66.23159
676.35        66.31773
676.77         66.4197
677.20        66.52531
677.62        66.62907
678.05        66.70745
678.47        66.75264
678.90        66.78022
679.32        66.76612
679.75        66.69851
680.17        66.57536
680.60        66.40372
681.02        66.25144
681.45        66.19649
681.87         66.2645
682.30        66.47079
682.72         66.7283
683.15        66.74246
683.57        66.54001
684.00        66.42398
684.42        66.44305
684.85        66.46298
685.27        66.47971
685.70        66.60811
686.12        66.78391
686.54        66.82379
686.97         66.7043
687.39        66.61389
687.82        66.53967
688.24        66.26034
688.66        65.87993
689.09        65.84338
689.51        66.14011
689.94        66.30425
690.36        66.31322
690.78        66.45695
691.21        66.73924
691.63         66.9224
692.06        67.05186
692.48        67.44904
692.90         67.9845
693.33        68.17455
693.75        67.97626
694.17        67.55964
694.60        67.10469
695.02        66.86421
695.44        66.83836
695.87         66.8859
696.29        66.92927
696.71        66.65945
697.14        66.24837
697.56        66.49073
697.98        67.24908
698.41        67.58525
698.83        67.43436
699.25        67.31133
699.68        67.26566
700.10        67.24162
700.52        67.26402
700.94        67.25018
701.37        67.18385
701.79        67.44899
702.21        67.51418
702.64        67.55936
703.06        67.46198
703.48        67.32143
703.90        67.13313
704.33        67.28713
704.75         66.9678
705.17        66.96567
705.59        67.04129
706.01         67.1713
706.44        67.34398
706.86        67.55952
707.28        67.78383
707.70        68.06186
708.12        68.31265
708.55        68.26522
708.97        67.96658
709.39        67.77547
709.81        67.73654
710.23        67.64841
710.66        67.53027
711.08        67.55629
711.50        67.68311
711.92        67.76279
712.34         67.7746
712.76        67.76381
713.19        67.73657
713.61        67.75145
714.03        67.79776
714.45        67.84756
714.87        67.90283
715.29        67.97379
715.71        68.05618
716.13        68.15329
716.56        68.20679
716.98        68.20479
717.40        68.11532
717.82        67.95592
718.24        67.80308
718.66        67.77843
719.08        67.90321
719.50        68.13853
719.92        68.39539
720.34        68.52695
720.76         68.4942
721.19        68.34094
721.61        68.14119
722.03        68.00642
722.45        67.97733
722.87        68.02962
723.29        68.12418
723.71        68.19726
724.13        68.22607
724.55        68.22066
724.97        68.22665
725.39        68.31483
725.81        68.48862
726.23        68.71804
726.65        68.90476
727.07        68.89522
727.49        68.67005
727.91        68.29274
728.33        67.89309
728.75        67.67584
729.17        67.69159
729.59        67.87331
730.01        68.14101
730.43        68.35266
730.85          68.453
731.27         68.4912
731.69        68.46619
732.10        68.37597
732.52        68.24505
732.94          68.066
733.36        67.91105
733.78        67.91705
734.20        68.10072
734.62        68.40311
735.04        68.73868
735.46        68.96845
735.88        69.05883
736.30        69.06535
736.72        68.97646
737.13        68.84286
737.55        68.67593
737.97        68.32977
738.39        67.96511
738.81        68.20185
739.23        68.91246
739.65        69.16095
740.06        68.88326
740.48        68.85401
740.90        69.04582
741.32        69.01996
741.74        68.77398
742.16        68.57521
742.57        68.46309
742.99        68.34417
743.41        68.28408
743.83        68.39034
744.25        68.64902
744.67        68.99819
745.08        69.32606
745.50        69.40163
745.92        69.19437
746.34         68.7589
746.75        68.23423
747.17        67.88238
747.59        67.75508
748.01        67.79725
748.42        67.94647
748.84        68.05762
749.26        68.09958
749.68        68.11366
750.09        68.13761
750.51        68.24424
750.93        68.43486
751.35        68.66936
751.76        68.90084
752.18        69.05554
752.60        69.11725
753.01        69.12524
753.43        69.08723
753.85        69.06348
754.27         69.0752
754.68        69.10423
755.10        69.15874
755.52        69.24724
755.93        69.35632
756.35        69.47568
756.77        69.56794
757.18        69.58125
757.60        69.54465
758.02        69.44879
758.43        69.25032
758.85        69.25826
759.26        69.20677
759.68        68.81743
760.10        69.28676
760.51        69.56044
760.93        69.83542
761.34        69.77974
761.76        69.45082
762.18        69.00375
762.59        68.64452
763.01        68.78176
763.42        69.35218
763.84        69.56935
764.26        69.38655
764.67         69.1777
765.09        69.07949
765.50        69.11531
765.92        69.27391
766.33        69.27782
766.75        69.08592
767.16        69.12781
767.58        69.37885
768.00        69.52764
768.41        69.62669
768.83        70.05313
769.24         70.6826
769.66        70.94229
770.07        70.81085
770.49        70.61762
770.90        70.45729
771.32        70.39909
771.73        70.44093
772.15        70.38464
772.56        70.24442
772.97        70.19503
773.39         70.2208
773.80        70.24672
774.22        70.23273
774.63         70.2545
775.05        70.27467
775.46        70.30337
775.88        70.31048
776.29        70.31432
776.70        70.32894
777.12        70.40136
777.53        70.55448
777.95        70.75415
778.36        70.94267
778.77        71.00533
779.19        70.92085
779.60        70.71553
780.02        70.47941
780.43         70.3815
780.84        70.46571
781.26        70.62439
781.67         70.7709
782.09        70.88374
782.50        70.86542
782.91        70.42677
783.33        69.79285
783.74        69.66608
784.15        70.13657
784.57        70.84364
784.98        71.60895
785.39        72.20031
785.81        72.50826
786.22        72.37775
786.63        72.32829
787.04        72.18575
787.46        72.16148
787.87        72.14233
788.28        72.16954
788.70        72.28761
789.11        72.45655
789.52        72.68999
789.93        72.88923
790.35        72.87639
790.76        72.65368
791.17        72.27081
791.58        71.82999
792.00        71.53979
792.41        71.48048
792.82        71.41202
793.23        71.34515
793.65         71.7757
794.06        72.46485
794.47        72.28733
794.88        71.48397
795.29        71.29195
795.71        71.69578
796.12         72.1384
796.53        72.42857
796.94        72.52002
797.35        72.34499
797.76        72.00186
798.18        71.64222
798.59        71.40462
799.00        71.35603
799.41        71.46443
799.82        71.70836
800.23         72.0282
800.64        72.37756
801.06        72.75143
801.47        73.07664
801.88        73.12244
802.29        72.85771
802.70        72.34658
803.11        71.77752
803.52        71.46245
803.93        71.49397
804.34        71.79087
804.75           72.24
805.17        72.66245
805.58        73.01591
805.99         73.1712
806.40        73.15112
806.81        73.33752
807.22        73.59296
807.63        73.13649
808.04        72.14966
808.45        71.64857
808.86        71.74697
809.27        71.92988
809.68        72.10335
810.09        72.31468
810.50        72.50674
810.91        72.67934
811.32        72.79082
811.73         72.7712
812.14         72.6227
812.55        72.35749
812.96        72.10846
813.37        72.11169
813.78        72.41129
814.19        72.92602
814.60        73.48804
815.01        73.83805
815.42        73.90851
815.83         73.7701
816.24        73.49989
816.65        73.25538
817.05        73.11533
817.46        73.01374
817.87        72.96986
818.28        72.96792
818.69        72.99232
819.10        73.05497
819.51        73.13866
819.92        73.19672
820.33        73.20798
820.74        73.17448
821.14        73.08907
821.55        72.97456
821.96        72.83627
822.37        72.70096
822.78        72.60072
823.19        72.58738
823.60        72.68719
824.00        72.90387
824.41        73.21656
824.82        73.69779
825.23        74.31386
825.64        75.00018
826.04        75.63371
826.45         75.9371
826.86        75.87209
827.27         75.5223
827.68        74.96386
828.08        74.35644
828.49        73.75684
828.90        73.15839
829.31        72.70317
829.72        72.59412
830.12        72.89159
830.53        73.53022
830.94        74.25703
831.35        74.54958
831.75        74.29165
832.16        73.57209
832.57        72.80258
832.97        72.61835
833.38        73.12838
833.79        74.12124
834.20        75.21281
834.60        75.74741
835.01        75.51688
835.42        74.78187
835.82        73.82638
836.23        73.07472
836.64        72.68099
837.04        72.52766
837.45        72.57574
837.86        72.83028
838.26        73.25076
838.67        73.80426
839.08         74.3538
839.48        74.62811
839.89          74.555
840.29         74.2104
840.70        73.73393
841.11        73.33109
841.51        73.09467
841.92        72.94483
842.33        72.93781
842.73         73.1632
843.14        73.56306
843.54         74.1774
843.95        74.78957
844.35        75.10358
844.76        75.01063
845.17        74.57314
845.57         74.0368
845.98        73.79259
846.38        73.95148
846.79         74.3957
847.19        74.88693
847.60        74.92219
848.00        74.42525
848.41        73.56463
848.81        72.69041
849.22        72.30626
849.62        72.54242
850.03        73.20261
850.43         74.0487
850.84        74.51888
851.24        74.51027
851.65        74.15886
852.05        73.69041
852.46        73.43586
852.86        73.48146
853.27        73.69579
853.67        73.99277
854.07         74.4565
854.48        75.00064
854.88        75.74361
855.29        76.32479
855.69        76.32531
856.10        75.53785
856.50        74.20351
856.90        72.81642
857.31         72.1049
857.71          72.209
858.12        72.87262
858.52        73.82564
858.92        74.32397
859.33        74.10742
859.73        73.46604
860.13         72.5654
860.54        71.68719
860.94        70.96827
861.34        70.30714
861.75        69.84554
862.15        69.89001
862.55        70.44765
862.96        71.42214
863.36        72.51166
863.76        73.11891
864.17        73.08914
864.57        72.58328
864.97         71.8656
865.38        71.40394
865.78        71.36711
866.18        71.59109
866.58        71.92567
866.99        72.10347
867.39        72.07035
867.79        71.94209
868.19        71.74577
868.60        71.46542
869.00        71.11902
869.40        70.68819
869.80        70.34378
870.21        70.40932
870.61        70.97736
871.01        71.86909
871.41        72.72773
871.81        73.01455
872.22        72.62167
872.62        71.73492
873.02        70.64156
873.42        69.82695
873.82        69.47131
874.22        69.45269
874.63        69.68712
875.03         70.0272
875.43        70.39786
875.83        70.84369
876.23        71.31692
876.63        71.73024
877.03        72.04942
877.44        72.23359
877.84        72.32289
878.24        72.35816
878.64        72.35243
879.04         72.2996
879.44        72.19261
879.84        72.01627
880.24        71.78003
880.64        71.51106
881.04        71.25861
881.44        71.08366
881.84         71.0082
882.24        71.02818
882.65        71.07848
883.05        71.15007
883.45        71.18515
883.85        71.19209
884.25        71.22976
884.65        71.39014
885.05        71.68835
885.45        72.09463
885.85        72.50338
886.25        72.74021
886.65        72.74634
887.05        72.54587
887.45        72.27138
887.85        72.13512
888.25        72.18443
888.65        72.37292
889.04        72.52381
889.44        72.32935
889.84        71.76067
890.24         70.9285
890.64        70.11179
891.04        69.69794
891.44        69.76598
891.84         70.2319
892.24        70.80318
892.64        70.97925
893.04        70.64846
893.44        69.95602
893.83        69.28752
894.23        69.25043
894.63        69.92418
895.03        71.10833
895.43        72.35315
895.83        72.84501
896.23        72.38776
896.63        71.31878
897.02        70.05186
897.42         69.2795
897.82        69.11053
898.22        69.37647
898.62        69.95358
899.01        70.65904
899.41        71.32748
899.81        72.02696
900.21        72.72858
900.61        73.37025
901.00        73.90204
901.40        74.25571
901.80        74.37133
902.20        74.19851
902.59        73.77023
902.99        73.14769
903.39        72.47175
903.79        71.95921
904.18        71.66534
904.58        71.55714
904.98        71.58991
905.38        71.68765
905.77        71.80605
906.17        72.00052
906.57        72.14732
906.96         72.0602
907.36        71.70822
907.76        71.14597
908.15        70.65436
908.55        70.65284
908.95        71.23022
909.34        72.25189
909.74        73.34103
910.14        73.95487
910.53        73.93344
910.93        73.44573
911.33        72.73798
911.72        72.20198
912.12        71.98591
912.52        71.96448
912.91        72.03503
913.31        72.02599
913.70        71.89574
914.10        71.73286
914.49         71.6032
914.89        71.56829
915.29        71.64829
915.68        71.79513
916.08        71.98761
916.47        72.21954
916.87        72.46877
917.26        72.74426
917.66        72.98596
918.05        73.10123
918.45        73.07381
918.84        72.95346
919.24        72.83521
919.64        72.96897
920.03        73.40449
920.42        74.02203
920.82         74.6378
921.21        75.00361
921.61        75.02598
922.00        74.79307
922.40        74.36864
922.79        73.96268
923.19        73.65329
923.58        73.40382
923.98        73.18549
924.37        72.88802
924.77        72.52636
925.16        72.13596
925.55        71.81387
925.95        71.67308
926.34        71.76948
926.74        72.02742
927.13        72.43134
927.52        72.86101
927.92        73.24856
928.31        73.61324
928.70        73.92518
929.10        74.16808
929.49        74.35404
929.89         74.4714
930.28        74.49965
930.67        74.37297
931.07        74.08388
931.46        73.64524
931.85        73.22324
932.24        73.08783
932.64        73.28795
933.03        73.80399
933.42        74.30966
933.82        74.30937
934.21        73.72591
934.60        72.69168
934.99        71.71046
935.39         71.5245
935.78         72.3114
936.17         73.8938
936.56        75.61613
936.96        76.26556
937.35        75.55904
937.74        73.84453
938.13        71.96296
938.53        71.03733
938.92        71.24274
939.31        72.29184
939.70        73.59704
940.09         74.0919
940.49        73.48679
940.88        72.18173
941.27         70.7706
941.66        70.11842
942.05         70.4358
942.44        71.44798
942.84        72.74863
943.23        73.68485
943.62        73.94888
944.01        73.76803
944.40        73.38129
944.79        73.16521
945.18        73.23902
945.57        73.43208
945.97        73.67688
946.36        73.99259
946.75        74.31847
947.14        74.70419
947.53        75.02214
947.92        75.01954
948.31        74.65815
948.70        74.01412
949.09        73.34884
949.48        73.05828
949.87        73.24125
950.26        73.82713
950.65        74.57536
951.04        75.05096
951.43        75.11536
951.82        74.84948
952.21        74.53573
952.60        74.62553
952.99        75.17273
953.38         76.0032
953.77        76.71895
954.16        76.63245
954.55        75.63237
954.94        74.06989
955.33        72.37708
955.72        71.19182
956.11         70.7042
956.50        70.67118
956.89        71.08218
957.28        71.92583
957.66        73.12534
958.05        74.56875
958.44        75.76142
958.83        75.74534
959.22         74.3831
959.61        72.08285
960.00        69.61097
960.39        68.05515
960.78        67.67451
961.16        68.19368
961.55        69.31942
961.94        70.64395
962.33        71.92474
962.72        73.26857
963.11        74.40541
963.49        74.84656
963.88         74.4545
964.27        73.39455
964.66        72.08766
965.04        71.16415
965.43        70.75808
965.82         70.6964
966.21        70.89342
966.60        71.14614
966.98        71.35947
967.37        71.61684
967.76         71.7557
968.15        71.46683
968.53        70.73694
968.92        69.62368
969.31        68.52512
969.69        68.09085
970.08        68.41417
970.47        69.33503
970.86        70.42498
971.24        70.89629
971.63        70.45113
972.02         69.3785
972.40        68.06867
972.79        67.14262
973.17        66.80801
973.56        66.89729
973.95         67.2215
974.33        67.52032
974.72        67.63651
975.11        67.56618
975.49        67.57961
975.88        68.10989
976.26        69.27842
976.65        70.89953
977.04        72.16549
977.42        71.79586
977.81        69.65958
978.19        66.20271
978.58        63.02433
978.96        62.26175
979.35        64.32137
979.74        68.73464
980.12        74.14679
980.51        77.16037
980.89        76.79059
981.28         73.7967
981.66        69.89777
982.05        68.01173
982.43        68.88482
982.82        71.56303
983.20        75.10196
983.59        77.71227
983.97        78.83368
984.35         79.0336
984.74        78.37737
985.12        77.04877
985.51        75.26064
985.89        72.90582
986.28        70.69709
986.66        69.67426
987.04        70.15717
987.43        71.89854
987.81        74.15564
988.20         75.3718
988.58        75.12897
988.96        73.67613
989.35        71.81911
989.73        70.86376
990.12        71.11053
990.50        72.26063
990.88        73.42607
991.27        73.19955
991.65        71.40798
992.03        68.59247
992.42        65.92909
992.80        64.93801
993.18        66.06023
993.56        68.76001
993.95        72.00572
994.33        74.29531
994.71         74.8692
995.10        74.16137
995.48         72.6824
995.86        71.31234
996.24        70.43837
996.63         69.7998
997.01         69.3223
997.39        68.90505
997.77        68.50452
998.15        68.24964
998.54        68.18087
998.92        68.30967
999.30        68.62598
999.68        69.08104
1000.06         69.5666
1000.45        69.88832
1000.83        70.10786
1001.21        70.19181
1001.59        70.20027
1001.97        70.25993
1002.35        70.42021
1002.73        70.64349
1003.12        70.94743
1003.50        71.30012
1003.88        71.70029
1004.26        72.15685
1004.64        72.57514
1005.02        72.81353
1005.40         72.8521
1005.78        72.70369
1006.16        72.50541
1006.54         72.5039
1006.92        72.72801
1007.30        73.07696
1007.69         73.2709
1008.07        73.08751
1008.45        72.40363
1008.83        71.40161
1009.21        70.28892
1009.59        69.39192
1009.97        68.86005
1010.35        68.61346
1010.73        68.78048
1011.11        69.55544
1011.49        70.97836
1011.86         73.2277
1012.24        75.67622
1012.62        77.58794
1013.00        78.67072
1013.38        78.92859
1013.76         79.0036
1014.14        80.21428
1014.52        82.83838
1014.90         86.3961
1015.28        89.65525
1015.66        90.43759
1016.04        88.41749
1016.41        84.72012
1016.79        80.78608
1017.17        77.60047
1017.55        75.06489
1017.93        72.61246
1018.31        70.08994
1018.69         67.9669
1019.06        66.91838
1019.44        67.10193
1019.82        67.82477
1020.20         68.3241
1020.58         68.5608
1020.95        68.61122
1021.33        68.91531
1021.71        70.18985
1022.09        72.48649
1022.46        75.14874
1022.84        77.41828
1023.22        78.72239
1023.60         78.9077
1023.97        78.36644
1024.35        76.64442
1024.73        73.13818
