SpectraSmart Spectrum 2.9.0.0
--------- Device Information -----------
Spectrum Name :  反射率_0
Saving Time :  2024/05/01 15:56:37
Spectro-Module Model Name : SE2030-DUVN
Spectro-Module Serial Number : OS361AC55029948
Wavelength Start : 200
Wavelength End : 1025
Wavelength Unit : Wavelength(nm)
Spectrum Unit : Reflectance(%)
-----------Spectrum Setting ------------
Integration Time : 20ms
Average : 10
Boxcar : 0
Background removal :  enabled
linearity correction :  enabled
SC :  disabled
Intensity correction :  disabled
DWT denoise :  enabled
savitzky-golay :  disabled
FFT :  disabled
Running average :  disabled
Kalman :  disabled
High pass :  disabled
---------------BEGIN--------------------
Wavelength(nm)             Reflectance(%)
200.29               0
200.75        194.7564
201.21        714.8881
201.67       -248.8009
202.13       -72.01386
202.58       -17.92447
203.04        13.61523
203.50        32.30273
203.96        38.85835
204.42        34.25341
204.88        3.665434
205.34       -812.3828
205.80        160.7603
206.26        91.98294
206.72        23.89581
207.18       -241.5366
207.64        448.2816
208.10        178.4109
208.55        98.71396
209.01        55.54922
209.47        37.51927
209.93        35.64367
210.39        41.10324
210.85        49.29862
211.31        54.43587
211.77        50.64404
212.23        99.60064
212.69        75.49992
213.14        85.20589
213.60         130.791
214.06       -385.6306
214.52       -27.01963
214.98       0.4896137
215.44        14.55511
215.90        39.17092
216.36        356.4035
216.81       -121.2861
217.27       -126.3858
217.73        174.2065
218.19        11.48607
218.65       -12.86257
219.11       -39.82988
219.57       -110.0266
220.02       -387.3455
220.48        -203.637
220.94       -57.85759
221.40       -19.61484
221.86       -5.510478
222.32       0.9776384
222.77        5.355517
223.23        9.737093
223.69        14.84536
224.15        18.60994
224.61        19.28155
225.06        17.99991
225.52        17.11465
225.98        17.96914
226.44        20.61888
226.90        25.02335
227.36        30.41318
227.81        32.67408
228.27        30.31059
228.73        26.22695
229.19        22.57605
229.65        20.17133
230.10        18.62986
230.56         17.5668
231.02        17.04213
231.48        17.47663
231.93        18.76435
232.39        20.52055
232.85        22.28029
233.31        23.72817
233.77        24.86293
234.22        25.83061
234.68        26.54264
235.14        27.11185
235.60        27.64885
236.05        28.17534
236.51        29.00804
236.97        30.62542
237.43        33.00496
237.88        35.73905
238.34        37.87512
238.80        39.11235
239.26        39.55453
239.71        39.29897
240.17        37.84311
240.63        34.83627
241.08        31.50831
241.54        29.43186
242.00        30.06887
242.46        34.73086
242.91        45.13937
243.37        64.27491
243.83        96.23177
244.28         122.896
244.74        119.7902
245.20        102.5761
245.66        86.92091
246.11        77.09429
246.57        70.58267
247.03        63.65344
247.48        52.66307
247.94        34.62374
248.40        13.92778
248.85       -2.718727
249.31       -6.828384
249.77        2.872782
250.22        18.68096
250.68        34.46393
251.14        46.84624
251.59        55.18396
252.05         61.5696
252.51        68.81348
252.96        81.16354
253.42        101.8737
253.88        107.3268
254.33        92.19201
254.79        79.74496
255.25         71.9276
255.70        66.41216
256.16        62.90464
256.62        61.16944
257.07        61.19016
257.53        62.61776
257.99        64.39474
258.44        65.67254
258.90        66.29539
259.35        65.98307
259.81        65.24483
260.27        64.25193
260.72        63.33583
261.18        62.80852
261.63        62.22807
262.09        61.53207
262.55        60.22322
263.00        58.28263
263.46        56.12864
263.91        53.98042
264.37         52.4295
264.83         51.4361
265.28        50.79553
265.74        50.27138
266.19        49.28313
266.65         47.8816
267.11        46.17916
267.56        44.55914
268.02        43.71196
268.47        43.68383
268.93        44.17459
269.38        44.70683
269.84        44.46824
270.30        43.29883
270.75        41.49846
271.21        39.43925
271.66        37.54718
272.12        36.05318
272.57        34.77531
273.03         33.8213
273.48        33.30132
273.94        33.18385
274.39        33.38079
274.85        33.61135
275.31        33.40084
275.76        32.67477
276.22        31.63396
276.67        30.49391
277.13        29.66633
277.58        29.17339
278.04        28.92574
278.49        28.75539
278.95        28.52624
279.40        28.14743
279.86        27.71992
280.31        27.26096
280.77        26.87164
281.22        26.52461
281.68        26.24006
282.13        25.92356
282.59        25.53136
283.04         25.0428
283.50        24.53466
283.95        24.09646
284.41        23.91297
284.86        23.99189
285.32        24.26871
285.77        24.62576
286.22        24.93591
286.68        25.16423
287.13        25.32737
287.59        25.43751
288.04        25.47072
288.50        25.46397
288.95        25.38629
289.41        25.32781
289.86        25.34835
290.32        25.49135
290.77        25.74119
291.22        26.05563
291.68         26.3502
292.13        26.61884
292.59        26.93572
293.04        27.35808
293.50          28.023
293.95        28.93746
294.40        30.05607
294.86        31.33003
295.31        32.68915
295.77        34.08531
296.22        35.51756
296.68        36.93656
297.13        38.25877
297.58        39.50562
298.04        40.72422
298.49        41.99873
298.95        43.50082
299.40        45.22234
299.85        47.09057
300.31        49.03926
300.76        50.96062
301.21        52.84223
301.67        54.73487
302.12        56.56049
302.58        58.22291
303.03        59.66697
303.48        60.93628
303.94        62.22873
304.39        63.74648
304.84        65.58741
305.30        67.68101
305.75        69.84101
306.20        71.80056
306.66        73.48262
307.11        74.90539
307.57        76.20061
308.02        77.46215
308.47        78.76083
308.93        80.06293
309.38        81.27697
309.83        82.35567
310.29         83.3071
310.74        84.15704
311.19        84.96612
311.65        85.79659
312.10        86.64658
312.55        87.49271
313.00        88.35416
313.46         89.2655
313.91         90.2012
314.36        91.14114
314.82        91.95947
315.27        92.47003
315.72        92.62922
316.18        92.53351
316.63        92.30077
317.08        92.17777
317.53        92.23831
317.99        92.42371
318.44        92.69143
318.89        92.94337
319.35        93.14491
319.80        93.35059
320.25        93.54932
320.70        93.72079
321.16        93.85554
321.61        93.95773
322.06        94.08313
322.51        94.35047
322.97        94.74983
323.42        95.27346
323.87        95.77628
324.32        96.04115
324.78         96.0111
325.23         95.7913
325.68        95.49519
326.13        95.33083
326.59        95.34947
327.04        95.53818
327.49        95.84922
327.94        96.22251
328.39        96.61662
328.85        97.00938
329.30        97.43014
329.75        97.77514
330.20        98.02701
330.66        98.17727
331.11        98.29478
331.56         98.3904
332.01        98.49268
332.46         98.5893
332.92        98.73934
333.37        99.14096
333.82        99.79066
334.27        100.6715
334.72        101.5943
335.17         102.216
335.63         102.427
336.08        102.3647
336.53        102.2488
336.98        102.5062
337.43        103.2421
337.88        104.3217
338.34        105.4856
338.79        106.3754
339.24        106.8279
339.69        106.9536
340.14        106.9153
340.59         106.971
341.05        107.2012
341.50        107.5552
341.95        107.9377
342.40        108.2034
342.85         108.328
343.30        108.3845
343.75        108.5066
344.20        108.8844
344.66         109.541
345.11        110.3919
345.56        111.2841
346.01        111.9571
346.46        112.3362
346.91         112.513
347.36        112.5814
347.81        112.6915
348.26        112.9013
348.72        113.1644
349.17        113.4791
349.62        113.9128
350.07        114.4276
350.52        114.9695
350.97        115.4042
351.42        115.5023
351.87        115.2335
352.32        114.7248
352.77        114.0378
353.22        113.2773
353.67        112.5184
354.13         111.752
354.58        111.1474
355.03        111.0656
355.48        111.5277
355.93        112.4618
356.38         113.389
356.83        113.5004
357.28        112.6434
357.73        111.0679
358.18        109.4175
358.63        108.6588
359.08        108.9626
359.53        110.0121
359.98        111.2118
360.43         111.563
360.88        110.8001
361.33        109.2732
361.78        107.4826
362.23          106.14
362.68        105.4313
363.13         105.133
363.58        104.9738
364.03         104.547
364.48        103.7303
364.93        102.6534
365.38        101.5393
365.83        100.6932
366.28        100.1728
366.73        99.88753
367.18        99.54777
367.63        98.71133
368.08        97.33983
368.53        95.62769
368.98        94.00618
369.43        93.09332
369.88         92.9884
370.33        93.47771
370.78        94.16439
371.23        94.35049
371.68        93.81812
372.13        92.79271
372.58        91.54463
373.03        90.47939
373.48         89.7155
373.93        89.10222
374.38        88.59721
374.83        88.15421
375.28        87.73792
375.72        87.38482
376.17        87.03172
376.62        86.49952
377.07        85.77094
377.52        84.88813
377.97        84.00351
378.42         83.3715
378.87        83.04047
379.32        82.92479
379.77        82.87316
380.22        82.64866
380.67        82.19271
381.11         81.5888
381.56         80.9276
382.01        80.37965
382.46        80.00285
382.91        79.73906
383.36        79.54192
383.81        79.34231
384.26        79.10825
384.71        78.86312
385.15         78.5873
385.60        78.29248
386.05        77.96966
386.50         77.6176
386.95         77.2534
387.40         76.9161
387.85        76.61356
388.29        76.28671
388.74          76.017
389.19         75.7382
389.64        75.44138
390.09        75.13288
390.54        74.80204
390.98        74.43758
391.43        74.10038
391.88        73.72732
392.33         73.3604
392.78        73.19861
393.23        73.18674
393.67        72.93964
394.12        72.53653
394.57        72.37578
395.02        72.34972
395.47        71.82373
395.91        70.97285
396.36        70.57655
396.81        70.71188
397.26        71.01357
397.71        71.24167
398.15        71.24537
398.60        71.02432
399.05        70.29383
399.50        69.41698
399.95        69.41553
400.39        70.18354
400.84        70.48926
401.29        70.16732
401.74        69.92677
402.18        69.73386
402.63        69.01917
403.08        68.03947
403.53        67.50084
403.97        67.47535
404.42        67.73138
404.87        68.07834
405.32        68.21155
405.76        68.03603
406.21        67.79218
406.66        67.52969
407.11        67.09697
407.55        66.69001
408.00        66.72493
408.45         67.1265
408.90        67.48998
409.34        67.57748
409.79        67.09792
410.24        66.28333
410.68        65.91216
411.13        66.06635
411.58         66.2929
412.03         66.4761
412.47        66.63041
412.92        66.67822
413.37        66.63783
413.81        66.53906
414.26        66.48175
414.71        66.47169
415.15        66.49274
415.60        66.52229
416.05        66.57996
416.49        66.66162
416.94        66.75851
417.39        66.84092
417.83        66.84502
418.28        66.76656
418.73        66.63306
419.17         66.4801
419.62        66.36974
420.07        66.31873
420.51        66.29616
420.96        66.34454
421.41        66.42097
421.85        66.48729
422.30        66.69299
422.74        66.95038
423.19        66.96375
423.64         66.8215
424.08          67.105
424.53        67.70082
424.98        67.98457
425.42        67.88846
425.87        67.77307
426.31        67.74585
426.76        67.64271
427.21        67.58008
427.65        68.01779
428.10        68.68243
428.54        68.77866
428.99        68.40291
429.44        67.83279
429.88         67.3201
430.33        67.90391
430.77         69.0948
431.22        68.87437
431.66         67.5041
432.11        67.22221
432.56        68.06612
433.00        68.74126
433.45        68.97262
433.89        68.93303
434.34        67.73096
434.78        69.42158
435.23        69.24947
435.67         69.5781
436.12         69.2087
436.57        69.58663
437.01        70.58413
437.46        71.03661
437.90        70.83342
438.35        70.51505
438.79        70.51759
439.24        70.20763
439.68        69.81012
440.13        69.96712
440.57         70.6118
441.02        70.85543
441.46        70.54914
441.91        71.21244
442.35        70.89304
442.80        71.01709
443.24        71.03623
443.69        71.10547
444.13        71.18192
444.58         71.2475
445.02        71.29053
445.47         71.3601
445.91        71.49976
446.36        71.68896
446.80        71.89698
447.24        72.46735
447.69         72.6915
448.13        72.91135
448.58        72.93142
449.02        72.79057
449.47        72.60902
449.91        72.54271
450.36         72.6551
450.80        72.86986
451.25        73.10863
451.69        73.20384
452.13        73.12352
452.58        72.92082
453.02        72.66638
453.47        72.50579
453.91        72.46006
454.36        72.52066
454.80         72.6047
455.24        72.51286
455.69        72.22709
456.13        71.92545
456.58        71.81881
457.02        71.34761
457.46        71.80522
457.91        72.12585
458.35         72.4992
458.79        72.51012
459.24        72.12853
459.68        71.66904
460.13        71.39842
460.57        70.33025
461.01         70.5415
461.46        70.46864
461.90        70.64268
462.34        70.49887
462.79        70.47102
463.23        70.67229
463.68         71.0804
464.12        71.18432
464.56        70.95329
465.01        70.65598
465.45        70.35391
465.89         70.3194
466.34        70.45457
466.78        70.40607
467.22        70.17274
467.67        69.67379
468.11        69.85196
468.55        69.94173
468.99        70.13342
469.44        70.21904
469.88        70.18603
470.32        70.13857
470.77         70.0943
471.21        70.06735
471.65        70.04911
472.10        70.04546
472.54        70.02475
472.98        69.94098
473.42        69.78379
473.87        69.68025
474.31        69.59024
474.75        69.29021
475.20        68.87356
475.64        68.89405
476.08        69.30617
476.52        69.33312
476.97        68.93611
477.41        69.65477
477.85        68.72928
478.29        69.47749
478.74        69.51743
479.18        69.42529
479.62        68.88068
480.06        68.66422
480.50          68.811
480.95        68.50701
481.39        69.26563
481.83        68.26644
482.27        68.58801
482.72        68.75441
483.16        68.80106
483.60        68.40031
484.04        69.04737
484.48        68.99476
484.93        69.01762
485.37        69.70661
485.81        69.57469
486.25        70.42571
486.69        69.85145
487.14        67.52671
487.58        67.06529
488.02        69.10019
488.46         68.6655
488.90        67.76212
489.34         68.7874
489.79        68.60126
490.23        68.67807
490.67        68.44888
491.11        68.19357
491.55        68.33221
491.99        68.74239
492.43          68.858
492.88        68.62752
493.32        68.41984
493.76        68.29681
494.20        68.23044
494.64        68.22552
495.08        68.24744
495.52        68.32438
495.96        68.46168
496.41        68.52332
496.85        68.95872
497.29        68.48246
497.73        68.22221
498.17        67.91899
498.61        67.77782
499.05        67.72736
499.49        67.99136
499.93        68.40161
500.37        68.55455
500.82        68.52951
501.26        68.33135
501.70        68.64328
502.14        68.63896
502.58        68.49323
503.02         68.3173
503.46        68.13255
503.90        67.89587
504.34        67.68937
504.78        67.66691
505.22        67.84381
505.66        68.18565
506.10        68.55619
506.54        68.69788
506.98        68.55263
507.42        68.29529
507.86        67.89091
508.30         67.6667
508.74        67.63187
509.18        67.72858
509.62        67.90363
510.06        68.07348
510.50        68.20107
510.94        68.31013
511.38        68.39011
511.82        68.42214
512.26        68.40564
512.70        68.32376
513.14        68.17745
513.58        68.08294
514.02        68.07504
514.46        67.94964
514.90        67.63544
515.34        68.05383
515.78        67.55249
516.22        67.47424
516.66        67.37309
517.10         67.3546
517.54        67.41762
517.98        67.55441
518.42        67.72658
518.86        67.82493
519.30        67.82933
519.74        67.76883
520.18        67.68397
520.62        67.64424
521.06        67.66441
521.50        67.71041
521.93        67.76869
522.37        67.80766
522.81        67.82064
523.25        67.83073
523.69        67.80651
524.13        67.69432
524.57        67.50194
525.01        67.25016
525.45        67.03584
525.89        67.01185
526.32        67.19746
526.76        67.53619
527.20        67.90538
527.64        68.10741
528.08        68.09029
528.52        67.92036
528.96        67.67528
529.40        67.47864
529.83        67.36772
530.27        67.32226
530.71        67.33333
531.15        67.40374
531.59        67.52325
532.03        67.69224
532.46        67.86262
532.90        67.97434
533.34        68.00821
533.78        67.91912
534.22        67.75263
534.66        67.70235
535.09        67.72362
535.53        67.56096
535.97        67.23895
536.41        67.03681
536.85        66.97631
537.28        66.91003
537.72        66.85477
538.16        66.89664
538.60        67.02519
539.04        67.19998
539.47        67.36336
539.91        67.46582
540.35        67.47466
540.79        67.43938
541.22        67.37112
541.66        67.19688
542.10        67.10584
542.54        66.95588
542.97        66.83945
543.41        66.85301
543.85        66.99256
544.29        67.23373
544.72        67.47427
545.16        67.59002
545.60        67.53773
546.04        67.34757
546.47        67.11168
546.91        66.99661
547.35        67.04708
547.79        67.19465
548.22        67.30805
548.66        67.33119
549.10        67.24036
549.53          66.771
549.97        66.61373
550.41        66.51636
550.84        66.68772
551.28        67.03354
551.72        67.44331
552.15        67.72377
552.59        67.81293
553.03        67.79601
553.46        67.55441
553.90         67.4683
554.34        67.52648
554.77        67.46331
555.21        67.23348
555.65        67.63017
556.08        67.33104
556.52         67.2297
556.96         66.9874
557.39        66.83082
557.83        66.82182
558.27        66.88303
558.70        66.96796
559.14        67.22927
559.57        67.05801
560.01        67.19241
560.45        67.35466
560.88        67.22259
561.32        66.93108
561.75         66.6483
562.19         66.5304
562.63        66.93839
563.06         67.6339
563.50        67.52276
563.93        66.73158
564.37         66.4844
564.80        66.79699
565.24        67.01286
565.68        67.03934
566.11        67.07049
566.55        67.11935
566.98        67.02628
567.42        66.91127
567.85        67.07598
568.29        67.46192
568.72        67.59514
569.16        67.55268
569.60        67.50301
570.03        67.38114
570.47        67.48615
570.90        67.78842
571.34        66.79234
571.77        67.32071
572.21        67.23563
572.64        67.45485
573.08        67.12228
573.51        67.53123
573.95        68.03078
574.38        67.37827
574.82        67.38475
575.25         67.5758
575.69        68.26099
576.12        67.69849
576.56        67.24177
576.99        67.69254
577.42        67.81542
577.86        67.87717
578.29        67.94238
578.73        68.47488
579.16         67.6479
579.60        66.68913
580.03        67.04037
580.47        67.55535
580.90        67.01892
581.33        68.07097
581.77        67.70506
582.20         68.1937
582.64        67.97581
583.07        67.76891
583.51        67.38442
583.94         67.1685
584.37        67.38657
584.81           68.04
585.24        68.08218
585.68        67.44279
586.11        68.05155
586.54         67.9697
586.98        66.92268
587.41        66.84264
587.85        67.79802
588.28        67.49003
588.71        66.62929
589.15        67.58305
589.58        66.61196
590.01        66.75565
590.45        66.72207
590.88        67.09856
591.31        67.27319
591.75        67.14532
592.18        66.85336
592.61        66.31007
593.05        66.80629
593.48        66.92795
593.91        67.40425
594.35        66.76437
594.78        66.59924
595.21        66.48516
595.65        67.32218
596.08        66.87506
596.51        66.91739
596.94        66.50365
597.38        66.45087
597.81        66.72675
598.24        66.46321
598.68        67.28353
599.11        66.50278
599.54        67.52631
599.97        67.15958
600.41        66.65728
600.84        67.27075
601.27        66.93118
601.70        67.40602
602.14        67.75013
602.57        67.44893
603.00        66.98298
603.43         66.6467
603.87        67.00149
604.30        67.40335
604.73        67.12974
605.16        66.51482
605.60        66.78214
606.03        66.94293
606.46        67.17358
606.89         67.3009
607.32        66.67326
607.76        66.50137
608.19        66.62202
608.62        67.09473
609.05        67.02583
609.48        66.99847
609.92        66.94559
610.35        66.23672
610.78        67.54723
611.21         67.8665
611.64        67.37814
612.07        67.47551
612.50        67.54291
612.94        67.42848
613.37         67.0147
613.80        67.03725
614.23        66.74628
614.66        67.09621
615.09        66.79237
615.52        66.83945
615.96        66.91266
616.39        67.01424
616.82        67.12083
617.25        67.22223
617.68        67.27848
618.11        67.18192
618.54        66.96291
618.97        66.75243
619.40        66.63821
619.84        66.56338
620.27        66.55117
620.70        66.91161
621.13        67.53351
621.56        67.08898
621.99        66.64373
622.42        66.64165
622.85        67.08279
623.28        66.85712
623.71        66.86607
624.14        66.87988
624.57         67.1376
625.00        67.23858
625.43        67.16463
625.86        67.04694
626.29        66.88595
626.72        66.77583
627.15        66.64625
627.58        66.48122
628.01        66.27711
628.44        66.37096
628.87        66.60108
629.30        66.38166
629.73        66.49245
630.16        66.44228
630.59        66.46339
631.02        66.47479
631.45        66.49567
631.88        66.33325
632.31        66.40518
632.74        66.36224
633.17        66.34648
633.60        66.37672
634.03        66.45538
634.46        66.57002
634.89         66.6709
635.32        66.68657
635.75        66.60065
636.18        66.43557
636.61        66.24236
637.04        66.10663
637.47         66.0579
637.89        66.06229
638.32        66.06133
638.75        66.06217
639.18        66.06483
639.61        65.80859
640.04        65.81886
640.47        65.74274
640.90        65.74121
641.33        65.77362
641.76        65.81304
642.18        65.90847
642.61          66.048
643.04        66.07585
643.47        65.92914
643.90        66.44222
644.33        66.18072
644.76        66.19881
645.18         66.1227
645.61        66.28732
646.04         66.5914
646.47        66.50043
646.90        66.10043
647.33        65.97459
647.75        66.15338
648.18        66.29705
648.61        66.36796
649.04        66.40003
649.47        66.35934
649.89        66.39836
650.32        66.46235
650.75        66.10992
651.18        65.52382
651.61        65.63603
652.03        66.38163
652.46        66.49631
652.89        65.92709
653.32        65.92924
653.74        66.55708
654.17        65.73303
654.60        66.31622
655.03        66.55457
655.46        65.96557
655.88        65.97018
656.31        72.32742
656.74        71.17506
657.16        66.08124
657.59        64.75755
658.02        65.73222
658.45         66.2972
658.87        66.75276
659.30        64.86204
659.73        65.65711
660.15        66.76525
660.58        66.02538
661.01        65.95625
661.44        65.65166
661.86        65.71019
662.29        66.05587
662.72         66.3447
663.14        66.52921
663.57        66.60863
664.00        66.61069
664.42        66.61035
664.85        66.62104
665.27        66.54077
665.70        66.39127
666.13        66.27735
666.55        66.22684
666.98        66.19568
667.41        66.21026
667.83        66.31834
668.26        66.49767
668.69        66.73044
669.11        66.95478
669.54        67.08506
669.96        67.08778
670.39        66.95302
670.82        66.75209
671.24        66.58488
671.67        66.51798
672.09          66.618
672.52        66.82513
672.94        66.89008
673.37        66.78694
673.80        66.63444
674.22        66.48586
674.65        66.35177
675.07        66.27267
675.50         66.2298
675.92        66.22576
676.35        66.25501
676.77          66.313
677.20         66.3973
677.62        66.50466
678.05        66.57309
678.47        66.58192
678.90        66.61817
679.32        66.70267
679.75        66.49054
680.17        66.62722
680.60        66.59314
681.02        66.57285
681.45        66.51917
681.87        66.44846
682.30        66.37241
682.72        66.31763
683.15        66.27576
683.57        66.27061
684.00        66.35606
684.42         66.5028
684.85        66.58813
685.27        66.57243
685.70        66.59232
686.12        66.61837
686.54         66.4109
686.97        66.05179
687.39        66.04897
687.82        66.32802
688.24        66.25017
688.66         65.8754
689.09        65.87626
689.51        66.25565
689.94        66.47412
690.36         66.5102
690.78        66.63817
691.21        66.86655
691.63        67.03484
692.06        67.16613
692.48        67.44407
692.90        67.76896
693.33        67.83766
693.75        67.62794
694.17        67.21456
694.60        66.77701
695.02        66.59656
695.44        66.66178
695.87        66.84251
696.29        67.02247
696.71        66.76598
697.14        66.25933
697.56        66.46975
697.98        67.26423
698.41        67.54384
698.83        67.27462
699.25        67.16892
699.68        67.25968
700.10        67.28416
700.52        67.24473
700.94        67.20563
701.37        67.18633
701.79        67.30606
702.21        67.49236
702.64        67.55777
703.06        67.49081
703.48        67.34689
703.90        67.11544
704.33         67.1864
704.75        66.77036
705.17        66.71081
705.59        66.78326
706.01        66.95618
706.44        67.17547
706.86        67.39056
707.28        67.55992
707.70        67.68824
708.12        67.76849
708.55        67.77898
708.97        67.71909
709.39        67.60319
709.81        67.45991
710.23        67.34912
710.66        67.29193
711.08        67.28995
711.50        67.32396
711.92        67.37273
712.34        67.42699
712.76        67.49606
713.19        67.54887
713.61         67.5826
714.03         67.5724
714.45        67.51569
714.87        67.45723
715.29        67.46738
715.71        67.55756
716.13        67.71712
716.56        67.85685
716.98        67.89831
717.40        67.78858
717.82        67.58286
718.24        67.39842
718.66        67.29836
719.08        67.50981
719.50        67.82072
719.92        68.15418
720.34         68.2854
720.76        68.16348
721.19        67.85693
721.61        67.49844
722.03        67.29601
722.45        67.31281
722.87        67.49654
723.29        67.75114
723.71        67.91838
724.13          67.945
724.55        67.86298
724.97        67.76433
725.39        67.79467
725.81         67.9787
726.23        68.26814
726.65        68.51504
727.07         68.4883
727.49        68.15526
727.91         67.6056
728.33        67.04383
728.75        66.78905
729.17        66.91333
729.59        67.31452
730.01        67.81915
730.43        68.12836
730.85        68.15005
731.27        67.98462
731.69        67.72691
732.10        67.52602
732.52        67.44463
732.94        67.41038
733.36        67.42513
733.78        67.55102
734.20        67.78279
734.62        67.92142
735.04        68.25161
735.46        68.37793
735.88        68.39311
736.30        68.36514
736.72        68.31042
737.13         68.2535
737.55        68.19024
737.97        68.07821
738.39        67.97803
738.81        68.15099
739.23        68.52309
739.65        68.64975
740.06        68.49012
740.48        68.45108
740.90        68.51182
741.32        68.47023
741.74        68.31692
742.16        68.17845
742.57        68.07904
742.99        67.94224
743.41        67.85283
743.83        67.99692
744.25        68.34132
744.67        68.69392
745.08        68.94116
745.50        68.96304
745.92        68.73902
746.34        68.26521
746.75         67.6923
747.17        67.32928
747.59        67.23177
748.01         67.3271
748.42        67.55054
748.84        67.75202
749.26        67.88763
749.68        67.99335
750.09        68.07899
750.51        68.17641
750.93        68.28326
751.35        68.37488
751.76        68.43983
752.18        68.46321
752.60        68.44889
753.01        68.42637
753.43        68.39087
753.85        68.37339
754.27        68.38967
754.68         68.4411
755.10        68.53357
755.52        68.66856
755.93        68.82578
756.35        68.97958
756.77        69.11115
757.18        69.19045
757.60        69.21972
758.02        69.27296
758.43        69.23145
758.85        69.16612
759.26        68.36198
759.68         68.3593
760.10         68.8703
760.51         69.1557
760.93        69.07877
761.34         68.9798
761.76         68.9054
762.18        68.65655
762.59        68.38082
763.01        68.45329
763.42        68.85841
763.84        69.02594
764.26        68.93774
764.67        68.81105
765.09        68.71661
765.50        68.69324
765.92        68.77129
766.33         68.4185
766.75        68.29179
767.16        68.27477
767.58        68.56827
768.00        68.78667
768.41        68.98782
768.83        69.73455
769.24        70.76463
769.66        71.00738
770.07        70.50739
770.49        70.14898
770.90         70.0638
771.32        70.00456
771.73        69.95871
772.15        69.86116
772.56         69.7293
772.97        69.71131
773.39        69.78135
773.80         69.8428
774.22        69.84882
774.63        69.87859
775.05        69.91364
775.46        69.99458
775.88          70.092
776.29        70.20661
776.70        70.31084
777.12        70.38887
777.53        70.44611
777.95         70.4655
778.36        70.43311
778.77        70.29893
779.19        70.07587
779.60        69.80907
780.02        69.55386
780.43         69.4143
780.84        69.45042
781.26        69.54091
781.67         69.6601
782.09        70.06154
782.50        70.53241
782.91        70.19403
783.33        69.37498
783.74        69.14682
784.15        69.64976
784.57        70.21994
784.98        70.75354
785.39        71.30441
785.81        71.79551
786.22        71.99265
786.63        72.27426
787.04        72.25246
787.46        72.09665
787.87        71.77044
788.28        71.45569
788.70        71.40599
789.11        71.63003
789.52         72.0774
789.93        72.53942
790.35        72.65519
790.76        72.37737
791.17        71.81657
791.58        71.16791
792.00        70.78947
792.41        70.79972
792.82        70.88541
793.23        70.98638
793.65        71.54178
794.06        72.25052
794.47        71.90071
794.88        70.83263
795.29         70.5077
795.71        70.93439
796.12        71.46746
796.53        71.86689
796.94        72.01149
797.35        71.80797
797.76        71.41025
798.18        71.00954
798.59        70.76508
799.00        70.75597
799.41        70.95926
799.82         71.2997
800.23        71.61796
800.64        71.84874
801.06        72.01507
801.47         72.1318
801.88        72.11752
802.29        71.97576
802.70        71.72546
803.11        71.44007
803.52        71.24932
803.93        71.19955
804.34        71.25722
804.75        71.41308
805.17        71.67433
805.58         72.0538
805.99        72.35927
806.40        72.51943
806.81        72.78665
807.22        72.97599
807.63        72.31329
808.04        71.07143
808.45         70.4529
808.86        70.61625
809.27        70.97739
809.68        71.37342
810.09        71.75069
810.50         72.0105
810.91        72.17237
811.32         72.2477
811.73        72.25568
812.14        72.21809
812.55        72.11696
812.96        72.00992
813.37        72.00927
813.78        72.14002
814.19        72.37758
814.60        72.65402
815.01        72.85643
815.42        72.95224
815.83        72.96549
816.24        72.91907
816.65        72.85954
817.05        72.81225
817.46        72.74403
817.87        72.66941
818.28        72.56622
818.69        72.43178
819.10        72.27364
819.51         72.1395
819.92         72.1113
820.33        72.20047
820.74        72.37257
821.14        72.53587
821.55        72.57913
821.96        72.47125
822.37        72.27209
822.78        72.04866
823.19        71.92252
823.60        71.94667
824.00        72.09653
824.41        72.34719
824.82        72.76579
825.23        73.31557
825.64        73.95084
826.04        74.53156
826.45        74.74324
826.86         74.5483
827.27        74.04426
827.68        73.36231
828.08        72.75205
828.49        72.28831
828.90        71.93334
829.31        71.75978
829.72        71.86333
830.12        72.26566
830.53        72.91284
830.94        73.59326
831.35        73.86366
831.75        73.63226
832.16        72.97296
832.57        72.23174
832.97        71.94405
833.38         72.2077
833.79        72.84442
834.20        73.59553
834.60        74.01413
835.01        73.93901
835.42        73.56698
835.82         73.0112
836.23         72.4287
836.64        71.91424
837.04        71.42735
837.45        71.08818
837.86        71.17268
838.26        71.71721
838.67        72.60343
839.08        73.55492
839.48        74.07693
839.89        74.02351
840.29        73.52998
840.70        72.83208
841.11        72.28107
841.51        72.01375
841.92        71.91718
842.33        71.95585
842.73        72.07565
843.14        72.19485
843.54        72.39944
843.95        72.63438
844.35        72.86616
844.76        73.03961
845.17        73.12884
845.57        73.15285
845.98         73.1508
846.38        73.14883
846.79         73.1247
847.19        73.03955
847.60        72.74907
848.00        72.28412
848.41         71.7001
848.81        71.17921
849.22        70.97009
849.62        71.13501
850.03        71.56318
850.43        72.11761
850.84        72.40953
851.24        72.39158
851.65          72.137
852.05        71.80533
852.46        71.62406
852.86        71.65002
853.27        71.80378
853.67        72.02583
854.07        72.42272
854.48        72.91779
854.88        73.60038
855.29        74.14824
855.69        74.21121
856.10        73.59073
856.50        72.50761
856.90         71.3447
857.31        70.66811
857.71        70.60039
858.12        70.93155
858.52        71.52752
858.92        71.91311
859.33        71.90229
859.73         71.6823
860.13        71.27105
860.54        70.72652
860.94        70.11084
861.34        69.38284
861.75        68.70845
862.15        68.43939
862.55        68.63087
862.96        69.19018
863.36        69.87912
863.76        70.20592
864.17        70.04553
864.57        69.54382
864.97        68.93475
865.38        68.61926
865.78        68.73141
866.18        69.11812
866.58        69.59054
866.99        69.81838
867.39        69.73479
867.79         69.4674
868.19        69.10994
868.60        68.75488
869.00        68.44392
869.40        68.13286
869.80        67.94925
870.21        68.12591
870.61        68.72569
871.01        69.60871
871.41        70.43876
871.81        70.71107
872.22         70.3251
872.62        69.43122
873.02        68.34476
873.42         67.6003
873.82        67.37695
874.22        67.55412
874.63        67.93208
875.03        68.17806
875.43        68.19946
875.83        68.09908
876.23        68.04033
876.63        68.26915
877.03        68.81783
877.44        69.55053
877.84        70.26196
878.24        70.57911
878.64        70.41141
879.04        69.88727
879.44        69.23254
879.84        68.78373
880.24        68.63493
880.64        68.70213
881.04        68.87628
881.44        68.96823
881.84         68.9349
882.24        68.86313
882.65        68.80193
883.05        68.93078
883.45        69.23406
883.85        69.60981
884.25        70.03064
884.65        70.48844
885.05         70.9621
885.45         71.4643
885.85         71.8516
886.25        71.88192
886.65        71.51547
887.05        70.81738
887.45        70.06731
887.85        69.70155
888.25        69.82225
888.65        70.33653
889.04        70.94283
889.44        71.11143
889.84        70.74358
890.24        69.99912
890.64        69.23795
891.04        68.98236
891.44        69.33044
891.84        70.12779
892.24        70.99862
892.64        71.30949
893.04        70.91297
893.44        70.01961
893.83        69.06732
894.23        68.72656
894.63        69.11172
895.03        70.01251
895.43        71.03328
895.83        71.45969
896.23        71.10149
896.63        70.24505
897.02          69.214
897.42        68.57124
897.82        68.39715
898.22        68.56649
898.62        68.96017
899.01        69.41177
899.41        69.78977
899.81        70.16295
900.21        70.60263
900.61        71.21439
901.00        71.97532
901.40        72.76498
901.80        73.37572
902.20        73.52079
902.59        73.16708
902.99         72.4327
903.39        71.54204
903.79        70.85849
904.18        70.48898
904.58         70.3586
904.98        70.39052
905.38        70.46224
905.77        70.51574
906.17        70.62901
906.57        70.70578
906.96        70.59263
907.36        70.26682
907.76        69.77464
908.15        69.35235
908.55        69.35074
908.95        69.84854
909.34        70.73145
909.74        71.69554
910.14        72.31739
910.53        72.45522
910.93        72.22864
911.33        71.79371
911.72        71.40295
912.12        71.16603
912.52        70.99937
912.91        70.85271
913.31        70.64338
913.70        70.37025
914.10        70.10754
914.49        69.91214
914.89        69.82962
915.29        69.87243
915.68        69.99513
916.08        70.19219
916.47        70.47688
916.87        70.81628
917.26        71.19821
917.66        71.50446
918.05        71.55841
918.45        71.33524
918.84        70.92145
919.24        70.48084
919.64         70.3839
920.03        70.73338
920.42        71.38567
920.82        72.13323
921.21        72.69542
921.61        72.94837
922.00        72.96368
922.40           72.78
922.79        72.54781
923.19        72.32516
923.58         72.1125
923.98        71.84417
924.37        71.36183
924.77        70.70237
925.16        69.91429
925.55        69.28384
925.95        69.25652
926.34        69.93167
926.74        71.10489
927.13         72.4469
927.52        73.33512
927.92        73.57978
928.31        73.35798
928.70        72.85271
929.10        72.41881
929.49        72.20591
929.89        72.09042
930.28        72.05197
930.67        72.01643
931.07        71.94215
931.46        71.88235
931.85        71.83266
932.24        71.76312
932.64        71.67216
933.03        71.60269
933.42        71.49916
933.82         71.3074
934.21         71.0289
934.60        70.65643
934.99         70.3911
935.39        70.50204
935.78        71.05527
936.17        72.01086
936.56        72.98201
936.96        73.26939
937.35         72.7534
937.74        71.59806
938.13        70.39016
938.53        69.92081
938.92        70.28587
939.31        71.30422
939.70        72.47513
940.09        72.87775
940.49        72.27785
940.88        71.01444
941.27        69.64191
941.66        68.97929
942.05        69.22554
942.44        70.13799
942.84         71.3401
943.23         72.2153
943.62        72.47469
944.01         72.3314
944.40        72.00218
944.79        71.83411
945.18        71.92701
945.57        72.10125
945.97        72.29691
946.36        72.54649
946.75        72.79051
947.14        73.08434
947.53        73.25835
947.92         72.9946
948.31        72.26634
948.70        71.19199
949.09        70.15536
949.48        69.72314
949.87        70.02658
950.26        70.95434
950.65        72.13573
951.04        72.89955
951.43        73.02597
951.82          72.639
952.21        72.14417
952.60        72.19286
952.99        72.87766
953.38        73.95757
953.77        74.89211
954.16        74.75626
954.55        73.38944
954.94        71.24276
955.33         68.9286
955.72        67.34504
956.11        66.75505
956.50        66.85927
956.89        67.52708
957.28        68.54274
957.66        69.77863
958.05        71.19447
958.44        72.41106
958.83        72.66775
959.22        71.84377
959.61        70.21149
960.00        68.39879
960.39        67.33324
960.78         67.2296
961.16         67.8633
961.55        68.94203
961.94        70.05854
962.33        70.99623
962.72        71.86699
963.11         72.5043
963.49        72.61711
963.88        72.13454
964.27        71.18443
964.66        70.07552
965.04        69.25914
965.43        68.82726
965.82        68.65829
966.21        68.70672
966.60         68.8549
966.98        69.03468
967.37        69.27769
967.76        69.43114
968.15        69.20789
968.53        68.59237
968.92        67.66777
969.31        66.73008
969.69        66.26337
970.08        66.34029
970.47        66.81991
970.86        67.49755
971.24        67.99561
971.63        68.09673
972.02        67.94073
972.40        67.53729
972.79        66.93774
973.17        66.25267
973.56        65.51447
973.95        64.88477
974.33        64.62145
974.72        64.72322
975.11        65.08138
975.49        65.75207
975.88        66.75237
976.26        68.02998
976.65        69.47829
977.04        70.55335
977.42        70.38946
977.81        68.90736
978.19        66.39107
978.58          64.021
978.96        63.34039
979.35        64.64175
979.74         67.5883
980.12        71.32155
980.51        73.47107
980.89        73.41582
981.28        71.67514
981.66        69.29087
982.05        68.06909
982.43        68.47809
982.82        69.90322
983.20        71.96912
983.59        73.87241
983.97        75.33639
984.35        76.55733
984.74        77.18848
985.12        76.79062
985.51        75.35099
985.89        72.96545
986.28        70.43732
986.66        68.92371
987.04        68.84663
987.43        69.94475
987.81         71.5767
988.20        72.39384
988.58        72.04814
988.96        70.74946
989.35        69.29918
989.73        68.96637
990.12        69.95277
990.50        71.88778
990.88        73.64108
991.27        73.42186
991.65        71.01026
992.03        67.13464
992.42        63.19064
992.80        61.02969
993.18        61.22977
993.56         63.1745
993.95        66.00522
994.33        68.49223
994.71        69.86573
995.10        70.44467
995.48         70.2754
995.86        69.44286
996.24        68.18211
996.63        66.55122
997.01        64.82407
997.39        63.43293
997.77        62.50183
998.15        61.92815
998.54        61.97012
998.92        62.99757
999.30        64.97674
999.68        67.80162
1000.06         70.5094
1000.45        71.41339
1000.83        70.21345
1001.21        67.19397
1001.59        63.58744
1001.97        61.65102
1002.35        62.07058
1002.73        64.23808
1003.12        67.14191
1003.50        68.97693
1003.88        69.24605
1004.26        68.59958
1004.64        67.55087
1005.02          66.808
1005.40        66.60293
1005.78        66.59508
1006.16        66.82574
1006.54        67.43584
1006.92        68.33195
1007.30        69.48581
1007.69         70.3907
1008.07         70.4114
1008.45         69.3419
1008.83        67.42444
1009.21        65.17479
1009.59        63.47595
1009.97        62.65612
1010.35         62.5508
1010.73        63.02277
1011.11        63.77107
1011.49        64.68372
1011.86        66.03509
1012.24        67.55193
1012.62        69.13998
1013.00         70.6972
1013.38        72.03135
1013.76        73.22326
1014.14        74.60836
1014.52        76.15377
1014.90        77.66981
1015.28        78.54502
1015.66        77.77478
1016.04        75.50874
1016.41        72.59525
1016.79        69.82855
1017.17        67.67678
1017.55        66.00766
1017.93        64.34323
1018.31        63.04133
1018.69        63.27062
1019.06        65.13002
1019.44        67.86813
1019.82        69.83472
1020.20        69.61538
1020.58         67.2665
1020.95        62.84994
1021.33        57.47578
1021.71        54.54223
1022.09        56.02091
1022.46        60.99843
1022.84        67.35357
1023.22        72.15098
1023.60        74.52661
1023.97         75.3856
1024.35        74.69179
1024.73        72.54216
