SpectraSmart Spectrum 2.9.0.0
--------- Device Information -----------
Spectrum Name :  反射率_0
Saving Time :  2024/05/01 16:22:02
Spectro-Module Model Name : SE2030-DUVN
Spectro-Module Serial Number : OS361AC55029948
Wavelength Start : 200
Wavelength End : 1025
Wavelength Unit : Wavelength(nm)
Spectrum Unit : Reflectance(%)
-----------Spectrum Setting ------------
Integration Time : 20ms
Average : 10
Boxcar : 0
Background removal :  enabled
linearity correction :  enabled
SC :  disabled
Intensity correction :  disabled
DWT denoise :  enabled
savitzky-golay :  disabled
FFT :  disabled
Running average :  disabled
Kalman :  disabled
High pass :  disabled
---------------BEGIN--------------------
Wavelength(nm)             Reflectance(%)
200.29               0
200.75        17.70296
201.21        107.1298
201.67       -43.61805
202.13       -5.892418
202.58        11.46785
203.04        23.46318
203.50        31.10675
203.96        33.73171
204.42        31.49468
204.88         19.0374
205.34       -297.8838
205.80        76.85973
206.26        45.96189
206.72        9.542151
207.18       -153.4292
207.64        309.5364
208.10        146.4336
208.55        105.6882
209.01        84.93968
209.47        74.14288
209.93         68.7558
210.39        64.94626
210.85        63.15971
211.31        65.38145
211.77        80.88921
212.23       -70.72902
212.69        22.63031
213.14        38.84906
213.60         74.4299
214.06       -289.2796
214.52       -33.73793
214.98       -12.01889
215.44        2.402177
215.90        34.22666
216.36         461.584
216.81       -170.7307
217.27       -147.6183
217.73        62.33545
218.19       -42.58688
218.65       -54.64043
219.11        -63.3662
219.57       -75.47384
220.02       -69.13748
220.48        15.21491
220.94        10.89625
221.40        5.541041
221.86        4.434857
222.32        8.088545
222.77        16.25509
223.23        29.26199
223.69        46.24183
224.15        54.87053
224.61        49.58171
225.06        39.33487
225.52        31.19897
225.98        27.11307
226.44        26.01798
226.90        26.48067
227.36        28.16772
227.81        29.77097
228.27        30.21587
228.73        30.25943
229.19        29.97836
229.65        29.22033
230.10        27.95963
230.56        26.15948
231.02        24.19282
231.48        23.58411
231.93        24.80902
232.39        27.03825
232.85        29.37461
233.31        31.12323
233.77        32.24725
234.22        33.03927
234.68        33.54543
235.14        33.95744
235.60        34.37083
236.05         34.7532
236.51        35.10399
236.97        35.35123
237.43        35.28267
237.88        34.87602
238.34        33.95795
238.80        32.52852
239.26        30.32449
239.71        27.07913
240.17        22.02531
240.63        15.28691
241.08        9.957695
241.54        8.496704
242.00        10.89654
242.46        17.01234
242.91        28.44194
243.37        48.07557
243.83        82.09284
244.28        117.1265
244.74        124.3831
245.20        114.0613
245.66        100.8424
246.11        89.55138
246.57        78.15359
247.03        61.44737
247.48        35.16457
247.94        4.579628
248.40        -15.1628
248.85       -19.76162
249.31       -8.847286
249.77        8.793889
250.22        25.31285
250.68        39.09505
251.14        48.40381
251.59        52.82225
252.05        53.38325
252.51        48.95163
252.96        35.09339
253.42        18.51348
253.88        28.59609
254.33        50.44637
254.79        60.91459
255.25        62.09795
255.70        59.40713
256.16        56.43653
256.62        54.17754
257.07        53.33827
257.53         53.8127
257.99        54.52302
258.44        54.91211
258.90        54.96038
259.35        54.39019
259.81        53.64046
260.27          52.639
260.72        51.39101
261.18        50.23565
261.63        48.95473
262.09        47.80605
262.55         46.7288
263.00        45.61525
263.46        44.56252
263.91        43.41398
264.37        42.22158
264.83        40.95903
265.28        39.67726
265.74        38.43699
266.19        37.10223
266.65        35.78244
267.11        34.45626
267.56        33.32551
268.02        32.79066
268.47        32.84333
268.93        33.29464
269.38        33.80655
269.84        33.77254
270.30        33.06675
270.75        31.87178
271.21        30.44802
271.66        29.08781
272.12        27.96986
272.57        26.97013
273.03        26.17289
273.48        25.66369
273.94        25.43286
274.39        25.42443
274.85        25.47106
275.31        25.28038
275.76        24.79482
276.22          24.134
276.67        23.39225
277.13        22.78373
277.58        22.31036
278.04        21.94075
278.49        21.60126
278.95        21.28151
279.40        20.93046
279.86         20.5916
280.31        20.24334
280.77        19.91099
281.22        19.56719
281.68        19.25327
282.13        18.91113
282.59        18.52011
283.04        18.07273
283.50        17.61955
283.95        17.24379
284.41        17.11022
284.86        17.22365
285.32        17.51907
285.77        17.88041
286.22        18.16485
286.68        18.34264
287.13         18.4438
287.59        18.49798
288.04        18.51432
288.50         18.5333
288.95        18.51538
289.41         18.5358
289.86        18.65231
290.32        18.88825
290.77        19.22547
291.22        19.59499
291.68        19.87774
292.13        20.06373
292.59        20.23444
293.04        20.46651
293.50        20.92348
293.95        21.62925
294.40         22.5393
294.86        23.60958
295.31        24.77849
295.77        25.99717
296.22        27.26559
296.68        28.53676
297.13        29.73282
297.58        30.87169
298.04        32.00649
298.49        33.19392
298.95        34.55862
299.40         36.0966
299.85        37.74767
300.31        39.51467
300.76        41.40351
301.21        43.41002
301.67        45.55125
302.12        47.65293
302.58        49.45361
303.03        50.87713
303.48        52.02893
303.94        53.20686
304.39        54.77693
304.84        56.85785
305.30        59.31341
305.75        61.89513
306.20        64.22858
306.66        66.19577
307.11        67.85738
307.57        69.34177
308.02        70.74889
308.47        72.16393
308.93        73.55078
309.38        74.87231
309.83        76.16484
310.29        77.44218
310.74        78.69884
311.19        79.92569
311.65        81.07584
312.10          82.117
312.55        83.05235
313.00         83.9372
313.46        84.86635
313.91        85.84047
314.36        86.83192
314.82        87.70714
315.27        88.26499
315.72        88.46496
316.18        88.41664
316.63        88.26964
317.08        88.31084
317.53        88.61583
317.99        89.10579
318.44        89.69009
318.89        90.19131
319.35        90.54913
319.80        90.83685
320.25        91.07137
320.70        91.28373
321.16          91.481
321.61        91.64563
322.06        91.83206
322.51        92.15791
322.97        92.60836
323.42         93.1827
323.87        93.71118
324.32        93.93036
324.78        93.78219
325.23         93.3925
325.68        92.92791
326.13        92.67941
326.59        92.72321
327.04        93.02818
327.49        93.51003
327.94        94.04167
328.39        94.55666
328.85        95.04443
329.30        95.55132
329.75        96.01111
330.20        96.40669
330.66        96.70001
331.11        96.92647
331.56        97.04948
332.01        97.09061
332.46        97.07168
332.92        97.06628
333.37        97.29099
333.82        97.76408
334.27        98.46215
334.72        99.26437
335.17        99.94272
335.63        100.3928
336.08        100.7025
336.53        100.9495
336.98        101.3286
337.43        101.8952
337.88        102.5951
338.34        103.2811
338.79        103.7934
339.24         104.051
339.69        104.1091
340.14        104.1431
340.59        104.4226
341.05        104.9995
341.50        105.8205
341.95        106.6644
342.40        107.1743
342.85        107.2836
343.30        107.1174
343.75        106.9549
344.20        107.2289
344.66        108.0201
345.11        109.1678
345.56        110.4089
346.01         111.299
346.46        111.7047
346.91        111.7783
347.36         111.673
347.81        111.6232
348.26        111.7197
348.72        111.8954
349.17        112.1319
349.62        112.4743
350.07        112.8844
350.52        113.3249
350.97        113.6979
351.42        113.8252
351.87        113.6753
352.32        113.3425
352.77         112.829
353.22        112.1516
353.67        111.3677
354.13         110.503
354.58        109.7594
355.03        109.5487
355.48        109.9129
355.93        110.7612
356.38         111.641
356.83        111.7859
357.28        111.0392
357.73        109.6361
358.18        108.1463
358.63        107.4236
359.08         107.621
359.53        108.4543
359.98        109.4045
360.43        109.6095
360.88         108.842
361.33        107.4073
361.78        105.7466
362.23         104.482
362.68        103.7744
363.13        103.4334
363.58        103.2073
364.03        102.7178
364.48        101.8589
364.93        100.7517
365.38        99.62705
365.83        98.80756
366.28        98.34935
366.73        98.15186
367.18        97.91292
367.63        97.16669
368.08        95.86079
368.53        94.19238
368.98        92.57932
369.43        91.62037
369.88           91.42
370.33        91.77797
370.78          92.333
371.23        92.45084
371.68        91.93513
372.13        90.99261
372.58        89.87355
373.03        88.95138
373.48          88.325
373.93        87.84228
374.38        87.43568
374.83        87.02113
375.28        86.55414
375.72        86.07908
376.17        85.55962
376.62        84.86189
377.07        83.98739
377.52        82.97954
377.97        81.98765
378.42        81.25471
378.87        80.83311
379.32        80.65025
379.77        80.56897
380.22        80.37128
380.67        79.99561
381.11        79.50555
381.56        78.97521
382.01        78.54907
382.46        78.26984
382.91        78.08472
383.36        77.92564
383.81         77.6947
384.26        77.36324
384.71        76.96375
385.15        76.53525
385.60        76.18117
386.05         75.9076
386.50        75.68532
386.95        75.46015
387.40        75.15722
387.85        74.76554
388.29        74.27306
388.74        73.82124
389.19        73.43047
389.64        73.10954
390.09         72.8358
390.54        72.57228
390.98        72.24654
391.43        71.89474
391.88        71.53529
392.33        71.23188
392.78        70.98405
393.23        70.78146
393.67         70.7224
394.12        70.85387
394.57        70.30827
395.02        70.48562
395.47        69.99854
395.91        69.42276
396.36        69.15388
396.81        69.24829
397.26        69.48181
397.71        69.66062
398.15        69.61256
398.60         69.3355
399.05        68.74244
399.50        68.06898
399.95        67.74009
400.39        67.81705
400.84        68.08047
401.29        68.33268
401.74         68.2942
402.18        67.88698
402.63        67.17389
403.08        66.41656
403.53         65.9843
403.97         65.9513
404.42        66.22007
404.87        66.57027
405.32        66.66721
405.76        66.42242
406.21        65.95428
406.66        65.44727
407.11         65.1957
407.55        65.28109
408.00        65.59363
408.45        65.95776
408.90        66.00288
409.34        65.66936
409.79        65.21092
410.24         64.7733
410.68        64.45872
411.13        64.33273
411.58        64.38112
412.03        64.54365
412.47        64.69791
412.92        64.77348
413.37        64.82179
413.81        64.84255
414.26        64.88417
414.71        64.93794
415.15        64.99673
415.60        65.02311
416.05        65.01842
416.49        64.98579
416.94        64.92641
417.39        64.86747
417.83        64.83486
418.28        64.84286
418.73         64.8949
419.17        64.96404
419.62        65.00735
420.07        65.00351
420.51        64.94522
420.96        64.92004
421.41        64.91979
421.85        64.92307
422.30        65.17758
422.74        65.54882
423.19        65.39188
423.64        64.86676
424.08         65.1796
424.53        66.25282
424.98        66.36281
425.42        66.36572
425.87        66.32416
426.31        66.54392
426.76        66.07595
427.21        65.26545
427.65        65.71015
428.10        67.01182
428.54        67.33886
428.99        66.70024
429.44        65.71033
429.88        64.84807
430.33        65.58433
430.77          67.321
431.22        67.45058
431.66        66.12315
432.11        65.70987
432.56        66.34068
433.00        66.91528
433.45         67.2722
433.89        67.33338
434.34         66.7363
434.78        68.25845
435.23        67.44389
435.67        67.50413
436.12        67.29843
436.57        67.73715
437.01        68.67413
437.46        69.09805
437.90        68.95844
438.35         68.8903
438.79        68.91293
439.24        68.64891
439.68        68.22139
440.13         68.2019
440.57        68.58889
441.02        68.88956
441.46        69.03183
441.91        69.41959
442.35        69.83813
442.80        69.93391
443.24        69.72295
443.69        69.60143
444.13        69.63113
444.58        69.69139
445.02        69.77288
445.47        70.03682
445.91        70.43264
446.36        70.68314
446.80        70.71579
447.24        71.08013
447.69        71.08691
448.13        70.94633
448.58        71.08489
449.02        71.00639
449.47         70.9504
449.91        70.97046
450.36        71.10262
450.80        71.28724
451.25        71.47106
451.69        71.53849
452.13        71.47434
452.58        71.32294
453.02        71.11508
453.47        70.95725
453.91        70.86494
454.36        70.78067
454.80        70.71468
455.24        70.71485
455.69        70.68879
456.13         70.5528
456.58        70.48978
457.02        69.77574
457.46        70.15997
457.91        70.54352
458.35        71.14725
458.79        71.18977
459.24        70.63392
459.68        69.94822
460.13         69.4698
460.57         68.5528
461.01        68.88382
461.46        69.12561
461.90        69.47879
462.34        69.73914
462.79        68.97762
463.23        68.97629
463.68        69.36448
464.12        69.50285
464.56        69.29421
465.01        68.88524
465.45        68.42354
465.89        68.49794
466.34        68.88132
466.78        69.26429
467.22        68.18623
467.67        68.07403
468.11        68.27058
468.55        68.45913
468.99        68.48241
469.44        68.50957
469.88        68.54896
470.32        68.55021
470.77         68.5414
471.21        68.56863
471.65        68.61988
472.10        68.69955
472.54        68.76632
472.98        68.72016
473.42        68.53995
473.87        68.42696
474.31        68.38335
474.75        67.92361
475.20        67.71584
475.64        67.79604
476.08        68.21627
476.52        68.32271
476.97        68.05379
477.41        68.09978
477.85        67.45685
478.29        67.85606
478.74          68.103
479.18        68.02767
479.62        67.44152
480.06        67.31906
480.50        67.71364
480.95        67.02818
481.39        67.56365
481.83        67.20404
482.27        67.05047
482.72        67.49001
483.16         67.2653
483.60        67.42127
484.04        67.59457
484.48        67.47673
484.93        67.42701
485.37        68.03907
485.81        67.78267
486.25        69.09914
486.69        68.46496
487.14        66.42732
487.58        65.90034
488.02        67.82635
488.46        66.77226
488.90        66.68882
489.34         67.8593
489.79        67.33334
490.23        67.30375
490.67        67.01322
491.11        67.06574
491.55        67.22818
491.99        67.40562
492.43        67.42416
492.88        67.24328
493.32        67.03645
493.76        66.87331
494.20        66.82917
494.64        66.92432
495.08        67.05654
495.52        67.19938
495.96        67.41672
496.41        67.61224
496.85        67.59415
497.29        67.33839
497.73        66.96489
498.17        66.60165
498.61        66.35342
499.05        66.30499
499.49         66.6113
499.93        67.11021
500.37        67.22146
500.82        66.97903
501.26        66.99084
501.70        67.26677
502.14        67.41412
502.58        67.36859
503.02        67.23785
503.46        67.02742
503.90        66.70903
504.34        66.40536
504.78        66.31035
505.22        66.44458
505.66        66.80711
506.10        67.25884
506.54        67.38755
506.98        67.09403
507.42        67.15455
507.86        66.52242
508.30        66.35562
508.74        66.36275
509.18        66.50553
509.62        66.70743
510.06         66.8696
510.50        66.96185
510.94        67.00562
511.38         67.0192
511.82        67.02596
512.26        67.03077
512.70        67.01227
513.14        66.96692
513.58        66.89725
514.02        66.80757
514.46         66.7124
514.90        66.61034
515.34        66.49437
515.78        66.37323
516.22        66.25522
516.66        66.17545
517.10        66.18541
517.54         66.2877
517.98        66.45984
518.42        66.64913
518.86        66.76744
519.30        66.79218
519.74        66.75078
520.18        66.67471
520.62        66.61939
521.06        66.60019
521.50        66.58808
521.93        66.59339
522.37        66.62395
522.81        66.67691
523.25          66.758
523.69        66.80403
524.13          66.711
524.57         66.4767
525.01        66.14433
525.45        65.82792
525.89        65.70688
526.32        65.81425
526.76        66.08591
527.20        66.41842
527.64        66.64414
528.08        66.71011
528.52        66.67167
528.96         66.5614
529.40        66.43252
529.83        66.30638
530.27        66.17826
530.71        66.08038
531.15        66.08466
531.59        66.19613
532.03        66.39295
532.46         66.5935
532.90         66.6815
533.34        66.63072
533.78        66.43088
534.22        66.15442
534.66        66.02807
535.09        66.02042
535.53        65.86295
535.97         65.5894
536.41        65.48994
536.85        65.57434
537.28        65.68532
537.72        65.78191
538.16        65.85651
538.60          65.888
539.04        65.87574
539.47        65.82442
539.91        65.78511
540.35         65.7533
540.79        65.73708
541.22        65.73797
541.66        65.69395
542.10        65.72621
542.54        65.73982
542.97        65.75534
543.41        65.77917
543.85         65.7993
544.29        65.81759
544.72        65.82964
545.16        65.86496
545.60         65.9116
546.04        65.95551
546.47        65.98952
546.91        66.01445
547.35        66.03322
547.79         66.0303
548.22        65.96208
548.66        65.90238
549.10        65.85728
549.53        65.52074
549.97        65.50718
550.41        65.48141
550.84         65.6279
551.28        65.85569
551.72        66.09955
552.15        66.33167
552.59        66.48113
553.03        66.35281
553.46        66.01967
553.90        65.91704
554.34        66.08025
554.77        66.16102
555.21        66.06622
555.65        66.48494
556.08        66.12739
556.52        65.99963
556.96        65.76862
557.39        65.58131
557.83        65.50116
558.27        65.46526
558.70         65.4695
559.14        65.76653
559.57        65.75511
560.01        66.03172
560.45        66.28006
560.88        66.25194
561.32        66.03007
561.75        65.60587
562.19        65.23203
562.63         65.5555
563.06        66.30564
563.50        66.40137
563.93        65.45416
564.37        65.13936
564.80        65.56389
565.24        65.82255
565.68        65.87315
566.11        65.77274
566.55         65.5984
566.98        65.53361
567.42        65.63513
567.85        65.73061
568.29        65.83085
568.72        65.94598
569.16        66.10867
569.60        66.16503
570.03        66.05008
570.47        65.94677
570.90         66.3205
571.34        65.41341
571.77        65.90062
572.21        65.96616
572.64         66.3906
573.08        65.95598
573.51        65.95831
573.95        66.64293
574.38        66.09123
574.82        66.04906
575.25        66.46529
575.69        66.92284
576.12        66.61401
576.56        65.80859
576.99        66.31797
577.42        66.25014
577.86        66.42248
578.29        66.26789
578.73        67.15899
579.16        66.00472
579.60        65.62109
580.03        65.51037
580.47         66.5584
580.90        65.64278
581.33        66.59798
581.77        66.51306
582.20        66.87823
582.64          66.745
583.07        66.51439
583.51        66.07331
583.94        65.79601
584.37        66.13268
584.81        67.00256
585.24        67.01242
585.68        66.50539
586.11         66.4135
586.54        66.57796
586.98        65.59028
587.41        65.21764
587.85        66.36115
588.28        66.37085
588.71        65.26258
589.15        66.07402
589.58        65.49399
590.01        65.55432
590.45        65.70614
590.88        66.13799
591.31        66.21563
591.75        65.84882
592.18        65.75158
592.61        64.88007
593.05        65.57835
593.48        65.93896
593.91        66.07516
594.35        65.64442
594.78         65.4127
595.21        65.25092
595.65        66.28934
596.08        65.77795
596.51         65.4867
596.94         65.4264
597.38        65.37137
597.81        65.63074
598.24        65.15152
598.68        65.63631
599.11        65.22781
599.54        66.28799
599.97        65.98409
600.41        65.44617
600.84        66.01955
601.27        65.71608
601.70        66.26905
602.14        66.42773
602.57        66.21416
603.00        65.64626
603.43        65.35258
603.87        65.80059
604.30        66.11819
604.73        65.78359
605.16        65.58467
605.60        65.64169
606.03        65.87738
606.46        66.13621
606.89        66.03141
607.32        65.42203
607.76        65.19654
608.19        65.35783
608.62        65.94688
609.05        65.98225
609.48        66.05698
609.92        65.77322
610.35        65.07575
610.78         66.5443
611.21        66.55598
611.64        65.89874
612.07        66.21371
612.50        66.47124
612.94        66.38391
613.37        65.80575
613.80        66.27426
614.23        65.68761
614.66        66.11726
615.09        65.88176
615.52        65.98139
615.96        66.02522
616.39        66.13137
616.82        66.06053
617.25        65.83214
617.68        66.30774
618.11        66.18449
618.54        65.80325
618.97        65.59553
619.40        65.65752
619.84        65.66044
620.27        65.57726
620.70         65.9539
621.13        66.71298
621.56         66.0285
621.99        65.53613
622.42        65.82983
622.85        65.79803
623.28         65.7375
623.71        65.73296
624.14         65.9776
624.57        65.94256
625.00        66.03619
625.43        66.06886
625.86        65.98775
626.29         65.7692
626.72        65.78593
627.15        65.52116
627.58        65.36909
628.01        65.21828
628.44        65.20142
628.87        65.29655
629.30        65.38505
629.73        65.44811
630.16        65.51966
630.59         65.5803
631.02        65.58284
631.45        65.53165
631.88        65.46674
632.31        65.39919
632.74        65.31961
633.17        65.24504
633.60        65.20381
634.03         65.2014
634.46        65.23257
634.89        65.28162
635.32        65.31815
635.75        65.32982
636.18        65.32127
636.61        65.29108
637.04        65.24286
637.47        65.18696
637.89        65.11216
638.32        65.00379
638.75        64.94366
639.18        64.95315
639.61        64.75069
640.04        64.82724
640.47        64.79527
640.90        64.79861
641.33        64.81181
641.76        64.81239
642.18        64.85254
642.61        64.92729
643.04        64.88453
643.47        64.67201
643.90        65.12401
644.33        64.83914
644.76        64.84779
645.18        64.78436
645.61        64.97461
646.04        65.31583
646.47        65.28442
646.90        64.94564
647.33        64.84292
647.75        64.99822
648.18        65.08275
648.61        65.09045
649.04        65.08783
649.47        65.05076
649.89        65.17061
650.32        65.35169
650.75        64.98222
651.18        64.29208
651.61        64.43306
652.03        65.31448
652.46        65.57545
652.89        65.11652
653.32          64.932
653.74         65.2551
654.17         64.6344
654.60        65.14973
655.03        65.55475
655.46        64.97986
655.88        65.26766
656.31         72.1725
656.74         69.7289
657.16        64.70731
657.59        63.48485
658.02        64.97498
658.45        65.62408
658.87         65.3009
659.30        63.92628
659.73        64.87347
660.15        65.59381
660.58        65.11845
661.01         64.8345
661.44        64.39178
661.86        64.47788
662.29        64.99371
662.72        65.23874
663.14         65.1741
663.57        65.17837
664.00        65.28048
664.42         65.3055
664.85        65.26157
665.27        65.17052
665.70         65.0721
666.13          65.039
666.55        65.09552
666.98        65.20935
667.41        65.34435
667.83        65.44677
668.26        65.47822
668.69        65.44781
669.11        65.40546
669.54        65.42598
669.96        65.50713
670.39        65.65379
670.82        65.80488
671.24        65.68616
671.67        65.39219
672.09        65.41279
672.52        65.70583
672.94         65.7453
673.37        65.51799
673.80        65.31702
674.22        65.20743
674.65         65.1275
675.07        65.11089
675.50        65.16064
675.92        65.25045
676.35        65.32617
676.77        65.37248
677.20        65.38907
677.62        65.39076
678.05        65.39104
678.47        65.39289
678.90         65.4031
679.32        65.40202
679.75        65.36552
680.17        65.28256
680.60        65.22798
681.02        65.15554
681.45        65.12126
681.87        65.13691
682.30        65.32861
682.72        65.61798
683.15        65.64253
683.57        65.42853
684.00         65.3206
684.42        65.35918
684.85        65.36461
685.27         65.3294
685.70        65.41226
686.12        65.55182
686.54         65.5083
686.97         65.2934
687.39        65.22529
687.82        65.27889
688.24        65.09445
688.66        64.75868
689.09        64.78604
689.51        65.15549
689.94        65.35292
690.36        65.34991
690.78        65.44553
691.21        65.65849
691.63        65.78178
692.06         65.8707
692.48         66.2366
692.90         66.7486
693.33         66.9249
693.75        66.72368
694.17         66.3159
694.60        65.88097
695.02        65.68146
695.44        65.71758
695.87        65.80732
696.29        65.86999
696.71        65.67603
697.14        65.34743
697.56        65.49986
697.98        66.04817
698.41        66.25337
698.83        66.10439
699.25        66.13255
699.68        66.32128
700.10        66.39471
700.52         66.3391
700.94        66.23441
701.37        66.13726
701.79        66.21909
702.21          66.425
702.64        66.55502
703.06        66.57793
703.48        66.51353
703.90        66.33963
704.33        66.45515
704.75         66.0745
705.17        66.02258
705.59        66.07388
706.01        66.19333
706.44        66.35063
706.86        66.51492
707.28        66.64949
707.70        66.82443
708.12        66.99155
708.55        66.90433
708.97          66.631
709.39        66.56828
709.81        66.71809
710.23        66.75552
710.66         66.6702
711.08        66.67943
711.50        66.76801
711.92        66.82027
712.34        66.82692
712.76        66.82417
713.19        66.78886
713.61        66.73213
714.03        66.64215
714.45        66.51916
714.87        66.41424
715.29        66.40644
715.71        66.50684
716.13        66.69697
716.56        66.88455
716.98        66.99555
717.40        66.97151
717.82         66.8395
718.24        66.68503
718.66         66.6479
719.08        66.75598
719.50         66.9633
719.92        67.17664
720.34         67.2453
720.76        67.13581
721.19        66.90379
721.61        66.63999
722.03        66.47828
722.45        66.46284
722.87        66.55805
723.29        66.71473
723.71        66.85089
724.13        66.93123
724.55        66.97231
724.97        67.01192
725.39        67.06538
725.81        67.12902
726.23        67.26993
726.65        67.44954
727.07        67.17091
727.49        67.12801
727.91        66.80135
728.33         66.4963
728.75        66.34728
729.17        66.39483
729.59         66.5768
730.01         66.7916
730.43        66.96836
730.85        67.07805
731.27        67.00343
731.69        66.72993
732.10        67.05897
732.52        66.69742
732.94        66.68127
733.36        66.66317
733.78        66.74004
734.20        66.89799
734.62          67.175
735.04        67.50058
735.46        67.57269
735.88        67.43946
736.30        67.49737
736.72        67.68516
737.13        67.64922
737.55        67.36605
737.97        66.93915
738.39        66.55457
738.81        66.71189
739.23        67.31993
739.65        67.59949
740.06        67.45817
740.48        67.50707
740.90        67.70972
741.32         67.7045
741.74        67.50121
742.16         67.3584
742.57        67.31596
742.99        67.25571
743.41        67.22514
743.83        67.35824
744.25        67.61629
744.67        67.83525
745.08        67.95435
745.50        67.93613
745.92        67.77908
746.34        67.44742
746.75         67.0377
747.17        66.77821
747.59         66.6994
748.01        66.74806
748.42        66.87746
748.84        66.97034
749.26        67.00288
749.68        67.01153
750.09        67.00755
750.51        67.02321
750.93        67.06104
751.35        67.10204
751.76        67.15855
752.18        67.24859
752.60        67.37522
753.01        67.55029
753.43         67.7158
753.85         67.8195
754.27        67.84949
754.68        67.81768
755.10        67.78087
755.52        67.82403
755.93        67.95259
756.35        68.13633
756.77        68.31155
757.18        68.32861
757.60        68.17188
758.02        68.01958
758.43        67.88583
758.85        67.57137
759.26        67.21285
759.68        67.39919
760.10        68.03529
760.51        68.31599
760.93        68.14165
761.34        68.11098
761.76        68.23452
762.18        67.91309
762.59        67.36919
763.01        67.53977
763.42        68.36618
763.84        68.69017
764.26        68.43558
764.67        68.20452
765.09        68.10888
765.50        67.95457
765.92        67.81015
766.33        67.72368
766.75        67.64768
767.16        67.82968
767.58        67.99745
768.00        68.21068
768.41        68.45129
768.83        68.98452
769.24        69.66468
769.66        69.97464
770.07        69.87839
770.49        69.55186
770.90        69.27224
771.32        69.05184
771.73         68.9738
772.15        68.83685
772.56        68.67038
772.97        68.67214
773.39        68.80044
773.80        68.91624
774.22        68.96017
774.63        69.02125
775.05        69.06699
775.46        69.11525
775.88        69.14057
776.29        69.15446
776.70        69.16847
777.12        69.23042
777.53        69.36163
777.95        69.52614
778.36         69.6775
778.77        69.70936
779.19        69.59913
779.60        69.39633
780.02        69.16133
780.43        68.95007
780.84        68.82423
781.26        68.85059
781.67        68.97232
782.09        69.01078
782.50        68.95029
782.91        68.73684
783.33        68.67258
783.74        68.79015
784.15        69.17839
784.57        69.69659
784.98        70.28316
785.39        70.81691
785.81        71.23076
786.22        71.33389
786.63        71.51061
787.04        71.39502
787.46         71.1654
787.87        70.78924
788.28         70.4373
788.70        70.34478
789.11         70.5182
789.52         70.9079
789.93        71.33384
790.35        71.48332
790.76        71.30915
791.17         70.9009
791.58        70.39923
792.00        70.06316
792.41        69.99007
792.82        69.94562
793.23        69.91892
793.65        70.30969
794.06        70.90443
794.47        70.74464
794.88        70.05319
795.29        69.91529
795.71        70.31686
796.12        70.78186
796.53        71.11217
796.94        71.22991
797.35        71.04951
797.76        70.61553
798.18        70.14674
798.59        69.93825
799.00        70.07037
799.41        70.45316
799.82         70.9459
800.23        71.30133
800.64        71.43232
801.06        71.39335
801.47        71.26868
801.88        71.10549
802.29        70.94485
802.70        70.75583
803.11        70.59053
803.52        70.54346
803.93        70.63992
804.34        70.86639
804.75        71.13668
805.17        71.35851
805.58        71.54079
805.99        71.42252
806.40        71.10058
806.81        71.35332
807.22        71.93479
807.63        71.42545
808.04        70.06709
808.45        69.52038
808.86        69.93044
809.27        70.40314
809.68          70.761
810.09        71.09696
810.50        71.32563
810.91         71.4261
811.32         71.4193
811.73        71.34834
812.14        71.24483
812.55        71.09245
812.96        70.97594
813.37        71.04083
813.78        71.30541
814.19        71.72742
814.60        72.16582
815.01        72.39452
815.42        72.36176
815.83        72.12715
816.24        71.78408
816.65        71.52383
817.05        71.43066
817.46        71.42995
817.87        71.50565
818.28        71.58861
818.69        71.64942
819.10        71.71011
819.51        71.76791
819.92        71.80714
820.33        71.81876
820.74        71.79473
821.14          71.723
821.55        71.62009
821.96        71.48776
822.37        71.35378
822.78        71.24966
823.19        71.22498
823.60        71.30239
824.00        71.48225
824.41        71.73633
824.82        72.12347
825.23        72.61191
825.64        73.15038
826.04        73.63232
826.45        73.80784
826.86        73.65268
827.27        73.24853
827.68        72.68204
828.08        72.12568
828.49        71.63113
828.90        71.17988
829.31        70.87971
829.72        70.88239
830.12        71.22963
830.53         71.8608
830.94        72.53928
831.35        72.77975
831.75        72.48193
832.16        71.73265
832.57        70.92911
832.97        70.68198
833.38        71.09805
833.79        71.97517
834.20        72.96579
834.60        73.47306
835.01        73.29881
835.42        72.68073
835.82         71.8425
836.23         71.1153
836.64        70.63358
837.04        70.30816
837.45        70.15819
837.86        70.28576
838.26        70.68407
838.67        71.29887
839.08        71.95506
839.48        72.31899
839.89        72.29356
840.29        71.96332
840.70        71.49615
841.11        71.14031
841.51        70.99642
841.92        70.97581
842.33        71.07281
842.73        71.28165
843.14        71.52924
843.54        71.87574
843.95        72.22396
844.35        72.47514
844.76        72.56522
845.17        72.50355
845.57        72.36362
845.98        72.26411
846.38        72.25636
846.79        72.29675
847.19        72.33059
847.60        72.18261
848.00         71.8569
848.41        71.40675
848.81        70.99036
849.22        70.82179
849.62        70.96032
850.03        71.30628
850.43        71.73965
850.84        71.91006
851.24        71.78932
851.65        71.44244
852.05         71.0577
852.46        70.90369
852.86        71.03387
853.27        71.35374
853.67        71.73046
854.07        72.16927
854.48        72.57808
854.88        73.06071
855.29        73.36996
855.69        73.31982
856.10         72.7649
856.50        71.86907
856.90        70.90519
857.31        70.28017
857.71        70.08099
858.12        70.14798
858.52         70.4159
858.92        70.54477
859.33        70.41536
859.73        70.18848
860.13        69.85108
860.54        69.40992
860.94        68.90584
861.34        68.30764
861.75        67.79688
862.15        67.74492
862.55        68.19298
862.96        69.01836
863.36        69.92002
863.76        70.31578
864.17        70.07065
864.57        69.37412
864.97        68.53085
865.38        68.05438
865.78        68.12176
866.18        68.55478
866.58         69.1655
866.99        69.61259
867.39        69.79246
867.79        69.81059
868.19        69.69534
868.60        69.44983
869.00        69.10069
869.40        68.62901
869.80        68.18903
870.21        68.08232
870.61        68.41954
871.01        69.05763
871.41        69.71677
871.81        69.96111
872.22        69.69612
872.62        69.06963
873.02        68.29502
873.42        67.72956
873.82        67.50871
874.22        67.54387
874.63        67.76849
875.03         68.0715
875.43        68.39744
875.83        68.77111
876.23        69.18129
876.63        69.60474
877.03        70.01167
877.44        70.34712
877.84        70.58042
878.24        70.62792
878.64        70.48317
879.04        70.19548
879.44        69.83558
879.84        69.50261
880.24         69.2423
880.64        69.05157
881.04        68.96258
881.44        69.00772
881.84        69.19121
882.24        69.51403
882.65        69.87849
883.05        70.21222
883.45        70.41662
883.85        70.47573
884.25        70.47499
884.65        70.56065
885.05        70.76396
885.45        71.06473
885.85        71.30301
886.25        71.21178
886.65        70.74928
887.05        70.00265
887.45        69.27316
887.85         69.0204
888.25        69.33247
888.65         70.0766
889.04        70.89005
889.44         71.1582
889.84        70.75199
890.24        69.85272
890.64        68.84927
891.04        68.30241
891.44        68.34177
891.84         68.8344
892.24        69.42757
892.64        69.52792
893.04        69.01182
893.44         68.0773
893.83        67.19965
894.23        67.10065
894.63        67.88006
895.03        69.29993
895.43        70.81387
895.83         71.4361
896.23        70.91805
896.63        69.64799
897.02        68.13847
897.42        67.21494
897.82        67.01325
898.22        67.32468
898.62        67.95869
899.01        68.61884
899.41        69.11675
899.81        69.56757
900.21        70.02238
900.61        70.54728
901.00        71.12956
901.40        71.65783
901.80        72.00828
902.20        72.03446
902.59        71.73227
902.99        71.18149
903.39        70.53658
903.79        70.03747
904.18        69.75011
904.58        69.63426
904.98        69.63638
905.38        69.67149
905.77        69.69869
906.17        69.77962
906.57        69.82835
906.96        69.71516
907.36        69.41754
907.76        68.97392
908.15        68.60149
908.55        68.61546
908.95        69.08399
909.34        69.90639
909.74        70.77934
910.14        71.28107
910.53        71.28367
910.93         70.9168
911.33        70.37218
911.72        69.95545
912.12        69.78657
912.52         69.7654
912.91        69.80756
913.31        69.77213
913.70        69.62901
914.10        69.45316
914.49        69.30766
914.89        69.25324
915.29        69.30994
915.68        69.43414
916.08        69.60553
916.47        69.81577
916.87        70.04002
917.26        70.28249
917.66        70.48456
918.05        70.55544
918.45        70.48121
918.84        70.31976
919.24        70.15118
919.64        70.19832
920.03         70.5125
920.42        70.98016
920.82        71.47531
921.21        71.83772
921.61        71.98289
922.00        71.97343
922.40        71.77489
922.79        71.41547
923.19        70.93566
923.58        70.36841
923.98        69.81464
924.37        69.34802
924.77         69.0255
925.16        68.84194
925.55        68.81477
925.95        68.91257
926.34        69.13668
926.74         69.4426
927.13        69.89441
927.52        70.50258
927.92        71.21918
928.31        72.00712
928.70        72.70493
929.10         73.0952
929.49        73.13883
929.89        72.87694
930.28        72.44083
930.67        72.01461
931.07        71.66278
931.46        71.34587
931.85        71.07655
932.24        70.86565
932.64        70.71607
933.03        70.70933
933.42        70.71495
933.82        70.53021
934.21        70.13458
934.60        69.55039
934.99        69.08944
935.39        69.21018
935.78        70.00398
936.17        71.35487
936.56        72.73529
936.96        73.17956
937.35        72.49012
937.74        70.95039
938.13        69.25582
938.53         68.3268
938.92        68.31397
939.31        69.00249
939.70        69.97847
940.09        70.47729
940.49        70.27312
940.88         69.6376
941.27        68.94425
941.66        68.75294
942.05        69.19141
942.44        70.05022
942.84        71.02934
943.23        71.68463
943.62        71.79704
944.01        71.54591
944.40        71.09341
944.79        70.69102
945.18        70.44352
945.57        70.25319
945.97        70.16411
946.36        70.35015
946.75        70.78075
947.14        71.44738
947.53        72.11928
947.92        72.36121
948.31        72.07397
948.70        71.38835
949.09         70.6199
949.48        70.25903
949.87         70.4279
950.26        70.99639
950.65        71.74513
951.04        72.27844
951.43        72.45278
951.82        72.36595
952.21        72.16536
952.60        72.08765
952.99        72.16386
953.38        72.26876
953.77        72.27106
954.16        71.95428
954.55        71.31773
954.94        70.57439
955.33         69.7913
955.72        69.03857
956.11        68.38184
956.50        67.74139
956.89        67.44145
957.28        68.01849
957.66         69.5434
958.05        71.75273
958.44        73.85103
958.83        74.33347
959.22        72.89146
959.61        70.11852
960.00        67.06386
960.39        65.21566
960.78         64.9187
961.16        65.75171
961.55        67.24661
961.94        68.71008
962.33        69.80917
962.72        70.75849
963.11        71.39493
963.49        71.42187
963.88        70.79956
964.27        69.63689
964.66        68.33768
965.04        67.51076
965.43        67.26441
965.82        67.43959
966.21        67.90195
966.60        68.33955
966.98        68.62347
967.37        68.86431
967.76        68.94207
968.15        68.63831
968.53        67.96712
968.92         66.9422
969.31         65.9747
969.69        65.74021
970.08        66.32069
970.47        67.55341
970.86         68.8969
971.24        69.35336
971.63        68.58825
972.02        66.96854
972.40        65.06451
972.79         63.7681
973.17        63.34976
973.56         63.5595
973.95        64.10533
974.33        64.55566
974.72        64.71574
975.11        64.66208
975.49        64.68699
975.88           65.27
976.26        66.54802
976.65         68.2719
977.04        69.71988
977.42        69.76692
977.81        68.26136
978.19        65.58354
978.58        63.06977
978.96        62.47414
979.35        64.13612
979.74        67.66837
980.12        72.01411
980.51        74.40948
980.89        74.10771
981.28        71.73415
981.66        68.64493
982.05        67.15247
982.43        67.84156
982.82        69.94055
983.20        72.79218
983.59        75.10072
983.97        76.44299
984.35        77.19767
984.74        77.20269
985.12        76.29688
985.51        74.59586
985.89        72.13187
986.28        69.71293
986.66        68.52149
987.04        68.93417
987.43        70.62292
987.81        72.89394
988.20        74.29217
988.58        74.38261
988.96        73.38797
989.35        71.90495
989.73        70.89394
990.12        70.60228
990.50        70.85202
990.88         71.0246
991.27        70.16673
991.65        68.24859
992.03        65.69357
992.42        63.49935
992.80        62.91016
993.18        64.26303
993.56        67.06601
993.95        70.35789
994.33        72.75446
994.71        73.51662
995.10        73.03133
995.48        71.64275
995.86        69.97979
996.24        68.44856
996.63        66.95472
997.01        65.73021
997.39        65.10598
997.77         65.1059
998.15        65.68076
998.54        66.69466
998.92        67.80495
999.30         68.8109
999.68        69.75026
1000.06        70.34872
1000.45        70.15981
1000.83        69.25838
1001.21        67.66685
1001.59        65.94273
1001.97        65.10709
1002.35        65.43028
1002.73        66.61976
1003.12        68.19771
1003.50        69.24682
1003.88        69.52436
1004.26        69.39494
1004.64         68.9332
1005.02         68.2237
1005.40        67.39632
1005.78        66.36002
1006.16        65.61399
1006.54        66.07877
1006.92        67.85378
1007.30        70.59109
1007.69        73.30721
1008.07        74.60829
1008.45        74.03947
1008.83        72.08384
1009.21        69.37533
1009.59        67.01563
1009.97        65.48148
1010.35         64.5131
1010.73        64.26881
1011.11        64.97616
1011.49         66.6482
1011.86        69.53722
1012.24        72.83054
1012.62         75.3488
1013.00        76.56224
1013.38        76.37076
1013.76        75.54884
1014.14        75.76106
1014.52        77.45705
1014.90        80.26476
1015.28        82.68514
1015.66          82.115
1016.04        78.45612
1016.41        73.22764
1016.79        68.52389
1017.17        66.13998
1017.55        66.12769
1017.93        68.03062
1018.31        71.11629
1018.69        72.71242
1019.06        71.48084
1019.44         68.8063
1019.82          66.102
1020.20        64.28848
1020.58        63.31573
1020.95        62.71871
1021.33        62.50592
1021.71        62.53981
1022.09        62.74057
1022.46        63.12705
1022.84        63.83681
1023.22        65.27361
1023.60        67.42371
1023.97        70.24352
1024.35        72.58522
1024.73        72.51239
