SpectraSmart Spectrum 2.9.0.0
--------- Device Information -----------
Spectrum Name :  反射率_0
Saving Time :  2024/05/01 16:37:00
Spectro-Module Model Name : SE2030-DUVN
Spectro-Module Serial Number : OS361AC55029948
Wavelength Start : 200
Wavelength End : 1025
Wavelength Unit : Wavelength(nm)
Spectrum Unit : Reflectance(%)
-----------Spectrum Setting ------------
Integration Time : 20ms
Average : 10
Boxcar : 0
Background removal :  enabled
linearity correction :  enabled
SC :  disabled
Intensity correction :  disabled
DWT denoise :  enabled
savitzky-golay :  disabled
FFT :  disabled
Running average :  disabled
Kalman :  disabled
High pass :  disabled
---------------BEGIN--------------------
Wavelength(nm)             Reflectance(%)
200.29               0
200.75       -16.57627
201.21        151.4809
201.67       -94.01688
202.13       -21.87374
202.58        13.97477
203.04        40.73928
203.50        59.90691
203.96        71.41899
204.42        79.46275
204.88        93.03584
205.34        424.4301
205.80       0.6301133
206.26       -9.553419
206.72       -69.87064
207.18       -421.1282
207.64         630.583
208.10        277.3086
208.55        198.5732
209.01          161.69
209.47        138.0944
209.93        120.0619
210.39        102.1309
210.85          88.923
211.31        91.83317
211.77        146.3839
212.23       -381.9151
212.69       -66.60445
213.14       -37.83451
213.60       -22.43202
214.06       -75.11967
214.52       -30.26145
214.98       -21.20154
215.44       -7.941545
215.90        29.35048
216.36        593.8995
216.81       -282.2632
217.27       -357.7194
217.73        650.8073
218.19        103.5912
218.65        49.56639
219.11        30.01622
219.57        9.618259
220.02        -45.8143
220.48       -5.851486
220.94        21.20759
221.40        28.48832
221.86        32.25167
222.32        36.01662
222.77        41.14901
223.23        48.84101
223.69        57.22483
224.15        57.14201
224.61         47.9469
225.06        37.06798
225.52        30.11594
225.98        28.48488
226.44        31.09001
226.90        37.25984
227.36         45.7391
227.81        49.98429
228.27        47.17136
228.73        41.58336
229.19        36.32076
229.65        32.56697
230.10        29.81916
230.56        27.37402
231.02        25.51133
231.48        25.57213
231.93        27.70878
232.39        31.00024
232.85        34.35978
233.31        36.94733
233.77        38.74398
234.22        40.06385
234.68         40.9615
235.14        41.63638
235.60        42.28531
236.05        43.02914
236.51        44.19632
236.97        46.45913
237.43        49.80563
237.88         53.5674
238.34        56.90649
238.80        60.22419
239.26        64.16778
239.71        69.83095
240.17        76.10703
240.63        77.02885
241.08        68.46438
241.54        54.38678
242.00        43.57002
242.46        42.13871
242.91        51.61526
243.37          75.078
243.83        117.8742
244.28        154.5013
244.74        151.2785
245.20          129.15
245.66        109.5819
246.11        99.30978
246.57        95.72127
247.03        94.92585
247.48        93.40491
247.94        82.08072
248.40        58.47079
248.85        31.90798
249.31        16.94868
249.77         21.3497
250.22        36.94522
250.68        54.68724
251.14        69.41895
251.59        79.74138
252.05        88.18743
252.51        99.26704
252.96        120.7365
253.42        156.5192
253.88        164.6915
254.33        136.4078
254.79        114.7088
255.25         102.982
255.70        95.55933
256.16        91.05047
256.62        87.64711
257.07        84.40018
257.53         82.0171
257.99        80.08423
258.44        78.41077
258.90         77.4566
259.35        76.60519
259.81        76.00534
260.27        75.25636
260.72        74.00839
261.18        72.62496
261.63        70.93552
262.09        69.38743
262.55        67.94866
263.00        66.48719
263.46        65.14781
263.91        63.68719
264.37        62.20029
264.83         60.6433
265.28        59.07382
265.74        57.61277
266.19        56.11349
266.65        54.69941
267.11        53.28648
267.56        52.07603
268.02        51.49328
268.47        51.50051
268.93        51.91195
269.38         52.2625
269.84        51.75795
270.30        50.27275
270.75        48.07649
271.21        45.67447
271.66        43.69733
272.12        42.38881
272.57        41.49698
273.03        40.90769
273.48        40.37394
273.94         39.8243
274.39        39.30429
274.85        38.78443
275.31        38.12783
275.76        37.31769
276.22        36.43759
276.67        35.52777
277.13        34.78055
277.58        34.16127
278.04        33.65802
278.49        33.20084
278.95        32.80857
279.40        32.41298
279.86        32.05953
280.31        31.65605
280.77        31.17498
281.22        30.57221
281.68        29.93632
282.13        29.27777
282.59        28.70413
283.04        28.21345
283.50        27.83709
283.95        27.56454
284.41        27.43382
284.86         27.4236
285.32        27.52692
285.77        27.71767
286.22        28.00564
286.68        28.37275
287.13        28.77575
287.59        29.13852
288.04        29.29635
288.50        29.25077
288.95        29.01842
289.41        28.75499
289.86        28.60096
290.32        28.62984
290.77        28.80272
291.22        29.06384
291.68        29.30665
292.13        29.52246
292.59        29.80632
293.04        30.23425
293.50        30.96616
293.95        32.01523
294.40        33.32907
294.86        34.83746
295.31        36.43937
295.77        38.06833
296.22        39.70739
296.68        41.32846
297.13        42.88211
297.58        44.39236
298.04        45.90226
298.49        47.42406
298.95        49.02016
299.40        50.67831
299.85         52.3769
300.31        54.18874
300.76        56.20467
301.21        58.44879
301.67        60.90724
302.12        63.36283
302.58        65.49366
303.03        67.18288
303.48        68.55101
303.94         69.9045
304.39        71.59304
304.84        73.75594
305.30        76.26228
305.75        78.87124
306.20        81.24023
306.66        83.26183
307.11        84.97359
307.57         86.5167
308.02        87.97842
308.47        89.44678
308.93        90.89678
309.38        92.25138
309.83        93.49831
310.29        94.65736
310.74        95.74085
311.19        96.81693
311.65        97.95407
312.10        99.13629
312.55        100.3316
313.00        101.5174
313.46        102.6651
313.91        103.7362
314.36        104.7275
314.82        105.5528
315.27        106.0962
315.72        106.3344
316.18        106.3534
316.63        106.2458
317.08        106.2287
317.53        106.3739
317.99        106.6421
318.44        107.0085
318.89        107.3941
319.35        107.7656
319.80        108.1609
320.25        108.5642
320.70        108.9549
321.16        109.3117
321.61        109.6363
322.06        109.9488
322.51        110.3144
322.97        110.7113
323.42        111.1534
323.87        111.5421
324.32         111.743
324.78        111.7251
325.23        111.5831
325.68        111.3933
326.13        111.3014
326.59        111.3405
327.04        111.5262
327.49        111.8408
327.94         112.277
328.39        112.8037
328.85        113.3648
329.30        113.9709
329.75        114.4642
330.20        114.8076
330.66        115.0061
331.11        115.1389
331.56        115.2108
332.01        115.2681
332.46        115.3127
332.92        115.4436
333.37        115.9415
333.82        116.8148
334.27        118.0178
334.72        119.3261
335.17        120.3301
335.63        120.8662
336.08        121.0705
336.53        121.1153
336.98        121.3717
337.43        121.9521
337.88        122.7612
338.34        123.5949
338.79        124.2073
339.24        124.4834
339.69         124.518
340.14        124.5229
340.59        124.8168
341.05        125.4631
341.50        126.3835
341.95        127.3294
342.40        127.9068
342.85        128.0356
343.30        127.8514
343.75        127.6476
344.20        127.8774
344.66        128.6271
345.11        129.7326
345.56        130.9261
346.01        131.7552
346.46        132.0898
346.91        132.0965
347.36        131.9408
347.81        131.8695
348.26        131.9785
348.72        132.1974
349.17        132.5037
349.62        132.9437
350.07        133.4665
350.52        134.0147
350.97        134.4764
351.42        134.6549
351.87        134.5085
352.32        134.1417
352.77         133.532
353.22        132.6577
353.67        131.5931
354.13         130.402
354.58        129.3597
355.03        129.0061
355.48        129.4032
355.93        130.4128
356.38        131.5146
356.83        131.8237
357.28        131.1344
357.73        129.7102
358.18        128.1198
358.63        127.2192
359.08        127.1738
359.53        127.6953
359.98         128.319
360.43        128.2853
360.88        127.3971
361.33        125.9423
361.78        124.3025
362.23        122.9967
362.68        122.1614
363.13        121.6346
363.58        121.2073
364.03        120.5758
364.48        119.6494
364.93        118.5113
365.38          117.36
365.83        116.4687
366.28        115.8806
366.73        115.5241
367.18        115.0928
367.63        114.1169
368.08        112.5575
368.53        110.6098
368.98        108.7555
369.43        107.6863
369.88        107.5131
370.33        108.0146
370.78        108.7169
371.23        108.7865
371.68         107.987
372.13        106.5942
372.58        105.0115
373.03        103.8435
373.48        103.2367
373.93        102.9626
374.38        102.8374
374.83        102.5815
375.28        102.0911
375.72        101.4758
376.17        100.7649
376.62        99.91225
377.07        98.95136
377.52        97.88809
377.97        96.87566
378.42        96.16999
378.87         95.8139
379.32        95.73257
379.77         95.7445
380.22        95.55889
380.67        95.09989
381.11        94.44793
381.56        93.72167
382.01        93.14723
382.46        92.79125
382.91        92.58077
383.36        92.41028
383.81        92.12119
384.26        91.67258
384.71        91.12291
385.15        90.54597
385.60        90.10165
386.05        89.81016
386.50        89.62431
386.95        89.45746
387.40        89.19493
387.85        88.80298
388.29        88.25051
388.74        87.73145
389.19        87.31576
389.64        87.02964
390.09        86.85017
390.54        86.63681
390.98        86.22377
391.43        85.66908
391.88        84.82336
392.33        83.95922
392.78        83.91597
393.23         84.4745
393.67         84.4462
394.12        83.89155
394.57        83.61932
395.02        83.58796
395.47        83.16556
395.91        82.46862
396.36        82.04759
396.81        81.96538
397.26        82.05601
397.71         82.1572
398.15        82.03436
398.60        81.73409
399.05        81.21831
399.50         80.6975
399.95        80.60466
400.39        80.92285
400.84        81.15942
401.29        81.14732
401.74        80.93777
402.18        80.49425
402.63        79.69789
403.08        78.80381
403.53         78.2605
403.97        78.13211
404.42        78.28522
404.87        78.56165
405.32        78.67897
405.76        78.54802
406.21        78.41371
406.66        78.27139
407.11        77.85587
407.55         77.3736
408.00        77.31836
408.45        77.64048
408.90        77.99464
409.34         78.0924
409.79        77.42686
410.24        76.28135
410.68        75.71413
411.13        75.82748
411.58        76.01068
412.03        76.14457
412.47        76.31691
412.92        76.43748
413.37        76.49155
413.81        76.48106
414.26        76.47636
414.71        76.46932
415.15        76.45501
415.60        76.40356
416.05         76.3329
416.49        76.25296
416.94        76.16497
417.39        76.07866
417.83        75.98805
418.28        75.89864
418.73        75.81652
419.17        75.74256
419.62        75.68304
420.07        75.62871
420.51        75.55953
420.96        75.52734
421.41        75.46659
421.85        75.34716
422.30        75.39974
422.74        75.58254
423.19        75.31864
423.64        75.05295
424.08         75.2074
424.53        75.94983
424.98        75.45586
425.42        75.96917
425.87        76.13329
426.31        76.52041
426.76        75.98465
427.21        74.90102
427.65         75.1727
428.10        76.41881
428.54        76.59291
428.99        75.74422
429.44        74.69413
429.88        73.91425
430.33        74.70425
430.77        76.42763
431.22        76.66912
431.66        75.46275
432.11        74.72622
432.56        74.73286
433.00        75.02931
433.45        75.46167
433.89        75.98611
434.34        75.19494
434.78        76.56927
435.23        75.24335
435.67        75.15179
436.12        75.16183
436.57         76.0118
437.01        77.40255
437.46        78.01389
437.90        77.72637
438.35        77.34007
438.79        77.01615
439.24        76.51322
439.68        75.99395
440.13        76.09647
440.57        76.74477
441.02         77.0427
441.46         76.8301
441.91        77.45478
442.35        77.42214
442.80        77.29447
443.24        76.83755
443.69        76.73876
444.13          76.985
444.58        77.06358
445.02        76.94545
445.47        77.01677
445.91        77.31665
446.36        77.55388
446.80        77.65674
447.24         78.4771
447.69        78.51857
448.13        78.76318
448.58        78.78793
449.02        78.66178
449.47        78.47598
449.91        78.33646
450.36        78.31268
450.80        78.35028
451.25        78.40496
451.69        78.34929
452.13        78.16827
452.58        77.90771
453.02        77.62305
453.47        77.44618
453.91        77.39254
454.36        77.42558
454.80        77.45488
455.24        77.40173
455.69        77.22659
456.13        76.82755
456.58        76.42373
457.02        76.18456
457.46        76.46398
457.91        76.86796
458.35          77.257
458.79        77.28886
459.24        76.95104
459.68         76.3623
460.13        75.79048
460.57        75.08952
461.01         75.3409
461.46        74.98743
461.90        75.52415
462.34         75.4437
462.79        74.95824
463.23        75.05808
463.68        75.56287
464.12        75.68001
464.56        75.32398
465.01        75.05547
465.45        74.96236
465.89         74.8708
466.34        74.54079
466.78        75.27142
467.22        74.04752
467.67        73.35621
468.11        73.90113
468.55        74.00701
468.99        74.04228
469.44        74.07791
469.88        74.13739
470.32         74.1486
470.77        74.09779
471.21         74.0293
471.65        73.92906
472.10        73.79568
472.54         73.6707
472.98        73.60188
473.42        73.58342
473.87        73.77128
474.31        74.00441
474.75        73.72602
475.20        73.08719
475.64        73.01147
476.08        73.44883
476.52         73.4465
476.97        72.93383
477.41        73.24467
477.85        72.47092
478.29        73.01849
478.74        73.05771
479.18        73.03192
479.62        72.40246
480.06        72.25984
480.50         72.5789
480.95         71.8708
481.39        72.67692
481.83         71.8271
482.27        72.34853
482.72        72.59304
483.16        72.04233
483.60        72.14711
484.04        72.47795
484.48        72.59309
484.93        72.76132
485.37        73.32096
485.81        73.08686
486.25        74.31263
486.69        73.38669
487.14        70.95174
487.58        70.43263
488.02        72.93758
488.46        71.96131
488.90        71.40415
489.34        72.33158
489.79        72.05197
490.23          71.871
490.67        71.59259
491.11        71.50866
491.55        71.77393
491.99        72.23319
492.43        72.39897
492.88        72.20196
493.32        71.94608
493.76        71.73515
494.20        71.63702
494.64        71.67759
495.08        71.79152
495.52        71.95373
495.96        72.04073
496.41         71.9754
496.85        71.99876
497.29        72.09893
497.73        71.23408
498.17        71.09383
498.61        70.75867
499.05        70.77991
499.49        71.16818
499.93        71.72072
500.37        71.79346
500.82         71.4279
501.26        71.30742
501.70        71.47872
502.14        71.76978
502.58        71.79597
503.02        71.78927
503.46        71.65471
503.90         71.4573
504.34        71.27241
504.78        71.20664
505.22        71.27309
505.66         71.4201
506.10        71.63453
506.54        71.80632
506.98        71.73249
507.42        71.99007
507.86        71.23648
508.30        70.60171
508.74        71.03874
509.18        71.15836
509.62        71.27597
510.06        71.39926
510.50        71.51506
510.94        71.58441
511.38        71.60391
511.82        71.60349
512.26        71.58434
512.70        71.52895
513.14        71.43629
513.58        71.32722
514.02         71.2141
514.46        71.02929
514.90        70.92341
515.34        70.78626
515.78         70.6704
516.22        70.57626
516.66        70.52589
517.10        70.54652
517.54         70.6344
517.98        70.77573
518.42        70.92851
518.86        71.02357
519.30        71.04417
519.74        71.01077
520.18        70.95181
520.62         70.9176
521.06         70.9211
521.50        70.93701
521.93        70.96878
522.37        71.01186
522.81        71.06204
523.25        71.12579
523.69        71.15529
524.13        71.07278
524.57        70.87795
525.01        70.60221
525.45        70.33617
525.89        70.22771
526.32        70.31229
526.76        70.51682
527.20        70.74771
527.64        70.94399
528.08        71.08153
528.52        70.85931
528.96        70.83627
529.40        70.75372
529.83        70.73513
530.27        70.54311
530.71        70.25469
531.15        70.19428
531.59        70.38099
532.03         70.6608
532.46        70.92439
532.90        71.07391
533.34        71.07213
533.78        70.89649
534.22          70.638
534.66        70.56129
535.09        70.63251
535.53        70.55481
535.97        70.33447
536.41        70.23605
536.85        70.26536
537.28        70.27539
537.72        70.25829
538.16        70.26239
538.60        70.28094
539.04          70.295
539.47        70.29545
539.91        70.30999
540.35        70.32211
540.79        70.35545
541.22        70.39886
541.66        70.33516
542.10        70.34073
542.54        70.27783
542.97        70.21436
543.41        70.20843
543.85        70.25534
544.29        70.33971
544.72        70.41696
545.16        70.45742
545.60        70.43728
546.04        70.36249
546.47        70.25697
546.91        70.20131
547.35        70.22472
547.79        70.23799
548.22        70.16161
548.66        70.29567
549.10        70.23228
549.53        69.91719
549.97        69.89806
550.41        69.95311
550.84        70.21001
551.28        70.32129
551.72         70.3041
552.15        70.26225
552.59        70.60447
553.03        70.50416
553.46          70.158
553.90        70.10468
554.34        70.36935
554.77        70.55392
555.21         70.5344
555.65        70.97797
556.08         70.5079
556.52        70.33805
556.96        70.13768
557.39        69.81359
557.83        69.48219
558.27        69.61633
558.70        70.13977
559.14        70.04219
559.57        69.95428
560.01        70.02574
560.45        70.33532
560.88        70.43969
561.32        70.34901
561.75        69.88953
562.19        69.30922
562.63        69.45403
563.06        70.15941
563.50        70.14806
563.93        69.49354
564.37        69.40562
564.80        69.84544
565.24        70.09764
565.68        70.08347
566.11         70.0584
566.55         70.0397
566.98        69.89462
567.42        69.74024
567.85        69.72005
568.29        69.87788
568.72        70.13175
569.16         70.4646
569.60        70.56795
570.03        70.34267
570.47        70.27661
570.90        70.53548
571.34        69.44147
571.77        69.98661
572.21        69.99008
572.64        70.31091
573.08        69.88385
573.51        70.19846
573.95        70.36285
574.38        70.07767
574.82        70.25666
575.25         70.8059
575.69        70.74361
576.12        70.32381
576.56         69.8949
576.99        70.59095
577.42        70.69791
577.86         70.5761
578.29        70.23507
578.73        71.17266
579.16        70.33115
579.60           69.87
580.03        69.49742
580.47        70.03519
580.90        69.40514
581.33        70.86185
581.77        70.80886
582.20        71.07487
582.64        70.61811
583.07        70.57963
583.51        70.12631
583.94        69.81203
584.37        70.10789
584.81        70.93172
585.24        70.99735
585.68        70.28867
586.11        70.45839
586.54        70.40761
586.98        69.61121
587.41        69.47282
587.85        70.42513
588.28        70.62141
588.71        69.18355
589.15        70.24889
589.58        69.67979
590.01        69.64211
590.45        69.74953
590.88        70.08672
591.31        70.18668
591.75        69.90759
592.18        69.84001
592.61        69.24709
593.05        69.73874
593.48        69.65461
593.91        69.98063
594.35        69.83434
594.78        69.68169
595.21        69.43163
595.65        69.92113
596.08        69.98925
596.51        69.77698
596.94        69.43423
597.38        69.28105
597.81         69.5214
598.24        69.24525
598.68        69.45869
599.11         68.9845
599.54        70.21934
599.97        69.76023
600.41        69.37244
600.84        69.83974
601.27        69.69851
601.70        70.08117
602.14        70.31252
602.57         70.1217
603.00        69.67103
603.43        69.38086
603.87        69.75076
604.30        70.06169
604.73        69.60424
605.16        69.40157
605.60        69.22861
606.03        69.47446
606.46        69.88209
606.89        69.68291
607.32        69.13161
607.76        68.90806
608.19        69.12022
608.62        69.77612
609.05        69.85217
609.48        69.97222
609.92        69.42257
610.35        69.12701
610.78        70.44083
611.21        70.48566
611.64        69.68353
612.07        70.22308
612.50        70.08069
612.94        70.09086
613.37        69.65014
613.80        69.83627
614.23        69.67683
614.66         69.8897
615.09        69.21513
615.52        69.17451
615.96        69.42255
616.39        69.69241
616.82        69.91161
617.25        69.78669
617.68        69.80184
618.11        69.75773
618.54        69.77933
618.97        69.59987
619.40        69.32647
619.84        69.16779
620.27        69.13608
620.70        69.50815
621.13        70.25181
621.56        69.43756
621.99        69.36129
622.42         69.6265
622.85        69.35708
623.28        69.32909
623.71        69.03573
624.14        70.07218
624.57        69.65095
625.00        69.84559
625.43        69.84552
625.86        69.64662
626.29        69.27676
626.72        69.28266
627.15        69.11456
627.58        69.14337
628.01        69.14452
628.44        69.26098
628.87        69.45258
629.30        69.10995
629.73        69.02846
630.16        69.05189
630.59        69.11694
631.02        69.31126
631.45        69.47904
631.88        69.55788
632.31        69.51271
632.74        69.37711
633.17        69.21546
633.60        69.12348
634.03        69.12994
634.46        69.20673
634.89        69.30962
635.32         69.3652
635.75        69.35033
636.18        69.28768
636.61         69.2041
637.04        69.14381
637.47        69.12584
637.89        69.12295
638.32        69.08894
638.75        69.06207
639.18        69.05241
639.61         68.7767
640.04        68.78375
640.47        68.70438
640.90        68.70436
641.33        68.74572
641.76        68.78793
642.18        68.85902
642.61        68.94482
643.04        68.89106
643.47        68.65678
643.90        69.14985
644.33        68.88616
644.76        68.95123
645.18        68.93416
645.61        69.14825
646.04        69.47641
646.47        69.36963
646.90        68.92959
647.33        68.78362
647.75        68.96952
648.18        69.13057
648.61        69.22076
649.04        69.25615
649.47        69.20676
649.89        69.25948
650.32         69.3579
650.75        69.03129
651.18        68.46743
651.61        68.61205
652.03        69.39434
652.46        69.58401
652.89        69.12519
653.32        69.09724
653.74        69.65013
654.17        68.93686
654.60         68.9993
655.03        69.10248
655.46        68.87739
655.88        68.71845
656.31         76.5496
656.74         74.5801
657.16        68.11245
657.59        67.04921
658.02        69.02517
658.45        69.15358
658.87        69.32979
659.30        68.42176
659.73        69.00353
660.15        69.77002
660.58        69.09262
661.01        68.76841
661.44        68.34347
661.86        68.39852
662.29         68.8537
662.72         69.1282
663.14        69.17355
663.57        69.23467
664.00         69.3245
664.42        69.33408
664.85        69.27271
665.27        69.12234
665.70        68.94824
666.13        68.88968
666.55        68.98023
666.98        69.16074
667.41        69.38162
667.83        69.56596
668.26        69.66262
668.69        69.69063
669.11        69.67258
669.54        69.65376
669.96        69.63359
670.39        69.58616
670.82        69.52145
671.24        69.37108
671.67        69.21027
672.09        69.30004
672.52        69.56897
672.94        69.61553
673.37        69.41682
673.80        69.16174
674.22        68.95468
674.65        68.87448
675.07        68.95958
675.50        69.12213
675.92        69.29371
676.35        69.39978
676.77        69.41249
677.20        69.33112
677.62        69.20976
678.05         69.1372
678.47        69.13499
678.90        69.18345
679.32        69.24532
679.75        69.27392
680.17        69.24896
680.60        69.24752
681.02        69.19212
681.45        69.18552
681.87        69.21514
682.30        69.25824
682.72        69.30857
683.15        69.32377
683.57        69.30739
684.00        69.27344
684.42        69.23185
684.85        69.21074
685.27         69.1995
685.70        69.19175
686.12         69.1845
686.54        69.18168
686.97         69.1792
687.39          69.243
687.82        69.29553
688.24        69.13692
688.66        68.86916
689.09        68.58997
689.51        68.95834
689.94        69.06212
690.36        69.09076
690.78        69.25909
691.21        69.55867
691.63        69.82212
692.06         70.0294
692.48        70.28823
692.90        70.53519
693.33        70.60685
693.75        70.49911
694.17        70.21811
694.60        69.87954
695.02         69.7198
695.44        69.71841
695.87        69.68267
696.29        69.60347
696.71        69.40148
697.14        69.21513
697.56        69.55042
697.98        70.25139
698.41        70.57072
698.83        70.44086
699.25         70.2571
699.68        70.09915
700.10        70.00775
700.52        70.01997
700.94        70.06535
701.37        70.11401
701.79        70.30836
702.21        70.45632
702.64        70.45849
703.06        70.31988
703.48        70.16553
703.90         69.9986
704.33        70.20972
704.75        69.91885
705.17        69.91585
705.59        69.94028
706.01        69.98225
706.44        70.05544
706.86        70.19096
707.28        70.36628
707.70        70.65461
708.12         70.9529
708.55        70.87272
708.97        70.49117
709.39        70.36029
709.81        70.50124
710.23        70.50036
710.66        70.35579
711.08        70.35531
711.50        70.46443
711.92        70.50034
712.34        70.44839
712.76        70.36654
713.19        70.26714
713.61        70.22115
714.03        70.22349
714.45        70.24542
714.87        70.29073
715.29        70.36964
715.71        70.47669
716.13        70.61649
716.56        70.71861
716.98        70.75457
717.40        70.68411
717.82        70.52056
718.24        70.35989
718.66        70.35792
719.08        70.53939
719.50        70.85642
719.92        71.17877
720.34        71.29173
720.76        71.14863
721.19        70.82226
721.61        70.44806
722.03        70.23353
722.45        70.24261
722.87        70.42139
723.29        70.68773
723.71        70.89297
724.13         70.9823
724.55         71.0061
724.97        71.02645
725.39        71.03269
725.81        71.21301
726.23        71.39072
726.65        71.52559
727.07        71.47409
727.49        71.22224
727.91        70.83115
728.33        70.42899
728.75        70.21838
729.17        70.24526
729.59         70.4425
730.01        70.71761
730.43        70.90698
730.85        70.95502
731.27        70.92267
731.69        70.82641
732.10        70.69067
732.52        70.54467
732.94        70.37078
733.36        70.24333
733.78        70.28226
734.20        70.49567
734.62        70.88358
735.04        71.32752
735.46        71.50967
735.88         71.4489
736.30        71.49703
736.72        71.62901
737.13        71.60832
737.55        71.42598
737.97        71.11754
738.39        70.83451
738.81        71.07262
739.23        71.71432
739.65        71.92293
740.06        71.64338
740.48        71.60104
740.90        71.77153
741.32        71.74914
741.74        71.53178
742.16        71.37398
742.57         71.3107
742.99        71.22715
743.41        71.18019
743.83        71.31844
744.25        71.60207
744.67        71.85221
745.08        71.99916
745.50        71.99647
745.92        71.84048
746.34        71.49667
746.75        71.07133
747.17        70.81251
747.59        70.75563
748.01        70.84195
748.42        71.02216
748.84        71.17562
749.26        71.27435
749.68        71.33907
750.09         71.3764
750.51        71.44556
750.93        71.53122
751.35        71.54727
751.76        71.53191
752.18        71.57785
752.60         71.6925
753.01         71.8996
753.43        72.14831
753.85        72.10587
754.27        72.25236
754.68        72.20831
755.10        72.16943
755.52        72.19692
755.93        72.29948
756.35        72.42999
756.77        72.53294
757.18        72.57508
757.60        72.57455
758.02        72.50768
758.43        72.26752
758.85        72.39149
759.26        71.73072
759.68        71.48418
760.10        72.12228
760.51        72.34265
760.93          72.257
761.34        72.24666
761.76        72.31215
762.18        71.84995
762.59        71.15369
763.01        71.42082
763.42        72.55672
763.84         73.0491
764.26         72.7841
764.67        72.54607
765.09        72.48266
765.50        72.38816
765.92        72.31816
766.33        72.25466
766.75        72.12962
767.16         72.1679
767.58        72.32745
768.00        72.31488
768.41        72.27802
768.83         72.8661
769.24        73.83365
769.66        74.22302
770.07         73.9584
770.49        73.33808
770.90         72.6651
771.32        72.70585
771.73        73.34634
772.15        73.48877
772.56        73.09274
772.97        72.88363
773.39        72.93047
773.80        73.02158
774.22        73.13095
774.63        73.36625
775.05        73.63306
775.46        73.84674
775.88         73.9451
776.29        73.96572
776.70        73.93412
777.12        73.92826
777.53        73.98212
777.95        74.04418
778.36         74.0882
778.77        74.02538
779.19        73.84155
779.60        73.64865
780.02        73.47392
780.43        73.19587
780.84        72.93015
781.26        73.00625
781.67        73.34816
782.09         73.5761
782.50        73.58543
782.91        73.29597
783.33        72.93154
783.74        72.90427
784.15        73.29638
784.57        73.81329
784.98        74.37497
785.39        74.90755
785.81        75.34535
786.22        75.47693
786.63        75.71906
787.04        75.70007
787.46        75.59014
787.87        75.32571
788.28        75.07859
788.70        75.04575
789.11        75.22508
789.52         75.7151
789.93        76.26243
790.35        76.15942
790.76        75.49502
791.17        74.98837
791.58        74.80193
792.00         74.7564
792.41        74.86155
792.82        74.99753
793.23        75.09245
793.65        75.39542
794.06        75.74391
794.47        75.39781
794.88         74.6218
795.29        74.38704
795.71        74.68646
796.12        75.15359
796.53        75.58395
796.94        75.79686
797.35        75.67843
797.76        75.30955
798.18        74.87614
798.59        74.61839
799.00        74.61608
799.41        74.78551
799.82        75.05962
800.23        75.32561
800.64        75.52762
801.06        75.68274
801.47        75.79098
801.88        75.73991
802.29        75.52866
802.70        75.18226
803.11        74.82172
803.52        74.65102
803.93        74.72701
804.34        74.99542
804.75        75.36505
805.17        75.70431
805.58         75.9991
805.99        76.08929
806.40        76.00462
806.81        76.19852
807.22        76.51004
807.63        76.02482
808.04        74.97086
808.45        74.55386
808.86        74.89809
809.27        75.38966
809.68        75.84455
810.09        76.19707
810.50        76.35202
810.91        76.33523
811.32        76.20237
811.73        76.05312
812.14        75.93592
812.55         75.8148
812.96          75.748
813.37         75.8362
813.78        76.08572
814.19        76.47482
814.60         76.8764
815.01        77.08561
815.42        77.05814
815.83        76.83805
816.24        76.53318
816.65        76.36242
817.05        76.40044
817.46        76.55182
817.87         76.7439
818.28        76.82244
818.69        76.74384
819.10        76.55601
819.51        76.31113
819.92         76.1041
820.33        75.97739
820.74        75.90412
821.14        75.85094
821.55        75.79527
821.96        75.71964
822.37        75.66346
822.78        75.65136
823.19        75.71461
823.60        75.86748
824.00        76.10835
824.41        76.40196
824.82        76.81207
825.23        77.31226
825.64        77.85072
826.04        78.34458
826.45        78.57787
826.86        78.53207
827.27        78.27412
827.68        77.85453
828.08        77.38653
828.49        76.90026
828.90         76.3923
829.31        75.99409
829.72        75.89394
830.12        76.15717
830.53        76.72624
830.94        77.35996
831.35        77.56282
831.75         77.2338
832.16        76.44939
832.57        75.65884
832.97        75.54935
833.38        76.22757
833.79        77.47208
834.20        78.79318
834.60        79.35381
835.01        78.91115
835.42        77.78423
835.82        76.41315
836.23        75.46875
836.64        75.15801
837.04        75.29046
837.45        75.69325
837.86        76.13947
838.26        76.52409
838.67        76.89684
839.08        77.20455
839.48        77.31518
839.89        77.20081
840.29        76.86846
840.70        76.46273
841.11        76.20444
841.51        76.16528
841.92        76.27208
842.33        76.46322
842.73        76.62791
843.14         76.6798
843.54        76.72054
843.95        76.72849
844.35        76.75263
844.76        76.77721
845.17        76.76759
845.57        76.78094
845.98        76.90531
846.38        77.16048
846.79        77.50463
847.19        77.80076
847.60        77.71931
848.00        77.24471
848.41         76.4858
848.81        75.71858
849.22        75.34663
849.62        75.47657
850.03        75.94458
850.43        76.59884
850.84        77.01049
851.24        77.11166
851.65        76.99806
852.05        76.77403
852.46        76.56087
852.86        76.41404
853.27        76.29892
853.67         76.2693
854.07        76.60255
854.48         77.2429
854.88        78.23968
855.29        79.17206
855.69        79.49142
856.10        78.90161
856.50        77.68514
856.90        76.29562
857.31        75.40582
857.71        75.17042
858.12        75.33817
858.52        75.79105
858.92        76.07909
859.33        76.02725
859.73        75.84357
860.13         75.4985
860.54        74.96451
860.94        74.28746
861.34        73.43607
861.75        72.65374
862.15        72.43346
862.55        72.85129
862.96        73.76614
863.36        74.81162
863.76        75.28942
864.17        75.03046
864.57        74.24727
864.97        73.30963
865.38        72.84004
865.78        73.03667
866.18        73.68039
866.58         74.4846
866.99        74.93587
867.39        74.90479
867.79        74.57983
868.19        74.10721
868.60        73.65169
869.00        73.28177
869.40        72.92237
869.80        72.71252
870.21        72.91408
870.61        73.59035
871.01        74.59145
871.41        75.53307
871.81        75.83317
872.22         75.3752
872.62        74.33161
873.02        73.06262
873.42        72.17822
873.82        71.89111
874.22         72.0785
874.63        72.52081
875.03        72.84587
875.43        72.95652
875.83        72.96664
876.23         73.0759
876.63        73.59402
877.03        74.53725
877.44        75.70126
877.84        76.80183
878.24        77.33422
878.64         77.1728
879.04        76.51888
879.44        75.58753
879.84        74.70027
880.24        73.99192
880.64        73.38646
881.04         72.9884
881.44         72.9445
881.84        73.26714
882.24         73.9708
882.65        74.75962
883.05        75.18981
883.45        75.08453
883.85        74.54023
884.25        73.94411
884.65        73.89647
885.05        74.50412
885.45         75.5924
885.85        76.73395
886.25        77.19544
886.65        76.78825
887.05        75.74828
887.45        74.55858
887.85        73.96796
888.25        74.15939
888.65        74.89824
889.04        75.78218
889.44        76.13965
889.84        75.80926
890.24        75.01553
890.64        74.09954
891.04        73.53204
891.44        73.43925
891.84        73.70569
892.24        74.07307
892.64        74.12228
893.04        73.76187
893.44        73.12115
893.83        72.56538
894.23        72.65967
894.63        73.46117
895.03        74.78318
895.43        76.11891
895.83        76.55843
896.23        75.90372
896.63        74.53345
897.02        72.97816
897.42        72.09904
897.82         72.0255
898.22        72.53918
898.62        73.42593
899.01        74.33829
899.41        75.05594
899.81        75.70331
900.21        76.30114
900.61        76.87669
901.00        77.41349
901.40        77.79711
901.80         77.9819
902.20         77.9463
902.59        77.71109
902.99        77.33345
903.39        76.86353
903.79        76.36475
904.18        75.87351
904.58        75.41494
904.98        75.07079
905.38        74.96321
905.77        75.09055
906.17        75.44222
906.57        75.80666
906.96        75.85154
907.36        75.49373
907.76        74.83524
908.15        74.18282
908.55        73.99165
908.95        74.38319
909.34        75.22619
909.74        76.16879
910.14        76.71677
910.53        76.71723
910.93        76.31194
911.33        75.75501
911.72         75.4447
912.12        75.50745
912.52        75.81187
912.91        76.13692
913.31         76.1207
913.70        75.69911
914.10        75.02271
914.49         74.3586
914.89         74.0835
915.29        74.29049
915.68        74.85188
916.08         75.5579
916.47        76.07806
916.87        76.29513
917.26        76.30829
917.66        76.22733
918.05        76.21486
918.45        76.31792
918.84        76.51637
919.24        76.74736
919.64        76.99922
920.03        77.25719
920.42         77.4878
920.82        77.71107
921.21        77.97362
921.61        78.23689
922.00        78.49891
922.40        78.60844
922.79        78.39883
923.19        77.85166
923.58         77.0762
923.98        76.26964
924.37        75.62285
924.77        75.22509
925.16        75.01917
925.55        75.00001
925.95        75.10126
926.34          75.306
926.74        75.58295
927.13        75.96735
927.52        76.41145
927.92        76.86953
928.31        77.33733
928.70        77.72009
929.10        77.91007
929.49        77.90903
929.89        77.73273
930.28        77.49123
930.67        77.32264
931.07        77.25688
931.46        77.24819
931.85        77.27241
932.24        77.28817
932.64         77.2773
933.03         77.3186
933.42        77.28542
933.82        76.99604
934.21        76.44297
934.60         75.6544
934.99        74.98097
935.39        74.92517
935.78        75.60315
936.17        76.92097
936.56        78.31554
936.96        78.74946
937.35        78.01458
937.74        76.39226
938.13        74.68282
938.53        73.96482
938.92        74.38748
939.31        75.68115
939.70        77.22569
940.09        77.87616
940.49        77.32635
940.88        76.00434
941.27        74.53936
941.66         73.8628
942.05        74.20543
942.44        75.25584
942.84         76.6417
943.23        77.77779
943.62        78.33391
944.01        78.50916
944.40        78.37901
944.79        78.06393
945.18        77.65955
945.57        77.10191
945.97        76.53953
946.36        76.32996
946.75        76.50615
947.14        77.02275
947.53        77.65642
947.92        77.96513
948.31        77.82677
948.70        77.37923
949.09        76.84699
949.48        76.57649
949.87        76.66332
950.26        76.99974
950.65        77.46732
951.04        77.86813
951.43        78.10568
951.82        78.20844
952.21        78.22506
952.60        78.23479
952.99        78.24002
953.38        78.19643
953.77         78.0076
954.16        77.52154
954.55         76.7717
954.94        75.91711
955.33        75.12537
955.72        74.62453
956.11        74.47891
956.50        74.58101
956.89        74.97221
957.28        75.72445
957.66        76.82365
958.05        78.10635
958.44        79.19779
958.83        79.36913
959.22        78.49594
959.61        76.88694
960.00        75.09319
960.39        73.89236
960.78        73.47642
961.16         73.6592
961.55        74.24468
961.94        75.00238
962.33        75.77798
962.72        76.65453
963.11        77.39466
963.49        77.56997
963.88        77.06568
964.27        76.05042
964.66        74.91467
965.04        74.23322
965.43        74.10457
965.82        74.34026
966.21         74.7915
966.60        75.14336
966.98        75.28104
967.37        75.34061
967.76        75.22411
968.15        74.73367
968.53        73.91512
968.92        72.79495
969.31        71.85159
969.69        71.86398
970.08        72.90948
970.47        74.77029
970.86        76.78131
971.24        77.70636
971.63        77.11001
972.02        75.44253
972.40        73.30379
972.79        71.65674
973.17        70.83351
973.56        70.57461
973.95         70.7526
974.33         71.1946
974.72        71.73238
975.11         72.3923
975.49        73.19878
975.88        74.06371
976.26        74.95719
976.65         75.7825
977.04        76.15527
977.42          75.491
977.81        73.80583
978.19        71.33737
978.58        69.23706
978.96        68.98278
979.35        70.82502
979.74        74.44515
980.12        78.90178
980.51        81.59799
980.89        81.81859
981.28        80.06954
981.66        77.47318
982.05        76.00031
982.43        76.18305
982.82        77.36394
983.20        79.18349
983.59        80.83813
983.97        82.07685
984.35        83.15785
984.74        83.70767
985.12        83.21469
985.51        81.66443
985.89        79.15512
986.28        76.60802
986.66         75.3875
987.04        75.91624
987.43        77.82178
987.81        80.22963
988.20        81.37897
988.58        80.82088
988.96        78.91209
989.35        76.62901
989.73        75.53043
990.12         75.9502
990.50         77.4534
990.88        79.01853
991.27        79.01625
991.65        77.20335
992.03        74.24398
992.42        71.23716
992.80        69.57589
993.18        69.72165
993.56        71.12511
993.95        73.18132
994.33        75.16004
994.71        76.48543
995.10        77.43166
995.48        77.75533
995.86        77.04988
996.24        75.42708
996.63        73.02681
997.01         70.6568
997.39        69.53062
997.77        69.89042
998.15        71.50536
998.54        73.68961
998.92        75.13265
999.30         75.3642
999.68        74.67422
1000.06        73.67717
1000.45          73.429
1000.83        74.38872
1001.21        76.17111
1001.59        78.09486
1001.97        79.03969
1002.35         78.6733
1002.73        77.31017
1003.12        75.74046
1003.50        75.17793
1003.88        75.91173
1004.26        77.53426
1004.64        79.16489
1005.02        79.51405
1005.40        78.35554
1005.78        76.11172
1006.16        73.64283
1006.54        72.47533
1006.92        73.04433
1007.30        74.82639
1007.69        76.95261
1008.07         78.2375
1008.45        78.21465
1008.83        77.35397
1009.21        76.01067
1009.59        74.76064
1009.97        73.88855
1010.35        73.17428
1010.73        72.88976
1011.11        73.53859
1011.49        75.22359
1011.86        78.11634
1012.24        81.31174
1012.62         83.5004
1013.00        84.16689
1013.38        83.40093
1013.76        82.12861
1014.14        82.21819
1014.52        84.18756
1014.90        87.49346
1015.28        90.76073
1015.66        91.52665
1016.04        89.39674
1016.41        85.59991
1016.79        81.74654
1017.17        79.03499
1017.55        77.45094
1017.93        76.50121
1018.31        75.81403
1018.69        74.81416
1019.06        73.52991
1019.44        72.52079
1019.82        71.98537
1020.20        71.89966
1020.58        72.22528
1020.95        72.94283
1021.33        74.02998
1021.71        75.03078
1022.09        75.57729
1022.46        75.51618
1022.84        75.34965
1023.22        76.22907
1023.60        78.30862
1023.97        81.43279
1024.35        84.07531
1024.73        83.61826
