SpectraSmart Spectrum 2.9.0.0
--------- Device Information -----------
Spectrum Name :  反射率_0
Saving Time :  2024/05/01 16:32:34
Spectro-Module Model Name : SE2030-DUVN
Spectro-Module Serial Number : OS361AC55029948
Wavelength Start : 200
Wavelength End : 1025
Wavelength Unit : Wavelength(nm)
Spectrum Unit : Reflectance(%)
-----------Spectrum Setting ------------
Integration Time : 20ms
Average : 10
Boxcar : 0
Background removal :  enabled
linearity correction :  enabled
SC :  disabled
Intensity correction :  disabled
DWT denoise :  enabled
savitzky-golay :  disabled
FFT :  disabled
Running average :  disabled
Kalman :  disabled
High pass :  disabled
---------------BEGIN--------------------
Wavelength(nm)             Reflectance(%)
200.29               0
200.75        55.59774
201.21        350.5014
201.67       -169.9445
202.13       -58.32344
202.58       -15.13876
203.04        12.80838
203.50        31.24321
203.96         41.1358
204.42        45.71426
204.88        47.85163
205.34          61.425
205.80        35.31023
206.26        21.75888
206.72       -10.44699
207.18       -179.6897
207.64        314.6322
208.10        144.4874
208.55        104.6414
209.01        86.11427
209.47        77.88881
209.93        75.24429
210.39         74.4275
210.85        76.11716
211.31        83.72296
211.77        114.5301
212.23       -147.3056
212.69        16.23142
213.14        43.27622
213.60        97.26357
214.06       -437.0439
214.52       -63.68969
214.98       -38.28891
215.44        -31.7416
215.90       -32.13077
216.36       -75.54198
216.81       -23.87987
217.27       -68.27658
217.73        182.0271
218.19         38.1057
218.65        21.70234
219.11        12.67791
219.57        -5.84767
220.02        -80.1786
220.48       -37.76891
220.94       0.5843421
221.40        11.02714
221.86        15.08529
222.32        17.05135
222.77        18.51334
223.23        20.21653
223.69        21.68323
224.15        20.72313
224.61        17.90109
225.06         15.1249
225.52        13.93566
225.98        14.96348
226.44        18.08773
226.90        23.30923
227.36        30.26676
227.81        34.97021
228.27          34.857
228.73        32.24592
229.19        29.15406
229.65        26.45492
230.10        23.94361
230.56        21.28561
231.02        18.86322
231.48        18.29844
231.93        20.10898
232.39           23.32
232.85        27.00086
233.31        30.47881
233.77        33.58555
234.22        36.44027
234.68        38.87432
235.14        40.94064
235.60        42.89484
236.05        45.05439
236.51        47.77348
236.97        51.23887
237.43        54.82229
237.88        57.71013
238.34        59.34031
238.80        60.56933
239.26        61.94514
239.71        63.91985
240.17        65.60587
240.63        64.02052
241.08        58.04078
241.54        50.62924
242.00        46.34671
242.46        48.35296
242.91        58.16804
243.37        78.41872
243.83        113.6078
244.28        143.4672
244.74        140.5993
245.20        122.3938
245.66         105.618
246.11        94.81193
246.57        87.34825
247.03        78.75424
247.48        65.85899
247.94         48.3748
248.40        32.47454
248.85         23.2427
249.31        24.44881
249.77        33.02387
250.22        43.70154
250.68        53.84901
251.14        61.92107
251.59        68.17885
252.05        74.68088
252.51         85.0773
252.96        108.5979
253.42        155.3227
253.88        178.5048
254.33        153.9099
254.79        130.6417
255.25        117.5763
255.70        109.2407
256.16        103.9919
256.62        99.49329
257.07        94.52639
257.53        90.41984
257.99        87.09755
258.44        84.75152
258.90        84.26893
259.35        84.77421
259.81        86.03364
260.27        87.20461
260.72        87.29866
261.18        86.58079
261.63        85.08556
262.09         83.4328
262.55        81.67677
263.00         79.7627
263.46        77.88438
263.91        75.92379
264.37        74.23653
264.83         72.7435
265.28        71.39668
265.74        70.16006
266.19        68.59938
266.65        66.83221
267.11        64.88018
267.56        63.07911
268.02        62.07426
268.47         61.8816
268.93        62.23803
269.38        62.63939
269.84         62.2332
270.30        60.85296
270.75          58.787
271.21        56.47327
271.66        54.42596
272.12        52.88258
272.57        51.60409
273.03        50.60416
273.48        49.82631
273.94        49.24214
274.39        48.82815
274.85        48.42881
275.31        47.69834
275.76        46.59561
276.22        45.30731
276.67        43.99172
277.13        43.03212
277.58        42.40025
278.04        42.00785
278.49        41.67822
278.95        41.29885
279.40        40.75457
279.86        40.15453
280.31        39.43695
280.77        38.63653
281.22        37.72818
281.68        36.81612
282.13        35.90575
282.59        35.12032
283.04        34.45344
283.50        33.93765
283.95         33.5901
284.41        33.49898
284.86        33.62703
285.32         33.9427
285.77        34.32207
286.22         34.6561
286.68        34.90784
287.13        35.06351
287.59          35.141
288.04        35.13047
288.50        35.07377
288.95        34.93445
289.41        34.78297
289.86        34.61998
290.32        34.50649
290.77        34.45365
291.22        34.48633
291.68        34.61363
292.13        34.84801
292.59        35.23925
293.04        35.80547
293.50        36.62519
293.95        37.68153
294.40        38.94568
294.86        40.36441
295.31        41.86211
295.77        43.38543
296.22        44.90574
296.68        46.39626
297.13        47.80642
297.58        49.16214
298.04        50.51044
298.49        51.86804
298.95        53.30564
299.40        54.81079
299.85        56.36046
300.31        58.01636
300.76         59.8466
301.21         61.8709
301.67        64.07861
302.12        66.26965
302.58        68.15647
303.03         69.6328
303.48        70.81664
303.94        71.99483
304.39        73.47813
304.84        75.40272
305.30        77.65369
305.75        80.02076
306.20        82.21159
306.66        84.13017
307.11        85.79298
307.57        87.31215
308.02         88.7327
308.47        90.12488
308.93          91.467
309.38        92.69255
309.83        93.80644
310.29        94.83681
310.74        95.80087
311.19        96.74625
311.65        97.71047
312.10        98.68118
312.55        99.63964
313.00        100.6303
313.46         101.726
313.91         102.902
314.36        104.1246
314.82        105.2053
315.27        105.8612
315.72        106.0296
316.18        105.8417
316.63        105.4972
317.08        105.3797
317.53        105.5939
317.99        106.0446
318.44        106.6101
318.89        107.0513
319.35        107.2961
319.80        107.4421
320.25        107.5607
320.70        107.7638
321.16        108.0729
321.61        108.4535
322.06        108.8792
322.51        109.3392
322.97         109.785
323.42        110.2511
323.87        110.6674
324.32        110.9447
324.78        111.0566
325.23        111.0704
325.68         111.016
326.13        110.9731
326.59        110.9599
327.04        111.0133
327.49        111.1627
327.94         111.479
328.39        111.9599
328.85        112.5386
329.30        113.1932
329.75        113.7064
330.20         114.024
330.66        114.1663
331.11        114.2544
331.56        114.3607
332.01        114.5427
332.46        114.7759
332.92         115.091
333.37        115.6594
333.82        116.4613
334.27        117.4787
334.72        118.5598
335.17        119.4255
335.63        119.9526
336.08        120.2398
336.53        120.3959
336.98        120.6862
337.43        121.1946
337.88        121.8663
338.34        122.5383
338.79        123.0312
339.24        123.2561
339.69        123.2842
340.14        123.3206
340.59        123.6766
341.05        124.4049
341.50        125.4308
341.95        126.4841
342.40        127.1323
342.85        127.2905
343.30         127.109
343.75        126.9044
344.20        127.1702
344.66        128.0034
345.11        129.2199
345.56        130.5509
346.01        131.5419
346.46        132.0444
346.91        132.2144
347.36        132.1741
347.81        132.1057
348.26        132.1021
348.72        132.1245
349.17        132.1987
349.62        132.4503
350.07        132.8575
350.52        133.3433
350.97        133.8013
351.42        134.0357
351.87        133.9932
352.32        133.7792
352.77        133.3136
353.22        132.4887
353.67          131.36
354.13        129.9996
354.58        128.7628
355.03        128.3157
355.48        128.7461
355.93        129.8942
356.38        131.1317
356.83          131.39
357.28        130.4445
357.73        128.6389
358.18        126.7123
358.63        125.7694
359.08        126.0152
359.53        127.0666
359.98        128.3039
360.43        128.7001
360.88         127.964
361.33          126.46
361.78        124.6429
362.23        123.1478
362.68        122.1568
363.13        121.4711
363.58        120.9026
364.03        120.1861
364.48        119.2415
364.93         118.167
365.38        117.1139
365.83        116.2708
366.28        115.6594
366.73        115.2124
367.18        114.6932
367.63        113.7498
368.08        112.3586
368.53        110.6777
368.98        109.0611
369.43        108.0112
369.88        107.6089
370.33        107.6862
370.78         107.938
371.23        107.8316
371.68        107.2082
372.13        106.2477
372.58        105.1564
373.03        104.2369
373.48        103.5688
373.93        103.0258
374.38         102.565
374.83        102.1412
375.28         101.719
375.72        101.3162
376.17        100.8849
376.62        100.2707
377.07        99.46004
377.52        98.49108
377.97        97.50631
378.42        96.73938
378.87        96.24258
379.32        95.95382
379.77        95.73293
380.22        95.35384
380.67        94.76858
381.11        94.05967
381.56        93.34303
382.01        92.83269
382.46        92.58077
382.91        92.49762
383.36        92.48009
383.81        92.37531
384.26        92.12823
384.71         91.7877
385.15        91.35138
385.60        90.86906
386.05        90.35531
386.50        89.80792
386.95        89.27875
387.40        88.85855
387.85        88.55862
388.29        88.29484
388.74        88.11366
389.19        87.87178
389.64        87.54136
390.09        87.14277
390.54        86.68837
390.98        86.20947
391.43        85.79224
391.88        85.34892
392.33          84.911
392.78        84.69202
393.23        84.62536
393.67        84.26559
394.12        83.73855
394.57        83.56689
395.02        83.63712
395.47         83.1911
395.91        82.39487
396.36        82.09427
396.81        82.33823
397.26        82.72243
397.71        82.99523
398.15        82.90223
398.60        82.48833
399.05        81.75112
399.50        80.96848
399.95        80.67515
400.39         80.8992
400.84        81.07806
401.29        81.06995
401.74        81.14907
402.18         81.1481
402.63        80.40409
403.08        79.21576
403.53        78.57349
403.97        78.56761
404.42        78.76109
404.87        78.94698
405.32        78.93452
405.76        78.64053
406.21        78.23449
406.66        77.82703
407.11        77.44676
407.55        77.25468
408.00        77.46463
408.45        77.93621
408.90        78.25156
409.34        78.19327
409.79         77.5845
410.24        76.68052
410.68        76.18787
411.13        76.20409
411.58        76.35028
412.03        76.50703
412.47         76.6338
412.92        76.64048
413.37        76.56557
413.81        76.43349
414.26        76.33824
414.71        76.27798
415.15         76.2347
415.60        76.17467
416.05        76.11079
416.49        76.04678
416.94        75.98584
417.39        75.91773
417.83        75.80626
418.28        75.65291
418.73        75.46988
419.17        75.29631
419.62         75.1992
420.07        75.18222
420.51        75.20911
420.96        75.27386
421.41        75.24333
421.85         75.0726
422.30        74.97978
422.74        74.95132
423.19         74.7446
423.64        74.49863
424.08        74.91809
424.53        75.78952
424.98        76.15911
425.42        75.89619
425.87        75.58255
426.31        75.23599
426.76        74.94661
427.21         74.8204
427.65        75.18449
428.10        75.73177
428.54        75.88734
428.99        75.65426
429.44        74.77052
429.88        73.68623
430.33        74.29103
430.77        75.95065
431.22        75.87254
431.66        74.28548
432.11        73.62142
432.56        74.01832
433.00        74.76382
433.45        75.63504
433.89        75.15033
434.34        73.98875
434.78        75.86565
435.23        75.29429
435.67        75.41834
436.12        74.82287
436.57        75.28611
437.01        76.54272
437.46        77.40393
437.90         76.7675
438.35        76.46894
438.79        76.30451
439.24        75.87835
439.68        75.34238
440.13        75.33887
440.57        75.84295
441.02        76.15935
441.46        76.17354
441.91        76.51035
442.35        77.02048
442.80        76.61954
443.24        76.75558
443.69        76.49657
444.13        76.34375
444.58        76.28155
445.02         76.3186
445.47        76.49398
445.91        76.75523
446.36        77.03319
446.80        77.28164
447.24        77.53687
447.69        77.74515
448.13        77.79036
448.58        77.68782
449.02        77.45951
449.47        77.23427
449.91        77.15356
450.36        77.26807
450.80        77.51416
451.25        77.78249
451.69        77.84429
452.13        77.66369
452.58        77.32049
453.02        76.90981
453.47        76.63145
453.91        76.52149
454.36        76.51489
454.80        76.54268
455.24        76.51723
455.69        76.36884
456.13        76.09156
456.58        75.87319
457.02        75.34158
457.46        75.52076
457.91         75.8773
458.35         76.4324
458.79        76.44407
459.24        75.86989
459.68        75.20312
460.13        74.77132
460.57        73.69276
461.01        74.02026
461.46        74.09217
461.90        74.25852
462.34        74.52472
462.79        73.80028
463.23        73.79309
463.68        74.11031
464.12        74.12701
464.56        73.81956
465.01        73.69625
465.45         73.7024
465.89        73.65134
466.34        73.51532
466.78        73.60866
467.22         73.3084
467.67        73.24854
468.11        73.03851
468.55        72.90479
468.99        72.79356
469.44        72.71615
469.88        72.69376
470.32        72.73279
470.77        72.80768
471.21        72.87386
471.65        72.89447
472.10        72.88513
472.54        72.83992
472.98        72.75248
473.42        72.61953
473.87        72.56844
474.31        72.54018
474.75        72.22141
475.20        71.72732
475.64        71.73158
476.08        72.18279
476.52        72.02469
476.97        71.80807
477.41        72.02409
477.85         71.2936
478.29         71.8492
478.74        71.69641
479.18        71.63613
479.62        71.27955
480.06        71.18247
480.50        71.37154
480.95        70.71664
481.39        71.71131
481.83          70.439
482.27        70.99519
482.72        70.95096
483.16        70.78119
483.60        70.92682
484.04        71.15797
484.48        71.23661
484.93         71.4249
485.37        71.95914
485.81        71.47926
486.25        72.67405
486.69        72.09621
487.14        69.38445
487.58        68.86277
488.02        71.07569
488.46        70.44061
488.90        70.26288
489.34        71.02507
489.79        70.67723
490.23         70.4572
490.67        70.21129
491.11        70.23152
491.55        70.48479
491.99         70.8289
492.43        70.94036
492.88        70.76116
493.32        70.50634
493.76        70.25987
494.20         70.1148
494.64        70.11057
495.08        70.13287
495.52         70.1743
495.96        70.37537
496.41        70.62917
496.85        70.62401
497.29        70.35754
497.73        70.09125
498.17        69.91354
498.61        69.79183
499.05        69.76626
499.49        69.91986
499.93         70.1701
500.37        70.26233
500.82         70.2024
501.26        70.22532
501.70        70.34865
502.14        70.39542
502.58        70.34101
503.02        70.23541
503.46        70.08625
503.90        69.87379
504.34        69.69514
504.78        69.69444
505.22        69.86729
505.66        70.25645
506.10        70.72964
506.54         70.7802
506.98        70.29351
507.42        70.48964
507.86        69.60258
508.30        69.44092
508.74        69.53247
509.18        69.81318
509.62        70.15163
510.06        70.35082
510.50        70.36572
510.94        70.24184
511.38        70.06413
511.82        69.96528
512.26        69.97767
512.70        70.04079
513.14        70.10001
513.58        70.10098
514.02        70.02922
514.46        69.87833
514.90        69.64949
515.34        69.57608
515.78        69.30231
516.22        69.13293
516.66        69.00249
517.10        68.99099
517.54        69.10166
517.98        69.31509
518.42        69.56644
518.86        69.72855
519.30        69.76585
519.74        69.72359
520.18        69.64676
520.62        69.56969
521.06        69.53353
521.50         69.6075
521.93        69.74136
522.37        69.75562
522.81        69.63454
523.25         69.4755
523.69        69.31095
524.13        69.15658
524.57        69.03555
525.01        68.94823
525.45        68.90944
525.89        68.94326
526.32        69.04389
526.76         69.1927
527.20        69.35841
527.64        69.49308
528.08        69.57692
528.52        69.62397
528.96        69.61951
529.40        69.54569
529.83        69.40644
530.27        69.22968
530.71         69.0753
531.15        69.05295
531.59        69.17611
532.03        69.41209
532.46        69.69308
532.90        69.82621
533.34        69.75799
533.78        69.67323
534.22        69.67053
534.66        69.06667
535.09        69.35901
535.53        69.04874
535.97        68.65219
536.41        68.47885
536.85         68.5604
537.28        68.70832
537.72        68.84505
538.16        68.94601
538.60        68.97793
539.04        68.94878
539.47        68.88239
539.91         68.8568
540.35        68.87016
540.79        68.92389
541.22        68.99802
541.66        68.96632
542.10        68.99366
542.54        68.95103
542.97          68.894
543.41        68.85909
543.85        68.84298
544.29        68.84115
544.72        68.83041
545.16        68.81323
545.60        68.77359
546.04        68.70898
546.47         68.6419
546.91        68.61935
547.35         68.6548
547.79        68.71822
548.22        68.72931
548.66         68.7124
549.10        68.66206
549.53        68.27355
549.97        68.21868
550.41        68.19566
550.84        68.40514
551.28         68.7453
551.72        69.11204
552.15        69.38645
552.59        69.49719
553.03        69.33555
553.46        68.98238
553.90        68.83424
554.34         68.9363
554.77        68.96292
555.21        68.82294
555.65        69.24161
556.08         68.8727
556.52        68.72067
556.96        68.45007
557.39        68.29443
557.83        68.29638
558.27        68.27026
558.70        68.20825
559.14        68.46766
559.57        68.42232
560.01        68.63496
560.45        68.80605
560.88        68.72308
561.32        68.48489
561.75        68.13499
562.19        67.86324
562.63        68.13423
563.06        68.75916
563.50        68.70964
563.93         68.0743
564.37        67.93144
564.80        68.27289
565.24        68.50611
565.68        68.54295
566.11        68.54935
566.55        68.54008
566.98        68.39639
567.42        68.23549
567.85        68.27294
568.29         68.4956
568.72         68.6295
569.16        68.72743
569.60        68.73455
570.03        68.56636
570.47        68.77715
570.90        68.98133
571.34        68.10811
571.77        68.56298
572.21        68.45396
572.64        68.57349
573.08        68.31215
573.51        68.48158
573.95        69.06576
574.38        68.36439
574.82        68.71953
575.25           68.85
575.69        69.29202
576.12        68.71111
576.56        68.49525
576.99        69.20394
577.42        68.96286
577.86        68.75382
578.29        68.94553
578.73        69.46926
579.16        68.51534
579.60        68.27808
580.03         67.9948
580.47        68.52753
580.90        67.98924
581.33        69.23861
581.77        69.53487
582.20        69.20258
582.64        69.08487
583.07         68.6405
583.51        68.35735
583.94         68.3561
584.37        68.68217
584.81        69.24809
585.24        69.23728
585.68        68.80479
586.11        68.97088
586.54        68.72592
586.98        68.18095
587.41         67.9352
587.85        68.88932
588.28        68.97183
588.71        67.47019
589.15        68.59335
589.58        67.79719
590.01        67.87282
590.45        67.88586
590.88        68.20569
591.31        68.33302
591.75        68.23374
592.18        68.07391
592.61        67.80964
593.05        68.44808
593.48        68.29755
593.91         68.1212
594.35        67.95198
594.78        67.81081
595.21        67.67464
595.65        68.52155
596.08        68.26273
596.51        67.85595
596.94        67.74287
597.38        67.66303
597.81        67.94516
598.24        67.66558
598.68        68.02919
599.11        67.58266
599.54        68.66499
599.97        68.65966
600.41        67.65746
600.84        68.43154
601.27        68.00126
601.70        68.57742
602.14        68.69849
602.57        68.44199
603.00        68.00866
603.43        67.62373
603.87        67.88875
604.30        68.07664
604.73         67.6849
605.16        67.60158
605.60        67.62268
606.03         67.8836
606.46        68.14008
606.89        68.13022
607.32        67.65021
607.76        67.44995
608.19        67.50794
608.62        67.97044
609.05        67.90205
609.48        67.83544
609.92        67.72977
610.35        67.12035
610.78        68.35193
611.21         68.4389
611.64        68.08507
612.07        68.15701
612.50        68.48981
612.94        68.39362
613.37         67.7927
613.80         68.1063
614.23        67.50501
614.66         67.9211
615.09        67.74785
615.52        67.86315
615.96        67.80792
616.39        68.40719
616.82        67.89093
617.25        67.99447
617.68        68.16454
618.11        68.18124
618.54        68.01028
618.97         67.7626
619.40        67.58336
619.84        67.46127
620.27        67.38145
620.70        67.81279
621.13        68.72366
621.56        67.74168
621.99        67.21201
622.42        67.92091
622.85        67.87782
623.28        67.50748
623.71        67.56868
624.14        67.78271
624.57        67.81268
625.00        68.00711
625.43        68.12447
625.86        68.10783
626.29        67.92842
626.72        67.82627
627.15        67.70504
627.58        67.46049
628.01        67.11817
628.44        67.17729
628.87        67.61592
629.30        67.27094
629.73        67.26275
630.16        67.23976
630.59        67.56444
631.02        67.37386
631.45        67.64989
631.88        67.61584
632.31        67.55511
632.74        67.43727
633.17        67.31969
633.60        67.26781
634.03         67.2855
634.46        67.40128
634.89        67.55825
635.32        67.55254
635.75         67.3999
636.18        67.36797
636.61        67.46105
637.04        67.34484
637.47        67.32194
637.89        67.21358
638.32        67.11145
638.75        67.15956
639.18        67.33826
639.61        67.16005
640.04        67.13955
640.47        67.06642
640.90        67.09904
641.33        67.09671
641.76        67.04534
642.18        67.07124
642.61        67.17607
643.04        67.18491
643.47        67.02545
643.90        67.53304
644.33        67.24576
644.76        67.23834
645.18         67.1503
645.61        67.34927
646.04        67.73374
646.47        67.75114
646.90         67.4424
647.33        67.32691
647.75        67.42632
648.18        67.42619
648.61        67.34701
649.04        67.30782
649.47        67.29193
649.89        67.43427
650.32        67.64272
650.75        67.36019
651.18        66.75279
651.61         66.8931
652.03        67.67776
652.46        67.61688
652.89        66.75619
653.32        66.59576
653.74        67.33366
654.17        66.71782
654.60        67.53402
655.03        67.76129
655.46        66.70267
655.88        67.38049
656.31        74.42963
656.74        72.21599
657.16        66.17155
657.59        65.24165
658.02        66.78928
658.45        67.60087
658.87        67.73267
659.30        66.31368
659.73        66.86964
660.15        67.32339
660.58         67.0047
661.01        66.91631
661.44        66.67309
661.86         66.6405
662.29        66.80581
662.72        67.04617
663.14        67.30961
663.57        67.43852
664.00        67.43562
664.42        67.44068
664.85        67.46413
665.27        67.37584
665.70        67.21168
666.13        67.10717
666.55        67.09211
666.98        67.11258
667.41        67.17415
667.83        67.28786
668.26        67.42718
668.69        67.59418
669.11        67.74348
669.54        67.82343
669.96        67.81352
670.39        67.66455
670.82         67.4626
671.24        67.39671
671.67         67.4951
672.09        67.66566
672.52        67.84181
672.94        67.88982
673.37         67.7858
673.80        67.57612
674.22        67.32661
674.65        67.11113
675.07        66.98359
675.50          66.909
675.92        66.89655
676.35        66.94926
676.77        67.05922
677.20        67.21896
677.62        67.38962
678.05        67.49061
678.47        67.50194
678.90         67.4463
679.32        67.35383
679.75        67.30293
680.17        67.30474
680.60        67.33543
681.02         67.3801
681.45        67.39513
681.87        67.38477
682.30        67.37234
682.72        67.35962
683.15        67.29436
683.57        67.19089
684.00        67.08117
684.42        67.02216
684.85        67.05679
685.27         67.1654
685.70        67.43334
686.12        67.72169
686.54        67.59216
686.97        67.10419
687.39        66.89638
687.82        66.96519
688.24        66.72059
688.66        66.26123
689.09        66.27092
689.51        66.72038
689.94        66.98289
690.36        67.01498
690.78        67.15029
691.21        67.40649
691.63        67.56684
692.06        67.68706
692.48        68.08053
692.90        68.61037
693.33        68.78438
693.75        68.55941
694.17        68.11009
694.60        67.63082
695.02        67.39786
695.44        67.41469
695.87        67.52194
696.29        67.61949
696.71        67.38964
697.14        66.98528
697.56        67.15408
697.98        67.80274
698.41        68.11137
698.83        68.02907
699.25        68.02139
699.68        68.09949
700.10        68.13113
700.52        68.11573
700.94        68.04268
701.37         67.9474
701.79        68.01347
702.21        68.17828
702.64        68.23726
703.06        68.17407
703.48          68.033
703.90        67.80057
704.33        67.88187
704.75        67.47221
705.17        67.40945
705.59        67.46278
706.01        67.59764
706.44        67.78478
706.86        68.00453
707.28         68.2184
707.70        68.45712
708.12        68.65932
708.55        68.64075
708.97        68.42689
709.39        68.23466
709.81        68.12504
710.23        68.04858
710.66         68.0309
711.08        68.15428
711.50        68.35377
711.92        68.48745
712.34        68.52454
712.76        68.50735
713.19        68.44019
713.61          68.381
714.03        68.32904
714.45        68.26918
714.87        68.22356
715.29         68.2291
715.71        68.28902
716.13        68.39935
716.56        68.50172
716.98        68.58023
717.40        68.59083
717.82        68.54375
718.24          68.484
718.66        68.48765
719.08        68.56767
719.50        68.69731
719.92        68.82116
720.34        68.85057
720.76        68.76813
721.19        68.60914
721.61        68.43131
722.03        68.31594
722.45        68.29461
722.87        68.35077
723.29        68.45885
723.71        68.57703
724.13        68.68005
724.55        68.75943
724.97        68.83253
725.39         68.9281
725.81        69.04335
726.23        69.17176
726.65         69.2329
727.07        69.10213
727.49        68.77713
727.91        68.31334
728.33        67.87077
728.75        67.69914
729.17        67.84902
729.59        68.24126
730.01        68.72326
730.43        69.02872
730.85        69.07514
731.27        68.94701
731.69        68.72951
732.10        68.55799
732.52         68.4887
732.94        68.47175
733.36        68.51318
733.78        68.63687
734.20        68.82434
734.62        69.05401
735.04        69.28361
735.46        69.44148
735.88        69.51714
736.30        69.54214
736.72        69.48714
737.13         69.3893
737.55        69.25328
737.97         68.9058
738.39        68.51601
738.81        68.80597
739.23        69.61028
739.65        69.77062
740.06        69.28068
740.48        69.18792
740.90        69.48138
741.32        69.58715
741.74        69.45332
742.16        69.32907
742.57        69.23405
742.99         69.0631
743.41         68.9136
743.83        68.99305
744.25        69.27795
744.67        69.57495
745.08        69.79916
745.50        69.87211
745.92        69.77296
746.34        69.47861
746.75        69.07888
747.17        68.79219
747.59        68.65536
748.01        68.62117
748.42        68.67395
748.84        68.75051
749.26        68.83862
749.68        68.95306
750.09        69.07793
750.51        69.20434
750.93        69.31528
751.35        69.39803
751.76        69.45527
752.18        69.48981
752.60        69.51081
753.01        69.54367
753.43        69.55505
753.85         69.5367
754.27         69.4944
754.68        69.43016
755.10        69.40927
755.52        69.52654
755.93        69.77925
756.35        70.12183
756.77        70.42234
757.18        70.50577
757.60        70.35909
758.02        70.02021
758.43        69.52785
758.85        69.50156
759.26        68.89271
759.68        69.11292
760.10        69.72276
760.51        70.02921
760.93        69.91166
761.34        69.97981
761.76        70.20923
762.18        69.79778
762.59        69.03167
763.01        69.19177
763.42         70.1905
763.84        70.54899
764.26        70.18413
764.67        69.77744
765.09         69.5332
765.50        69.57601
765.92        69.86877
766.33        69.83049
766.75        69.39489
767.16        69.54347
767.58        69.75329
768.00        69.90528
768.41        69.94237
768.83         70.5013
769.24        71.38712
769.66        71.80682
770.07        71.69709
770.49         71.3035
770.90        70.84072
771.32        70.83958
771.73        71.22348
772.15        71.21854
772.56        70.80898
772.97        70.52155
773.39        70.41913
773.80        70.38195
774.22        70.39359
774.63        70.54263
775.05        70.74353
775.46        70.92161
775.88        71.01383
776.29        71.04822
776.70         71.0503
777.12        71.09499
777.53          71.215
777.95        71.36559
778.36        71.48593
778.77        71.45894
779.19        71.27334
779.60        70.97355
780.02        70.66767
780.43        70.55182
780.84        70.67065
781.26        70.88423
781.67        71.10645
782.09        71.33338
782.50        71.44952
782.91        71.12057
783.33        70.54831
783.74        70.32848
784.15        70.55894
784.57        70.88987
784.98        71.28881
785.39        71.78481
785.81        72.32035
786.22        72.65247
786.63        73.11155
787.04        73.22408
787.46        73.13265
787.87        72.82304
788.28        72.47095
788.70        72.32191
789.11        72.40098
789.52        72.66868
789.93        72.97518
790.35        73.06027
790.76        72.89217
791.17        72.54325
791.58        72.15501
792.00        71.97398
792.41        72.07773
792.82        72.25227
793.23        72.41322
793.65         72.7777
794.06        73.14796
794.47        72.75884
794.88        71.89932
795.29        71.61528
795.71        71.90681
796.12        72.35114
796.53        72.75511
796.94        72.99377
797.35        72.95787
797.76        72.70393
798.18        72.38855
798.59        72.21262
799.00        72.24656
799.41        72.42038
799.82        72.67682
800.23        72.92219
800.64         73.1097
801.06        73.24657
801.47        73.34754
801.88        73.33134
802.29         73.1944
802.70         72.9491
803.11        72.67139
803.52        72.49182
803.93        72.46146
804.34        72.55774
804.75        72.73109
805.17        72.96012
805.58        73.26671
805.99        73.35447
806.40        73.26984
806.81        73.74016
807.22        74.47167
807.63        73.97985
808.04        72.53445
808.45        71.92031
808.86         72.3035
809.27        72.72955
809.68        73.01066
810.09         73.2484
810.50        73.36029
810.91        73.33868
811.32        73.22307
811.73        73.07596
812.14        72.93895
812.55        72.79721
812.96        72.72973
813.37        72.86867
813.78         73.2223
814.19        73.74025
814.60        74.28369
815.01         74.6376
815.42        74.74687
815.83        74.66103
816.24        74.43776
816.65        74.20536
817.05        74.03169
817.46        73.86468
817.87        73.73955
818.28        73.65712
818.69        73.60989
819.10        73.61145
819.51        73.64455
819.92        73.66289
820.33        73.64931
820.74        73.60728
821.14        73.54285
821.55        73.49821
821.96        73.47739
822.37        73.49712
822.78        73.55287
823.19        73.63342
823.60        73.74019
824.00        73.88219
824.41        74.07377
824.82        74.45302
825.23        75.00645
825.64        75.66058
826.04        76.25156
826.45        76.42983
826.86        76.14911
827.27        75.52493
827.68        74.71101
828.08        73.98802
828.49        73.44131
828.90        73.02722
829.31         72.8023
829.72        72.83382
830.12         73.1394
830.53         73.6785
830.94         74.2625
831.35        74.48753
831.75        74.27425
832.16         73.6806
832.57        73.03987
832.97        72.86858
833.38        73.25618
833.79        74.03146
834.20        74.91478
834.60        75.42544
835.01         75.3896
835.42        74.99789
835.82        74.40758
836.23         73.8499
836.64        73.43119
837.04        73.09752
837.45        72.88514
837.86        72.92942
838.26        73.24234
838.67        73.75166
839.08        74.31436
839.48        74.65066
839.89        74.66745
840.29        74.43909
840.70        74.06415
841.11        73.67692
841.51          73.356
841.92        73.04393
842.33        72.82063
842.73        72.82067
843.14         73.0142
843.54        73.43839
843.95        73.91589
844.35        74.21115
844.76        74.22234
845.17        73.99216
845.57        73.70372
845.98        73.64551
846.38        73.90047
846.79        74.37547
847.19        74.85481
847.60        74.88461
848.00        74.40508
848.41        73.55688
848.81         72.7066
849.22        72.38707
849.62        72.72839
850.03        73.53825
850.43         74.5123
850.84        74.96824
851.24        74.77905
851.65        74.10944
852.05        73.30282
852.46         72.8955
852.86         73.0154
853.27        73.45763
853.67        73.99937
854.07        74.53552
854.48        74.94247
854.88        75.39304
855.29        75.60921
855.69        75.35603
856.10        74.50942
856.50        73.25054
856.90        72.01246
857.31         71.4361
857.71        71.63064
858.12        72.37289
858.52        73.37759
858.92        73.86758
859.33        73.58044
859.73        72.80565
860.13        71.75795
860.54        70.80361
860.94        70.09538
861.34        69.51147
861.75        69.14626
862.15         69.2174
862.55        69.71066
862.96        70.56385
863.36        71.50927
863.76        72.00672
864.17          71.918
864.57        71.37422
864.97        70.64459
865.38        70.20655
865.78         70.2225
866.18        70.54098
866.58        70.95207
866.99        71.07641
867.39        70.85563
867.79        70.45773
868.19         70.0342
868.60         69.7565
869.00        69.67175
869.40        69.68777
869.80        69.88091
870.21        70.38565
870.61        71.20611
871.01        72.21748
871.41        73.04546
871.81        73.13654
872.22        72.41198
872.62        71.05672
873.02        69.51862
873.42        68.54934
873.82        68.38982
874.22        68.87135
874.63         69.6841
875.03        70.30677
875.43        70.58002
875.83         70.6367
876.23        70.68968
876.63        71.07493
877.03        71.83665
877.44        72.78971
877.84        73.65221
878.24        73.93552
878.64        73.53773
879.04        72.65401
879.44        71.60549
879.84        70.86269
880.24        70.55382
880.64        70.54985
881.04        70.71446
881.44        70.80907
881.84        70.76679
882.24         70.7021
882.65        70.61785
883.05        70.61492
883.45        70.68134
883.85        70.74793
884.25        70.90929
884.65        71.33566
885.05        72.03304
885.45        72.96058
885.85         73.8521
886.25        74.24731
886.65        74.02735
887.05        73.30087
887.45        72.43817
887.85        72.02582
888.25        72.20951
888.65        72.85532
889.04         73.5734
889.44        73.70332
889.84        73.12126
890.24        72.03031
890.64        70.92775
891.04        70.52367
891.44        70.95078
891.84        72.02297
892.24        73.17885
892.64         73.4692
893.04        72.69817
893.44        71.18636
893.83        69.66698
894.23        69.24965
894.63        70.12008
895.03        71.92284
895.43        73.94798
895.83        74.90081
896.23        74.42426
896.63        73.02139
897.02        71.28362
897.42        70.14301
897.82        69.77201
898.22        69.91456
898.62        70.41544
899.01        71.05642
899.41        71.65609
899.81        72.32228
900.21        73.02101
900.61        73.65678
901.00        74.18178
901.40        74.53893
901.80        74.69304
902.20         74.6405
902.59        74.41979
902.99        74.06105
903.39        73.69193
903.79        73.50831
904.18        73.53558
904.58        73.72993
904.98        73.99106
905.38        74.16601
905.77        74.20232
906.17        74.17706
906.57        74.03881
906.96        73.72656
907.36        73.24554
907.76        72.62599
908.15        72.10119
908.55        71.99738
908.95        72.39416
909.34        73.21926
909.74        74.13367
910.14         74.6513
910.53        74.62961
910.93        74.18813
911.33        73.61271
911.72        73.36636
912.12         73.5742
912.52        74.07654
912.91        74.57957
913.31        74.59997
913.70        74.04642
914.10        73.11523
914.49        72.13255
914.89        71.56719
915.29        71.54648
915.68        71.91823
916.08        72.48536
916.47        72.93324
916.87        73.14133
917.26        73.21278
917.66        73.19985
918.05        73.17426
918.45        73.16238
918.84        73.15328
919.24        73.16087
919.64        73.30773
920.03        73.61909
920.42        74.03722
920.82        74.47041
921.21        74.80286
921.61        74.95979
922.00        74.95939
922.40        74.80399
922.79        74.59184
923.19        74.34927
923.58        74.09222
923.98        73.75761
924.37        73.17152
924.77        72.37866
925.16        71.45081
925.55        70.65884
925.95        70.43277
926.34        70.89016
926.74         71.8243
927.13        73.03063
927.52        74.08003
927.92        74.79438
928.31        75.28648
928.70        75.49323
929.10        75.36194
929.49        74.95548
929.89        74.27279
930.28        73.56078
930.67        73.19669
931.07        73.26443
931.46        73.67297
931.85        74.23631
932.24        74.62058
932.64        74.71524
933.03         74.6636
933.42        74.44907
933.82        74.07018
934.21        73.57252
934.60        72.93293
934.99        72.41247
935.39        72.38552
935.78        72.93808
936.17        74.00822
936.56        75.16637
936.96        75.60905
937.35        75.16948
937.74        74.03944
938.13        72.79221
938.53        72.19946
938.92        72.37038
939.31        73.12974
939.70        74.05575
940.09        74.38557
940.49        73.91459
940.88        72.91263
941.27        71.84266
941.66         71.3846
942.05        71.70034
942.44        72.60482
942.84        73.69024
943.23        74.30605
943.62        74.18587
944.01        73.54419
944.40        72.79542
944.79        72.59205
945.18        73.07312
945.57        73.98237
945.97         74.9465
946.36        75.49495
946.75        75.46023
947.14        75.02474
947.53        74.36392
947.92        73.77955
948.31        73.40973
948.70        73.17162
949.09        73.07582
949.48        73.12785
949.87        73.32362
950.26        73.72549
950.65        74.23156
951.04        74.63729
951.43        74.86978
951.82        74.89521
952.21        74.91319
952.60        75.27447
952.99        75.99919
953.38        76.96547
953.77        77.75172
954.16        77.62241
954.55        76.47208
954.94        74.65374
955.33        72.71933
955.72         71.4957
956.11        71.20345
956.50        71.56188
956.89        72.39021
957.28        73.38774
957.66        74.41997
958.05        75.45876
958.44        76.21619
958.83        76.11533
959.22        75.10236
959.61        73.40965
960.00        71.59967
960.39        70.48489
960.78        70.24712
961.16        70.71081
961.55         71.5891
961.94        72.47992
962.33        73.19055
962.72        73.83445
963.11        74.31512
963.49        74.47268
963.88        74.24581
964.27        73.68763
964.66        73.01214
965.04        72.55471
965.43        72.37419
965.82        72.37691
966.21        72.48257
966.60        72.51657
966.98         72.4203
967.37        72.24902
967.76        71.97178
968.15        71.50027
968.53        70.87278
968.92        70.12846
969.31        69.46828
969.69        69.21587
970.08        69.39096
970.47        69.89108
970.86         70.5359
971.24        71.00022
971.63        71.08332
972.02        70.89931
972.40        70.45844
972.79        69.82162
973.17        69.10735
973.56        68.37258
973.95        67.76975
974.33        67.53891
974.72          67.675
975.11        68.05824
975.49        68.79829
975.88        69.99782
976.26        71.60725
976.65        73.47868
977.04        74.91404
977.42        74.80914
977.81        73.06693
978.19        70.07457
978.58        67.20855
978.96        66.29743
979.35        67.69949
979.74         70.9921
980.12        75.23827
980.51          77.866
980.89        78.14636
981.28         76.6376
981.66        74.32828
982.05        72.94683
982.43        72.97419
982.82        73.78986
983.20        75.19514
983.59        76.70794
983.97        78.12932
984.35         79.5723
984.74        80.49226
985.12        80.10288
985.51        78.32556
985.89        75.41313
986.28        72.30214
986.66        70.36244
987.04        70.09609
987.43        71.13722
987.81        72.92248
988.20        74.24054
988.58         74.6969
988.96        74.43111
989.35         73.8979
989.73        73.80751
990.12        74.27795
990.50         75.1488
990.88        75.66767
991.27        74.70078
991.65        72.22856
992.03         68.7513
992.42        65.54794
992.80        64.28497
993.18        65.42677
993.56        68.43992
993.95        72.17716
994.33        74.88914
994.71        75.69864
995.10        75.03288
995.48        73.46507
995.86         72.0069
996.24        71.09661
996.63        70.48119
997.01        69.95918
997.39        69.23782
997.77        68.27744
998.15        67.26774
998.54        66.60531
998.92         66.9248
999.30        68.35687
999.68        70.66444
1000.06        73.16016
1000.45        74.65468
1000.83        74.87772
1001.21        73.96146
1001.59        72.44823
1001.97         71.3723
1002.35        71.10051
1002.73        71.39699
1003.12        71.89376
1003.50         71.9124
1003.88        71.35006
1004.26        70.53143
1004.64        69.82372
1005.02        69.69775
1005.40        70.24911
1005.78        71.27678
1006.16         72.5181
1006.54        73.52337
1006.92        74.05187
1007.30        74.13062
1007.69        73.79974
1008.07        73.39263
1008.45        72.93666
1008.83        72.45859
1009.21        71.82589
1009.59        70.80518
1009.97        69.45379
1010.35        67.93134
1010.73        66.82221
1011.11        67.09538
1011.49        69.01211
1011.86        72.48667
1012.24        76.55572
1012.62        79.80407
1013.00        81.59204
1013.38        82.07682
1013.76        81.74545
1014.14        81.72206
1014.52        82.37135
1014.90        83.25574
1015.28        83.95805
1015.66        83.80407
1016.04        82.72747
1016.41         81.2485
1016.79        79.67177
1017.17        77.90957
1017.55        75.76431
1017.93        72.82655
1018.31        69.35818
1018.69        67.11478
1019.06        67.15926
1019.44        68.91767
1019.82        70.70399
1020.20        70.93115
1020.58        69.55438
1020.95        66.77878
1021.33        63.61618
1021.71        62.75177
1022.09        65.48336
1022.46         70.7517
1022.84        76.54593
1023.22        80.37984
1023.60        81.56266
1023.97        80.91901
1024.35        78.50101
1024.73        74.63323
