SpectraSmart Spectrum 2.9.0.0
--------- Device Information -----------
Spectrum Name :  反射率_0
Saving Time :  2024/05/01 16:17:24
Spectro-Module Model Name : SE2030-DUVN
Spectro-Module Serial Number : OS361AC55029948
Wavelength Start : 200
Wavelength End : 1025
Wavelength Unit : Wavelength(nm)
Spectrum Unit : Reflectance(%)
-----------Spectrum Setting ------------
Integration Time : 20ms
Average : 10
Boxcar : 0
Background removal :  enabled
linearity correction :  enabled
SC :  disabled
Intensity correction :  disabled
DWT denoise :  enabled
savitzky-golay :  disabled
FFT :  disabled
Running average :  disabled
Kalman :  disabled
High pass :  disabled
---------------BEGIN--------------------
Wavelength(nm)             Reflectance(%)
200.29               0
200.75        46.49024
201.21        407.6147
201.67       -217.1606
202.13       -77.75368
202.58       -22.03269
203.04        15.31936
203.50        39.11706
203.96        47.75399
204.42        41.82239
204.88         4.54569
205.34       -1006.311
205.80        209.8415
206.26        137.8942
206.72        88.45403
207.18       -61.87186
207.64        296.7198
208.10        144.7314
208.55        95.99152
209.01        67.08501
209.47        52.04947
209.93        45.74574
210.39        41.84072
210.85         38.1701
211.31        30.75601
211.77        2.601969
212.23        213.9854
212.69        89.11777
213.14        93.73662
213.60        152.9134
214.06       -539.1378
214.52       -61.39606
214.98       -29.15833
215.44        -20.2269
215.90       -19.55203
216.36       -74.74277
216.81        6.512182
217.27       -5.704868
217.73        15.94628
218.19       -3.318663
218.65       -15.11698
219.11        -38.6923
219.57       -109.4289
220.02       -395.4739
220.48        -202.105
220.94       -51.26077
221.40       -12.33169
221.86        2.156227
222.32        9.429653
222.77        15.03427
223.23        21.36977
223.69        28.06399
224.15        29.72108
224.61        25.28294
225.06         19.0214
225.52        14.74632
225.98        13.69687
226.44        15.26478
226.90        19.02915
227.36        24.12097
227.81        26.34679
228.27        24.12275
228.73         20.2989
229.19        16.89443
229.65        14.64779
230.10        13.27245
230.56        12.53339
231.02        12.56924
231.48        13.82886
231.93        16.01575
232.39        18.45174
232.85        20.94695
233.31        23.56068
233.77        26.19379
234.22        28.81859
234.68        30.87791
235.14         31.8938
235.60        31.88625
236.05        30.82466
236.51        29.29821
236.97        29.56626
237.43        33.05786
237.88        39.14336
238.34        45.08887
238.80        48.17355
239.26         47.7778
239.71        43.75848
240.17        34.83574
240.63        23.16702
241.08        14.97183
241.54        12.83609
242.00        16.00429
242.46        22.90079
242.91        34.83505
243.37        55.98973
243.83        92.12475
244.28        125.9986
244.74        128.5602
245.20        113.2564
245.66        97.42572
246.11        86.79845
246.57        79.08155
247.03        70.07661
247.48        55.64275
247.94        33.32946
248.40         9.67388
248.85       -8.014832
249.31       -10.53616
249.77        2.916189
250.22        22.82501
250.68        42.37667
251.14        57.34647
251.59        66.69222
252.05        72.74018
252.51        77.87247
252.96        85.19232
253.42        101.6086
253.88        113.8886
254.33        106.5307
254.79        96.44691
255.25        87.60205
255.70        79.61412
256.16        73.63504
256.62        69.28374
257.07        66.55704
257.53        65.50187
257.99        65.04565
258.44        64.69409
258.90        64.58885
259.35        64.25064
259.81         63.9627
260.27         63.4021
260.72        62.26402
261.18        60.91192
261.63        59.23724
262.09        57.68043
262.55        56.29666
263.00        54.97214
263.46        53.77789
263.91        52.51086
264.37        51.22845
264.83        49.89549
265.28        48.59123
265.74         47.3556
266.19        45.98359
266.65        44.58546
267.11        43.10275
267.56        41.85077
268.02        41.41997
268.47        41.79819
268.93        42.74481
269.38        43.63255
269.84        43.39769
270.30        41.86948
270.75        39.42031
271.21        36.74091
271.66        34.75272
272.12        33.75312
272.57        33.38686
273.03          33.399
273.48        33.33947
273.94        33.06324
274.39        32.69075
274.85        32.22292
275.31        31.58256
275.76        30.78445
276.22        29.88325
276.67        28.95725
277.13        28.23052
277.58        27.68896
278.04        27.32273
278.49        27.03029
278.95        26.75933
279.40        26.43531
279.86        26.10324
280.31        25.74692
280.77         25.4259
281.22        25.10328
281.68        24.81853
282.13         24.4755
282.59        24.01856
283.04        23.43816
283.50        22.81713
283.95        22.28426
284.41        22.08299
284.86         22.2291
285.32        22.63228
285.77        23.13285
286.22        23.54042
286.68        23.80574
287.13        23.96241
287.59        24.04097
288.04        24.05079
288.50        24.03617
288.95         23.9523
289.41        23.88033
289.86        23.87165
290.32        23.96743
290.77         24.1647
291.22        24.41757
291.68        24.63527
292.13        24.81387
292.59        25.02435
293.04        25.34771
293.50        25.95655
293.95        26.86187
294.40        28.00956
294.86        29.30347
295.31        30.59998
295.77        31.83864
296.22        33.04154
296.68        34.22632
297.13        35.41312
297.58        36.64214
298.04        37.93241
298.49        39.29697
298.95        40.79115
299.40        42.39106
299.85        44.07248
300.31        45.84999
300.76        47.73697
301.21        49.74362
301.67        51.87608
302.12        53.99628
302.58        55.90943
303.03         57.5274
303.48        58.91915
303.94        60.30748
304.39        61.93777
304.84        63.91991
305.30          66.168
305.75        68.48838
306.20         70.6017
306.66        72.42916
307.11        74.00351
307.57        75.46323
308.02        76.90952
308.47        78.41897
308.93        79.95554
309.38        81.43043
309.83        82.80277
310.29        84.06966
310.74        85.23624
311.19         86.3489
311.65        87.45097
312.10        88.52979
312.55        89.56979
313.00        90.56756
313.46        91.52345
313.91         92.4223
314.36        93.26879
314.82        94.00768
315.27        94.56448
315.72        94.91676
316.18         95.1198
316.63        95.22717
317.08        95.39223
317.53        95.65672
317.99        95.98262
318.44        96.33466
318.89        96.62536
319.35        96.83489
319.80        97.02442
320.25        97.19751
320.70        97.36132
321.16        97.51806
321.61        97.66565
322.06        97.88602
322.51        98.33431
322.97        98.99295
323.42        99.83901
323.87        100.6382
324.32        101.0289
324.78        100.9221
325.23        100.4629
325.68        99.87243
326.13        99.53803
326.59        99.56277
327.04        99.89718
327.49        100.4103
327.94        100.8961
328.39        101.2703
328.85        101.5494
329.30        101.8465
329.75        102.1918
330.20        102.5982
330.66         103.002
331.11        103.3788
331.56        103.5819
332.01        103.6045
332.46        103.5004
332.92         103.408
333.37        103.6582
333.82        104.2989
334.27        105.2738
334.72        106.3976
335.17        107.3303
335.63        107.9248
336.08        108.2956
336.53        108.5672
336.98        109.0201
337.43        109.7289
337.88        110.6058
338.34        111.4469
338.79        112.0099
339.24        112.1885
339.69        112.0693
340.14        111.8793
340.59        111.9667
341.05        112.4079
341.50        113.1316
341.95        113.8904
342.40        114.2818
342.85        114.2352
343.30        113.9084
343.75        113.6048
344.20        113.7878
344.66        114.5485
345.11        115.7097
345.56        117.0186
346.01         118.047
346.46        118.6492
346.91        118.9641
347.36        119.0878
347.81        119.1717
348.26        119.2933
348.72        119.4076
349.17        119.5574
349.62        119.8925
350.07        120.3973
350.52        120.9995
350.97        121.5463
351.42        121.7687
351.87        121.6108
352.32        121.2028
352.77        120.5759
353.22          119.79
353.67        118.9207
354.13        117.9812
354.58        117.1818
355.03        116.9542
355.48        117.3416
355.93        118.2561
356.38         119.212
356.83        119.3844
357.28        118.6042
357.73        117.1195
358.18        115.5512
358.63        114.8318
359.08        115.1269
359.53        116.1279
359.98        117.2519
360.43        117.5282
360.88        116.7045
361.33        115.1228
361.78        113.2936
362.23        111.9436
362.68        111.2515
363.13         110.983
363.58        110.8356
364.03        110.3501
364.48        109.3976
364.93        108.1368
365.38        106.8145
365.83        105.7701
366.28        105.0823
366.73        104.6549
367.18        104.2304
367.63        103.4182
368.08        102.1724
368.53        100.6523
368.98        99.22464
369.43        98.40954
369.88        98.28257
370.33        98.66312
370.78        99.16628
371.23        99.12765
371.68        98.36372
372.13        97.09753
372.58        95.67175
373.03        94.59525
373.48        93.99441
373.93        93.69337
374.38        93.53085
374.83        93.25513
375.28        92.78078
375.72        92.19909
376.17        91.57145
376.62        90.91475
377.07        90.25229
377.52        89.55538
377.97        88.88112
378.42        88.33615
378.87        87.93536
379.32        87.65688
379.77         87.4055
380.22        87.02337
380.67        86.47885
381.11        85.82377
381.56        85.15279
382.01        84.64571
382.46        84.35272
382.91        84.21927
383.36        84.14746
383.81        83.98627
384.26        83.68966
384.71        83.29572
385.15        82.85909
385.60         82.5148
386.05        82.27471
386.50        82.10043
386.95        81.91382
387.40        81.60622
387.85        81.16419
388.29        80.58614
388.74        80.05914
389.19        79.65419
389.64        79.38536
390.09        79.20966
390.54        79.03899
390.98        78.72022
391.43        78.27921
391.88        77.75179
392.33        77.23437
392.78        76.85741
393.23        76.64147
393.67        76.51159
394.12        76.43345
394.57        76.24664
395.02        75.90416
395.47        75.36583
395.91        74.80875
396.36        74.57288
396.81        74.70646
397.26        75.08994
397.71        75.45878
398.15         75.4161
398.60        74.99302
399.05        74.23389
399.50        73.44028
399.95        73.15999
400.39        73.42411
400.84        73.71995
401.29        73.86926
401.74         73.9629
402.18        73.87179
402.63        73.22406
403.08        72.26876
403.53        71.69775
403.97          71.587
404.42        71.64328
404.87        71.75549
405.32        71.78307
405.76        71.64915
406.21        71.60493
406.66        71.60194
407.11         71.1531
407.55        70.48875
408.00        70.49948
408.45        71.09052
408.90        71.34821
409.34        71.08569
409.79         70.5049
410.24        69.81857
410.68        69.46026
411.13        69.50193
411.58        69.65829
412.03        69.83267
412.47        69.99897
412.92        70.07648
413.37         70.0864
413.81        70.02431
414.26         69.9454
414.71        69.84983
415.15        69.73675
415.60        69.61981
416.05         69.5883
416.49        69.65662
416.94        69.78993
417.39        69.93962
417.83        70.00672
418.28        69.97536
418.73         69.8933
419.17        69.76684
419.62        69.61744
420.07        69.45304
420.51        69.22778
420.96        69.07404
421.41        69.07825
421.85        69.19564
422.30        69.59627
422.74         70.0546
423.19        69.86293
423.64        69.19936
424.08         69.2618
424.53        69.99641
424.98        70.29873
425.42        70.09049
425.87         70.1835
426.31        70.55289
426.76        70.36168
427.21         69.8364
427.65        70.18465
428.10         71.1291
428.54        71.39724
428.99        70.99812
429.44        70.21191
429.88        69.41155
430.33         69.9494
430.77        71.29145
431.22        71.20923
431.66        69.87839
432.11        69.27944
432.56        69.56412
433.00        70.15412
433.45        70.87199
433.89        70.72539
434.34        70.04347
434.78        71.58601
435.23          71.174
435.67         71.3266
436.12         70.9297
436.57        71.21689
437.01        72.06625
437.46        72.40604
437.90          72.147
438.35        72.02801
438.79        72.05988
439.24        71.84846
439.68        71.48866
440.13        71.60304
440.57        72.18105
441.02        72.44296
441.46        72.25597
441.91        72.80862
442.35        73.16708
442.80        72.53355
443.24        72.06157
443.69        71.96259
444.13        72.51965
444.58        72.74142
445.02        72.60166
445.47        72.67444
445.91        72.96514
446.36        73.21873
446.80        73.39849
447.24         73.7156
447.69        73.87202
448.13        74.02567
448.58        74.10262
449.02        74.09326
449.47        74.03626
449.91        73.96213
450.36        73.90531
450.80        73.82892
451.25        73.75253
451.69         73.6591
452.13        73.55673
452.58        73.46625
453.02        73.35152
453.47        73.19769
453.91        72.99363
454.36        72.74873
454.80        72.50838
455.24        72.38046
455.69        72.34671
456.13        72.33938
456.58        72.39308
457.02        72.24674
457.46        71.98014
457.91        72.50636
458.35        72.76984
458.79        72.76713
459.24        72.21201
459.68        71.65243
460.13        71.39891
460.57        70.41466
461.01        70.78036
461.46         70.9697
461.90        71.37314
462.34        71.28122
462.79        70.72765
463.23        70.72464
463.68        71.14472
464.12        71.29749
464.56        71.14904
465.01        70.62643
465.45        70.36193
465.89        70.45545
466.34        70.89489
466.78        70.68144
467.22        69.91057
467.67        69.65182
468.11        69.73477
468.55        70.01331
468.99        70.27077
469.44        70.38958
469.88        70.33279
470.32        70.19386
470.77        70.04324
471.21        69.95821
471.65        69.95245
472.10        70.01395
472.54        70.08007
472.98        70.05746
473.42        69.91894
473.87        69.79904
474.31        69.67801
474.75        69.37242
475.20        69.00287
475.64        69.06425
476.08        69.43792
476.52          69.479
476.97        69.12843
477.41        69.21637
477.85        68.19455
478.29        69.03426
478.74        69.13973
479.18        69.15477
479.62        68.57193
480.06        68.39488
480.50        68.65565
480.95        68.04355
481.39        68.98639
481.83        67.55029
482.27        68.33163
482.72        68.17048
483.16        68.22696
483.60        68.37643
484.04         68.5356
484.48        68.60278
484.93        68.91047
485.37        69.13766
485.81        69.16002
486.25        70.42799
486.69        70.30376
487.14        67.80116
487.58        66.60678
488.02        68.49551
488.46        68.55723
488.90         67.8901
489.34        68.61288
489.79        68.34197
490.23        68.32259
490.67        67.96944
491.11        67.56883
491.55          67.826
491.99        68.54697
492.43        68.80784
492.88        68.51697
493.32        68.22646
493.76        68.05586
494.20        67.96491
494.64        67.96786
495.08        68.09215
495.52        68.32635
495.96        68.36118
496.41         68.0892
496.85        68.47462
497.29          68.464
497.73        67.56956
498.17        67.57127
498.61        67.35162
499.05        67.51552
499.49        67.76421
499.93        67.99725
500.37        68.05656
500.82        67.95354
501.26        67.91476
501.70        67.94049
502.14        68.12552
502.58        67.98976
503.02        67.93339
503.46        67.82796
503.90        67.68037
504.34         67.5575
504.78        67.56325
505.22        67.70486
505.66        67.97969
506.10        68.28545
506.54        68.33738
506.98        68.07291
507.42        68.00716
507.86        67.48437
508.30         67.3008
508.74        67.27677
509.18        67.37769
509.62        67.53976
510.06        67.67206
510.50        67.74655
510.94        67.78716
511.38        67.80447
511.82        67.81223
512.26        67.81317
512.70        67.78508
513.14        67.74031
513.58        67.70667
514.02        67.68814
514.46          67.688
514.90        67.66798
515.34        67.56249
515.78         67.3702
516.22        67.12069
516.66        66.89315
517.10        66.80744
517.54         66.8857
517.98        67.08836
518.42        67.33477
518.86        67.48991
519.30        67.51473
519.74        67.44721
520.18        67.33814
520.62        67.27198
521.06        67.27049
521.50        67.29688
521.93        67.33331
522.37        67.34381
522.81        67.32249
523.25        67.29422
523.69        67.24495
524.13        67.14581
524.57        67.00524
525.01        66.83522
525.45        66.69772
525.89        66.69142
526.32        66.82671
526.76        67.06415
527.20        67.32247
527.64        67.47278
528.08          67.478
528.52        67.37933
528.96        67.21851
529.40        67.06303
529.83        66.93515
530.27         66.8353
530.71        66.76974
531.15        66.76402
531.59        66.81908
532.03        66.92784
532.46        67.05181
532.90        67.14748
533.34        67.19659
533.78        67.15118
534.22        67.03766
534.66        67.01851
535.09        67.04459
535.53        66.86762
535.97         66.5264
536.41        66.33762
536.85        66.32984
537.28        66.29903
537.72        66.24979
538.16        66.35529
538.60        66.55141
539.04        66.57558
539.47        66.44479
539.91          66.429
540.35        66.51863
540.79        66.59109
541.22        66.62832
541.66        66.56239
542.10        66.55958
542.54        66.51228
542.97        66.47222
543.41        66.41064
543.85        66.35156
544.29        66.42474
544.72        66.59103
545.16        66.68657
545.60        66.67831
546.04        66.70432
546.47        66.74691
546.91        66.63401
547.35        66.44784
547.79        66.44495
548.22        66.56718
548.66        66.65151
549.10        66.48926
549.53        66.11063
549.97        66.10308
550.41        66.07858
550.84        66.22076
551.28        66.51132
551.72        66.84517
552.15        66.97899
552.59        66.90684
553.03        66.78486
553.46        66.65453
553.90        66.59966
554.34        66.64462
554.77        66.67495
555.21        66.63765
555.65        66.95747
556.08        66.74847
556.52        66.60116
556.96        66.36071
557.39        66.11634
557.83        66.29679
558.27        66.41639
558.70        66.51206
559.14        66.73129
559.57        66.57109
560.01        66.69037
560.45         66.8499
560.88        66.90904
561.32        66.86241
561.75        66.40517
562.19        65.79436
562.63        65.89742
563.06          66.563
563.50        66.58645
563.93        65.99921
564.37        65.84388
564.80        66.10318
565.24        66.22991
565.68        66.19152
566.11        66.19196
566.55        66.25382
566.98        66.29268
567.42         66.3539
567.85        66.43424
568.29         66.5378
568.72          66.683
569.16        66.92367
569.60        66.95876
570.03        66.66885
570.47        67.14789
570.90        66.94772
571.34        66.40454
571.77        66.68632
572.21        66.75125
572.64        67.07554
573.08        66.67969
573.51        66.59969
573.95        67.64085
574.38        66.54268
574.82        67.00837
575.25         67.3285
575.69        67.63808
576.12        66.89204
576.56        66.80032
576.99        67.56371
577.42        67.33667
577.86        67.08553
578.29        67.12234
578.73        68.05038
579.16        67.08447
579.60        66.31736
580.03        66.49545
580.47        67.04549
580.90        66.51589
581.33        67.29354
581.77        67.52109
582.20        68.01034
582.64         67.6199
583.07        67.25903
583.51        66.66383
583.94        66.41191
584.37        66.83215
584.81        67.81902
585.24         67.5677
585.68        67.10604
586.11        67.06009
586.54        67.07342
586.98        66.38811
587.41        65.97979
587.85        67.05521
588.28        67.28085
588.71        65.67171
589.15        66.98323
589.58        66.24249
590.01        66.08994
590.45         66.0873
590.88        66.52257
591.31        66.65691
591.75        66.33871
592.18        66.22535
592.61        65.92507
593.05        66.02415
593.48        66.26083
593.91        66.78993
594.35         65.9592
594.78        65.71687
595.21        65.42046
595.65         66.6394
596.08        66.24695
596.51        65.84679
596.94        65.92506
597.38        65.86179
597.81        66.08777
598.24        65.89655
598.68        66.34349
599.11        65.74165
599.54         66.8913
599.97        66.49927
600.41         65.8455
600.84        66.35936
601.27        66.13179
601.70        66.80466
602.14        67.09632
602.57        66.90087
603.00         66.2112
603.43        65.80633
603.87         66.2217
604.30        66.29663
604.73        65.99916
605.16        65.90986
605.60        65.95727
606.03         66.2597
606.46        66.58907
606.89        66.44724
607.32        66.02048
607.76        65.80525
608.19        65.93298
608.62           66.29
609.05        65.90398
609.48        66.45414
609.92        65.95127
610.35        65.41551
610.78        66.59547
611.21        66.73551
611.64        66.49955
612.07        66.63616
612.50         67.1873
612.94        66.80247
613.37        66.47422
613.80        66.56292
614.23        65.95364
614.66        66.24468
615.09          65.971
615.52        66.11019
615.96        66.24934
616.39        66.42381
616.82        66.30812
617.25        66.28371
617.68        66.29437
618.11        66.23537
618.54        66.08302
618.97        66.18448
619.40        65.91964
619.84        65.86265
620.27        65.81765
620.70        66.00081
621.13        66.42945
621.56        65.89967
621.99        65.85635
622.42        66.22273
622.85        66.08679
623.28        65.97988
623.71        65.75029
624.14        66.48318
624.57        66.20455
625.00        66.38969
625.43        66.47661
625.86        66.08233
626.29        66.01247
626.72        65.93719
627.15        65.66914
627.58        65.47662
628.01        65.27959
628.44        65.38742
628.87        65.73744
629.30        65.70959
629.73         65.6521
630.16        65.77411
630.59        65.78336
631.02        65.80499
631.45        65.72135
631.88        65.63746
632.31        65.55924
632.74        65.46582
633.17        65.39155
633.60        65.38116
634.03        65.43927
634.46        65.55721
634.89        65.67764
635.32        65.70013
635.75        65.60371
636.18        65.42036
636.61        65.21052
637.04        65.07166
637.47        65.02908
637.89        65.06177
638.32        65.11774
638.75        65.13823
639.18        65.10278
639.61        65.06148
640.04        64.98793
640.47         64.9272
640.90        64.87888
641.33        64.82281
641.76        64.76366
642.18        64.81271
642.61        64.97656
643.04        65.08045
643.47        65.02026
643.90        65.54954
644.33        65.23667
644.76         65.1431
645.18        64.94256
645.61        65.03136
646.04        65.32881
646.47        65.29221
646.90         64.9698
647.33        64.87643
647.75        65.02525
648.18        65.10172
648.61        65.10604
649.04        65.11411
649.47        65.11175
649.89        65.27081
650.32        65.48568
650.75        65.20056
651.18         64.6002
651.61        64.66107
652.03        65.37453
652.46        65.63051
652.89        65.27967
653.32        65.33097
653.74        65.83081
654.17        64.79638
654.60         65.2864
655.03        65.97923
655.46        65.07669
655.88        65.40816
656.31        73.08433
656.74         71.6142
657.16         65.3702
657.59        63.89778
658.02        64.93824
658.45        65.82947
658.87        65.96017
659.30        64.65308
659.73        65.34421
660.15        65.91477
660.58        65.36794
661.01        65.14861
661.44        64.80643
661.86        64.77154
662.29         65.0015
662.72         65.2269
663.14        65.40404
663.57        65.53851
664.00         65.6189
664.42        65.64708
664.85        65.62291
665.27        65.47077
665.70         65.2532
666.13        65.13026
666.55        65.14149
666.98        65.22878
667.41        65.36021
667.83        65.48763
668.26        65.57134
668.69        65.62537
669.11        65.66528
669.54        65.72853
669.96        65.80769
670.39        65.85262
670.82         65.8597
671.24        65.80282
671.67        65.72002
672.09         65.7324
672.52        65.82323
672.94        65.80206
673.37        65.66522
673.80        65.50869
674.22        65.38828
674.65        65.31932
675.07        65.33257
675.50        65.40958
675.92        65.50883
676.35        65.55307
676.77        65.52724
677.20        65.44579
677.62        65.35601
678.05        65.32153
678.47        65.35932
678.90        65.45659
679.32        65.56493
679.75        65.63194
680.17        65.63422
680.60        65.58633
681.02        65.53528
681.45        65.52709
681.87        65.58192
682.30        65.71652
682.72        65.87578
683.15        65.82487
683.57        65.60542
684.00        65.50649
684.42        65.54775
684.85         65.5451
685.27        65.48717
685.70        65.51342
686.12        65.58691
686.54        65.56563
686.97        65.43842
687.39        65.37383
687.82        65.35631
688.24        65.16666
688.66        64.89741
689.09        64.98021
689.51        65.38055
689.94        65.60965
690.36        65.63659
690.78        65.72163
691.21        65.89163
691.63        66.03247
692.06        66.16585
692.48        66.42502
692.90        66.72076
693.33        66.79945
693.75        66.64311
694.17        66.30848
694.60        65.93086
695.02        65.75829
695.44        65.78046
695.87        65.79536
696.29        65.76868
696.71        65.61635
697.14        65.44672
697.56        65.68278
697.98        66.22569
698.41        66.50442
698.83        66.47057
699.25        66.43545
699.68        66.42882
700.10        66.42741
700.52        66.44198
700.94        66.43181
701.37        66.40367
701.79        66.49232
702.21        66.62608
702.64        66.62478
703.06        66.49892
703.48        66.33025
703.90        66.11692
704.33        66.24149
704.75        65.90395
705.17        65.89809
705.59        65.98867
706.01        66.14803
706.44        66.34962
706.86        66.57356
707.28        66.78326
707.70        67.01684
708.12        67.21308
708.55        67.16935
708.97        66.92162
709.39        66.73289
709.81        66.65742
710.23        66.58789
710.66        66.54564
711.08        66.65031
711.50         66.8343
711.92        66.93596
712.34         66.9279
712.76        66.85801
713.19        66.75826
713.61        66.73166
714.03        66.78041
714.45        66.86588
714.87        66.96574
715.29        67.05146
715.71        67.10921
716.13        67.15303
716.56        67.14649
716.98        67.11355
717.40        67.03212
717.82         66.9072
718.24        66.78908
718.66         66.7597
719.08         66.8322
719.50        66.97881
719.92        67.13666
720.34        67.20853
720.76        67.16942
721.19        67.02143
721.61         66.8684
722.03         66.7438
722.45        66.69603
722.87        66.71366
723.29        66.77673
723.71         66.8521
724.13        66.92213
724.55        66.97896
724.97        67.05633
725.39        67.20767
725.81        67.42743
726.23        67.69362
726.65        67.89061
727.07         67.8375
727.49        67.51686
727.91        67.00147
728.33        66.46998
728.75        66.20413
729.17        66.26985
729.59        66.58199
730.01         67.0033
730.43        67.28972
730.85        67.36313
731.27        67.30741
731.69        67.17371
732.10         67.0446
732.52        66.95442
732.94        66.85046
733.36        66.78402
733.78        66.83062
734.20        66.98885
734.62        67.32135
735.04        67.68925
735.46        67.68877
735.88        67.40622
736.30        67.28349
736.72        67.33873
737.13        67.55474
737.55        67.78297
737.97        67.35689
738.39        66.54734
738.81        66.78468
739.23        67.92441
739.65        68.27755
740.06        67.75253
740.48        67.59765
740.90        67.78983
741.32         67.6602
741.74        67.24676
742.16        66.97742
742.57        66.90965
742.99        66.94035
743.41        67.06564
743.83        67.21138
744.25        67.37443
744.67        67.68958
745.08        68.06529
745.50        68.15624
745.92        67.93369
746.34        67.52599
746.75         67.0727
747.17        66.76812
747.59        66.65434
748.01        66.78107
748.42        67.05348
748.84        67.07362
749.26        66.90867
749.68        67.03155
750.09        67.40012
750.51        67.69051
750.93        67.80534
751.35        67.67855
751.76        67.40504
752.18        67.30077
752.60        67.40302
753.01        67.56739
753.43        67.72916
753.85        67.81446
754.27        67.78149
754.68        68.03667
755.10        67.90623
755.52        68.00379
755.93        68.11513
756.35        68.23345
756.77        68.32571
757.18        68.29963
757.60        68.15645
758.02        68.07977
758.43        68.03844
758.85        67.70052
759.26        67.23973
759.68        67.38957
760.10        68.04369
760.51        68.38806
760.93        68.35541
761.34        68.00394
761.76        68.31886
762.18         68.0598
762.59        67.66705
763.01        67.70671
763.42        68.17926
763.84        68.38508
764.26        68.28952
764.67        68.16182
765.09        68.07072
765.50        68.06606
765.92        68.13884
766.33        67.73686
766.75        67.35405
767.16        67.20306
767.58        67.44717
768.00        67.68564
768.41         67.9427
768.83        68.56232
769.24        69.34605
769.66        69.70407
770.07        69.62112
770.49        69.23228
770.90        69.01727
771.32        68.99322
771.73        69.21764
772.15         69.2313
772.56        69.03783
772.97        68.92925
773.39        68.98907
773.80         69.0351
774.22        69.05363
774.63        69.12553
775.05        69.20411
775.46        69.27994
775.88         69.3151
776.29        69.33252
776.70        69.33663
777.12        69.36113
777.53        69.43093
777.95        69.51766
778.36        69.59582
778.77        69.59686
779.19        69.50773
779.60        69.35954
780.02        69.20496
780.43        69.09911
780.84        69.08606
781.26        69.20187
781.67        69.36645
782.09        69.40371
782.50        69.26121
782.91        68.88499
783.33        68.44499
783.74        68.36822
784.15        68.72181
784.57        69.27889
784.98        69.92933
785.39        70.50422
785.81        70.91576
786.22        70.98497
786.63        71.14017
787.04        71.08846
787.46        71.01027
787.87        70.83447
788.28        70.66965
788.70         70.6585
789.11        70.79472
789.52        71.07533
789.93        71.35734
790.35        71.38773
790.76        71.13904
791.17        70.67487
791.58        70.16999
792.00        69.88762
792.41        69.90537
792.82        70.13305
793.23        70.43493
793.65         70.6254
794.06        70.63381
794.47        70.41649
794.88        70.11145
795.29        70.00298
795.71        70.06518
796.12        70.26467
796.53        70.49917
796.94        70.62183
797.35        70.57346
797.76         70.4231
798.18        70.26434
798.59        70.20066
799.00        70.27311
799.41        70.42662
799.82        70.64291
800.23        70.89756
800.64        71.15922
801.06        71.41413
801.47        71.61472
801.88        71.58058
802.29        71.29486
802.70        70.81392
803.11         70.3075
803.52        70.04994
803.93        70.11804
804.34         70.4379
804.75         70.8876
805.17        71.27621
805.58        71.56411
805.99        71.62685
806.40        71.51077
806.81        71.64329
807.22        71.89631
807.63        71.46574
808.04         70.5309
808.45        70.11437
808.86         70.3214
809.27        70.62609
809.68        70.91474
810.09        71.20538
810.50        71.43081
810.91        71.59442
811.32        71.66822
811.73        71.61144
812.14        71.43555
812.55        71.14236
812.96        70.86887
813.37         70.8553
813.78        71.14636
814.19        71.67047
814.60        72.23418
815.01        72.53467
815.42        72.49805
815.83         72.1993
816.24         71.7739
816.65        71.49224
817.05        71.45832
817.46        71.56886
817.87        71.74397
818.28        71.82082
818.69        71.75352
819.10        71.59697
819.51        71.41532
819.92        71.31635
820.33        71.33411
820.74        71.42235
821.14        71.51347
821.55        71.54176
821.96        71.47839
822.37        71.36665
822.78        71.25065
823.19        71.20152
823.60        71.25253
824.00         71.4025
824.41        71.60516
824.82        71.89244
825.23        72.23922
825.64        72.61411
826.04        72.97932
826.45        73.19473
826.86        73.25167
827.27        73.18515
827.68        72.98789
828.08        72.67842
828.49        72.25498
828.90        71.73403
829.31        71.26431
829.72        71.06963
830.12        71.22694
830.53        71.66515
830.94        72.16469
831.35        72.27137
831.75        71.90279
832.16        71.15611
832.57        70.42667
832.97        70.31017
833.38        70.89909
833.79        71.98006
834.20        73.17783
834.60        73.85102
835.01        73.78101
835.42        73.20998
835.82        72.36688
836.23        71.59934
836.64        71.05436
837.04        70.64172
837.45        70.40556
837.86        70.49005
838.26        70.89548
838.67        71.55585
839.08        72.26523
839.48        72.63277
839.89        72.54874
840.29        72.12326
840.70        71.53577
841.11        71.05389
841.51        70.79005
841.92        70.64388
842.33        70.64748
842.73        70.85655
843.14        71.20525
843.54        71.74454
843.95        72.29343
844.35        72.60543
844.76        72.58664
845.17        72.28986
845.57        71.90575
845.98        71.74177
846.38        71.88953
846.79         72.2424
847.19        72.63791
847.60        72.71099
848.00        72.40101
848.41        71.81923
848.81        71.18874
849.22        70.82043
849.62        70.80962
850.03        71.03255
850.43        71.36442
850.84        71.44913
851.24         71.2627
851.65        70.89101
852.05        70.53349
852.46        70.46671
852.86        70.72656
853.27        71.18173
853.67        71.68607
854.07        72.23778
854.48         72.7452
854.88        73.33552
855.29        73.70589
855.69        73.56427
856.10        72.76527
856.50        71.52197
856.90        70.28706
857.31        69.72236
857.71        69.95113
858.12        70.74166
858.52        71.82953
858.92        72.47684
859.33        72.41328
859.73        71.90331
860.13        71.09769
860.54        70.26971
860.94         69.5508
861.34        68.83924
861.75        68.27526
862.15          68.163
862.55        68.52084
862.96        69.26964
863.36        70.12743
863.76         70.5219
864.17        70.31613
864.57        69.67953
864.97        68.88527
865.38        68.40944
865.78        68.41549
866.18        68.72749
866.58        69.18957
866.99        69.52016
867.39        69.64305
867.79        69.66713
868.19        69.57761
868.60        69.30752
869.00         68.8726
869.40        68.26581
869.80        67.72997
870.21        67.71986
870.61        68.36651
871.01        69.46387
871.41        70.56118
871.81         70.9786
872.22        70.56745
872.62        69.53049
873.02        68.25104
873.42        67.37114
873.82        67.10931
874.22        67.32034
874.63        67.75389
875.03         68.0015
875.43        67.95746
875.83        67.74979
876.23        67.62213
876.63        67.94288
877.03        68.75778
877.44        69.88177
877.84        70.98294
878.24        71.47835
878.64        71.23104
879.04        70.44526
879.44        69.46555
879.84        68.81195
880.24         68.6224
880.64        68.74065
881.04        69.01154
881.44        69.17557
881.84        69.15017
882.24         69.0472
882.65        68.86964
883.05        68.71593
883.45        68.59078
883.85        68.45742
884.25        68.40105
884.65        68.56338
885.05        68.95992
885.45        69.56387
885.85        70.21223
886.25        70.61542
886.65        70.68128
887.05        70.45584
887.45         70.1381
887.85        70.05155
888.25        70.27069
888.65        70.71748
889.04        71.13929
889.44        71.10934
889.84        70.56635
890.24        69.64736
890.64        68.72187
891.04        68.31185
891.44        68.51645
891.84        69.21246
892.24        69.98197
892.64        70.11536
893.04        69.46638
893.44        68.26564
893.83        67.07301
894.23        66.73914
894.63        67.40115
895.03        68.79951
895.43        70.35754
895.83        71.02747
896.23        70.53863
896.63        69.29691
897.02        67.84183
897.42        67.03543
897.82        67.01694
898.22        67.55858
898.62        68.41591
899.01        69.20758
899.41        69.71239
899.81        70.05028
900.21        70.34061
900.61        70.76885
901.00        71.35639
901.40        71.97856
901.80        72.40364
902.20        72.30975
902.59        71.67587
902.99        70.64746
903.39        69.56782
903.79        68.97779
904.18        68.99324
904.58        69.45784
904.98        70.09881
905.38        70.49644
905.77        70.53346
906.17        70.38257
906.57        70.09737
906.96        69.78359
907.36        69.49136
907.76         69.1668
908.15        68.99001
908.55        69.21877
908.95        69.88667
909.34         70.9332
909.74        71.97141
910.14        72.43701
910.53        72.18588
910.93        71.37051
911.33         70.3685
911.72        69.78452
912.12        69.80022
912.52        70.25302
912.91        70.81277
913.31        70.92247
913.70        70.46445
914.10        69.63914
914.49        68.82379
914.89        68.57171
915.29        68.99978
915.68        69.89903
916.08        70.92145
916.47        71.51207
916.87        71.50408
917.26         71.0914
917.66        70.49892
918.05        70.05792
918.45        69.87106
918.84        69.86569
919.24        69.99309
919.64        70.24763
920.03         70.6068
920.42         71.0628
920.82        71.53728
921.21        71.93034
921.61         72.1768
922.00        72.27332
922.40        72.22591
922.79         72.1444
923.19        72.04436
923.58          71.924
923.98        71.70574
924.37        71.20599
924.77        70.46107
925.16        69.54279
925.55        68.70669
925.95        68.35654
926.34        68.62074
926.74        69.33009
927.13        70.30974
927.52        71.17709
927.92        71.76739
928.31         72.1618
928.70        72.34702
929.10        72.34138
929.49        72.20483
929.89         71.9373
930.28        71.59602
930.67        71.25181
931.07        70.93839
931.46        70.63353
931.85        70.48737
932.24        70.72339
932.64        71.32829
933.03        72.25895
933.42         73.0703
933.82        73.09045
934.21        72.23269
934.60        70.70956
934.99        69.15659
935.39        68.52634
935.78        69.06169
936.17        70.52481
936.56        72.29051
936.96        73.17118
937.35        72.84198
937.74        71.63938
938.13        70.21144
938.53        69.42005
938.92        69.41599
939.31        69.96345
939.70        70.70827
940.09        71.03097
940.49        70.75513
940.88        70.13356
941.27        69.47744
941.66        69.23227
942.05        69.50837
942.44        70.14636
942.84         70.9168
943.23        71.50462
943.62        71.72317
944.01        71.67871
944.40        71.48384
944.79        71.31921
945.18        71.24915
945.57        71.20258
945.97        71.14384
946.36        71.12212
946.75        71.10838
947.14        71.13026
947.53         71.1599
947.92        71.12556
948.31        71.02018
948.70        70.87331
949.09        70.75761
949.48        70.78022
949.87        70.97298
950.26        71.32008
950.65        71.75636
951.04         72.1657
951.43        72.48415
951.82        72.68332
952.21        72.82984
952.60        73.05492
952.99        73.34731
953.38        73.63948
953.77        73.73298
954.16        73.28782
954.55         72.3032
954.94        71.02369
955.33        69.71568
955.72        68.76108
956.11        68.27911
956.50        68.11066
956.89        68.34407
957.28        69.11871
957.66        70.40842
958.05        72.06051
958.44        73.51157
958.83        73.68814
959.22        72.40844
959.61        70.10369
960.00        67.61938
960.39        66.16344
960.78        66.00215
961.16        66.80403
961.55        68.15623
961.94        69.45102
962.33        70.39767
962.72        71.17721
963.11        71.63865
963.49        71.52675
963.88        70.81859
964.27        69.63296
964.66        68.36651
965.04        67.59779
965.43        67.43159
965.82        67.72857
966.21        68.32867
966.60        68.87704
966.98        69.22339
967.37        69.44868
967.76        69.51524
968.15        69.34858
968.53        68.97411
968.92        68.36969
969.31        67.73973
969.69        67.43988
970.08        67.50008
970.47        67.84614
970.86        68.25565
971.24         68.3151
971.63        67.87277
972.02        67.13732
972.40         66.2911
972.79        65.63883
973.17        65.29768
973.56        65.15104
973.95        65.22472
974.33        65.57752
974.72        66.12244
975.11        66.81778
975.49        67.55396
975.88        68.05801
976.26        68.28452
976.65        68.25074
977.04         67.9059
977.42        67.15361
977.81        66.04598
978.19        64.60822
978.58        63.55478
978.96        63.72964
979.35        65.23507
979.74        67.92349
980.12        71.07166
980.51        72.61925
980.89        72.11405
981.28        69.96302
981.66        67.28036
982.05        65.99599
982.43        66.57918
982.82        68.44621
983.20        71.02789
983.59        73.14039
983.97        74.42266
984.35        75.17104
984.74        75.29211
985.12        74.77082
985.51        73.68974
985.89        71.99543
986.28        70.26901
986.66        69.32098
987.04        69.45207
987.43        70.47801
987.81        71.86876
988.20        72.46782
988.58        72.00353
988.96        70.65643
989.35         69.1377
989.73        68.56415
990.12        69.15333
990.50        70.64921
990.88        72.13774
991.27        72.16042
991.65        70.52733
992.03        67.76516
992.42        65.06274
992.80        63.98838
993.18         64.9991
993.56        67.53979
993.95        70.61104
994.33        72.76974
994.71        73.25555
995.10        72.48248
995.48        70.89204
995.86        69.23045
996.24        67.90816
996.63        66.81036
997.01        65.91507
997.39        65.17458
997.77        64.58572
998.15        64.21243
998.54        64.33491
998.92        65.37847
999.30        67.33659
999.68        69.97826
1000.06        72.53858
1000.45        73.71361
1000.83        73.25977
1001.21        71.40794
1001.59        68.85342
1001.97        66.90766
1002.35         66.0676
1002.73        66.01455
1003.12        66.54679
1003.50        67.21062
1003.88        67.79285
1004.26        68.45307
1004.64        68.96679
1005.02        68.94005
1005.40        68.35778
1005.78        67.30773
1006.16        66.12601
1006.54        65.49181
1006.92        65.59321
1007.30        66.17729
1007.69        67.00362
1008.07        67.88617
1008.45        68.58445
1008.83        69.22891
1009.21        69.53696
1009.59        69.01154
1009.97        67.67236
1010.35        65.71745
1010.73        63.87031
1011.11        63.42451
1011.49        64.79574
1011.86        67.83051
1012.24        71.75644
1012.62         75.4434
1013.00        78.26546
1013.38        80.30056
1013.76        81.50467
1014.14        82.02591
1014.52        81.94296
1014.90        81.09334
1015.28        79.50473
1015.66         77.4989
1016.04        75.47928
1016.41        73.70276
1016.79        72.32462
1017.17        71.16419
1017.55        69.99059
1017.93        68.60903
1018.31        67.00136
1018.69        65.64124
1019.06        65.00458
1019.44        65.09068
1019.82        65.23006
1020.20        64.65212
1020.58        63.28602
1020.95        61.12347
1021.33        58.91705
1021.71        58.51292
1022.09        60.77817
1022.46        64.94869
1022.84        69.55375
1023.22        72.85279
1023.60        74.32899
1023.97        74.53945
1024.35        73.26978
1024.73        70.34069
