SpectraSmart Spectrum 2.9.0.0
--------- Device Information -----------
Spectrum Name :  反射率_0
Saving Time :  2024/05/01 15:52:40
Spectro-Module Model Name : SE2030-DUVN
Spectro-Module Serial Number : OS361AC55029948
Wavelength Start : 200
Wavelength End : 1025
Wavelength Unit : Wavelength(nm)
Spectrum Unit : Reflectance(%)
-----------Spectrum Setting ------------
Integration Time : 20ms
Average : 10
Boxcar : 0
Background removal :  enabled
linearity correction :  enabled
SC :  disabled
Intensity correction :  disabled
DWT denoise :  enabled
savitzky-golay :  disabled
FFT :  disabled
Running average :  disabled
Kalman :  disabled
High pass :  disabled
---------------BEGIN--------------------
Wavelength(nm)             Reflectance(%)
200.29               0
200.75       -220.3719
201.21       -381.1407
201.67        19.52546
202.13       -3.260661
202.58        16.73697
203.04        39.27991
203.50        58.01764
203.96        70.88176
204.42        82.42722
204.88        109.4241
205.34        803.0558
205.80        -63.0433
206.26       -56.39507
206.72       -119.2311
207.18       -518.5173
207.64        695.2512
208.10        292.7969
208.55        204.3383
209.01        164.5597
209.47        141.5737
209.93        126.1968
210.39        113.0062
210.85        105.0835
211.31        111.3238
211.77        165.0734
212.23       -332.9058
212.69        -32.8554
213.14       -2.500088
213.60        22.97741
214.06       -146.0946
214.52       -21.21868
214.98       -7.587991
215.44        5.480769
215.90        38.58328
216.36        543.5977
216.81       -254.3367
217.27       -360.4244
217.73        798.0339
218.19        167.0807
218.65        111.0544
219.11        103.8681
219.57        126.2603
220.02        227.8703
220.48        123.0007
220.94        66.95819
221.40        54.84899
221.86        51.60669
222.32        51.15374
222.77        52.17052
223.23        54.77553
223.69        57.11915
224.15        54.05824
224.61         46.6391
225.06        39.03298
225.52        34.82114
225.98        34.75688
226.44        38.14248
226.90        45.03449
227.36        53.63948
227.81         56.2323
228.27        50.64709
228.73        42.18479
229.19        35.39022
229.65        32.36562
230.10        32.43724
230.56        34.96539
231.02        38.88958
231.48        41.14035
231.93         40.3455
232.39        38.07747
232.85        36.19416
233.31        36.46153
233.77        38.61819
234.22         41.6944
234.68         44.6592
235.14        46.51618
235.60         47.1675
236.05        46.99574
236.51        46.32723
236.97        46.51194
237.43         48.4451
237.88        51.65427
238.34        54.85725
238.80        57.36357
239.26        59.26514
239.71        61.25954
240.17        63.09856
240.63        63.75927
241.08        62.61106
241.54        60.37202
242.00        59.36343
242.46        61.95173
242.91        69.74112
243.37        84.51118
243.83        109.2845
244.28        129.2382
244.74        125.2648
245.20         110.831
245.66         97.8988
246.11        89.11573
246.57        82.26944
247.03        73.87431
247.48        60.56586
247.94         41.5583
248.40        23.32138
248.85        11.06577
249.31        10.76371
249.77        21.40829
250.22        35.96858
250.68        49.97542
251.14         60.7977
251.59        68.09869
252.05        73.86575
252.51        80.79981
252.96        93.48817
253.42        116.1653
253.88        123.8743
254.33        107.5417
254.79         93.9848
255.25        85.93923
255.70        80.30313
256.16        76.80297
256.62        73.99121
257.07        71.09978
257.53        68.86089
257.99        66.95352
258.44        65.49413
258.90        65.12089
259.35        65.21378
259.81         65.7418
260.27        65.99035
260.72        65.14439
261.18        63.56433
261.63        61.40162
262.09        59.39907
262.55        57.89939
263.00        56.78285
263.46        55.98183
263.91        55.11715
264.37        54.06226
264.83        52.75411
265.28        51.33181
265.74        49.97158
266.19        48.62975
266.65        47.43685
267.11         46.2851
267.56        45.31769
268.02        44.86945
268.47        44.89629
268.93        45.24469
269.38        45.54385
269.84        45.14201
270.30        43.93658
270.75        42.14402
271.21         40.1545
271.66        38.43579
272.12        37.19827
272.57         36.2544
273.03        35.57731
273.48        35.05897
273.94        34.65734
274.39        34.37434
274.85        34.11866
275.31        33.68558
275.76        33.03384
276.22         32.2503
276.67        31.41198
277.13        30.74323
277.58        30.22341
278.04        29.83706
278.49        29.45872
278.95        29.01661
279.40        28.45431
279.86        27.85588
280.31        27.26541
280.77        26.82508
281.22        26.50371
281.68        26.30688
282.13        26.09479
282.59        25.75582
283.04        25.25501
283.50        24.68582
283.95        24.16478
284.41        23.92298
284.86        23.97769
285.32        24.24567
285.77        24.58846
286.22        24.84978
286.68        24.98839
287.13        25.03323
287.59        25.00952
288.04        24.91651
288.50         24.7993
288.95         24.6191
289.41        24.46361
289.86        24.38736
290.32        24.43159
290.77        24.59159
291.22        24.81057
291.68        24.98276
292.13        25.10079
292.59        25.23492
293.04        25.48359
293.50        26.04931
293.95        26.94248
294.40        28.09367
294.86         29.3721
295.31        30.58025
295.77        31.65031
296.22        32.63026
296.68        33.57027
297.13        34.53769
297.58         35.5888
298.04        36.72924
298.49        37.97122
298.95        39.36942
299.40        40.89052
299.85        42.50234
300.31        44.19896
300.76        45.96241
301.21        47.79559
301.67        49.71878
302.12        51.60087
302.58        53.26143
303.03         54.6344
303.48        55.79623
303.94        57.00083
304.39         58.5384
304.84        60.51654
305.30        62.83261
305.75        65.25111
306.20        67.42329
306.66        69.24934
307.11         70.7776
307.57        72.17622
308.02        73.59898
308.47        75.13368
308.93        76.73183
309.38        78.27699
309.83        79.68243
310.29        80.94141
310.74        82.08162
311.19        83.19412
311.65        84.38967
312.10        85.66606
312.55        86.97758
313.00        88.27138
313.46        89.47285
313.91        90.54347
314.36         91.5064
314.82        92.32644
315.27        92.96363
315.72        93.40781
316.18        93.70242
316.63        93.90294
317.08        94.16454
317.53        94.53667
317.99        94.99782
318.44        95.50716
318.89        95.96343
319.35        96.33772
319.80        96.67286
320.25        97.00294
320.70        97.39011
321.16        97.83168
321.61         98.3047
322.06        98.78577
322.51        99.25865
322.97        99.68484
323.42        100.1117
323.87        100.4608
324.32        100.6305
324.78        100.6066
325.23        100.4574
325.68        100.3039
326.13        100.3633
326.59         100.673
327.04        101.2307
327.49        101.8991
327.94        102.4644
328.39        102.8498
328.85        103.0525
329.30        103.2451
329.75        103.5726
330.20        104.0785
330.66        104.6859
331.11        105.2925
331.56        105.6059
332.01        105.5843
332.46        105.3224
332.92        105.0529
333.37        105.2681
333.82        106.0545
334.27        107.3021
334.72         108.729
335.17        109.8257
335.63        110.3938
336.08        110.6105
336.53        110.6702
336.98        110.9655
337.43        111.6151
337.88        112.4962
338.34        113.4108
338.79        114.1258
339.24         114.522
339.69        114.6896
340.14         114.794
340.59        115.0802
341.05        115.6044
341.50        116.3145
341.95        117.0358
342.40        117.4939
342.85        117.6401
343.30         117.581
343.75        117.5469
344.20        117.8877
344.66         118.667
345.11        119.7554
345.56        120.9317
346.01        121.8184
346.46        122.2996
346.91        122.4996
347.36        122.5473
347.81        122.6458
348.26        122.8671
348.72        123.1449
349.17        123.4541
349.62        123.8304
350.07        124.2366
350.52        124.6466
350.97        124.9567
351.42        124.9819
351.87         124.704
352.32        124.2268
352.77        123.6079
353.22        122.9465
353.67        122.3004
354.13        121.6576
354.58        121.1338
355.03        121.0183
355.48        121.3268
355.93        122.0152
356.38        122.6752
356.83        122.6186
357.28        121.7298
357.73        120.2273
358.18        118.7061
358.63        118.0572
359.08        118.4255
359.53        119.5091
359.98        120.7215
360.43        121.0806
360.88          120.32
361.33         118.772
361.78        116.9247
362.23        115.4746
362.68        114.6123
363.13        114.1386
363.58        113.7954
364.03        113.1947
364.48        112.2301
364.93        111.0266
365.38         109.844
365.83        109.0408
366.28        108.6708
366.73        108.6204
367.18        108.5067
367.63        107.7383
368.08        106.2415
368.53        104.2483
368.98        102.2951
369.43        101.1595
369.88        100.9804
370.33        101.5124
370.78          102.27
371.23        102.3962
371.68        101.6452
372.13        100.3097
372.58        98.78999
373.03        97.67992
373.48        97.12954
373.93        96.91323
374.38        96.86253
374.83        96.72542
375.28        96.39688
375.72        95.96609
376.17         95.4409
376.62        94.75085
377.07        93.91511
377.52        92.94118
377.97        91.96678
378.42        91.22629
378.87        90.76833
379.32        90.53625
379.77        90.38624
380.22        90.08095
380.67        89.56532
381.11        88.91798
381.56        88.24548
382.01        87.74768
382.46        87.47791
382.91        87.35842
383.36        87.29723
383.81        87.15858
384.26        86.89576
384.71        86.55159
385.15        86.14099
385.60        85.73595
386.05        85.34668
386.50        84.95884
386.95        84.57551
387.40        84.21311
387.85        83.87165
388.29        83.49618
388.74        83.18334
389.19        82.86806
389.64        82.54104
390.09        82.21222
390.54         81.8545
390.98        81.41231
391.43        80.94876
391.88        80.46358
392.33        80.03852
392.78        79.79749
393.23        79.74297
393.67        79.76314
394.12        79.80266
394.57        79.72791
395.02        79.44895
395.47        78.78753
395.91        77.96697
396.36         77.5323
396.81        77.57639
397.26        77.90201
397.71        78.22191
398.15        78.19546
398.60        77.85397
399.05        77.04194
399.50        76.13161
399.95        76.15201
400.39        76.95025
400.84        77.10956
401.29        76.53242
401.74         76.2075
402.18        76.14914
402.63        75.69625
403.08        74.99748
403.53        74.59159
403.97        74.51429
404.42        74.60834
404.87        74.75769
405.32        74.75571
405.76        74.54032
406.21        74.33245
406.66        74.13621
407.11        73.71377
407.55        73.25301
408.00        73.22034
408.45        73.56281
408.90        73.90603
409.34        74.00067
409.79        73.48125
410.24        72.58559
410.68        72.16459
411.13        72.30383
411.58        72.50871
412.03        72.66016
412.47        72.79273
412.92        72.82529
413.37        72.76421
413.81        72.64803
414.26        72.59531
414.71        72.60917
415.15        72.67268
415.60        72.72417
416.05        72.72331
416.49        72.65918
416.94        72.54221
417.39        72.41214
417.83        72.31474
418.28        72.26985
418.73        72.26994
419.17        72.27544
419.62        72.24821
420.07        72.17834
420.51        72.01228
420.96        71.85757
421.41        71.90288
421.85        72.07941
422.30        72.19546
422.74        72.18397
423.19         72.1561
423.64        72.12933
424.08        72.17863
424.53        72.29474
424.98        72.42747
425.42        72.52299
425.87        72.71197
426.31        72.92796
426.76        72.56887
427.21        71.91491
427.65        72.26218
428.10        73.31927
428.54        73.65092
428.99        73.24426
429.44        72.44279
429.88        71.63887
430.33        72.22703
430.77         73.6741
431.22        73.67417
431.66        72.40146
432.11        71.93174
432.56        72.32054
433.00        72.83417
433.45        73.37108
433.89        72.84703
434.34         71.8459
434.78        74.05463
435.23        73.26817
435.67        73.43014
436.12        72.89214
436.57        73.30698
437.01        74.44078
437.46        75.01696
437.90        74.42153
438.35        74.05759
438.79        73.87508
439.24        73.50895
439.68        73.08989
440.13        73.26803
440.57          73.981
441.02        74.39855
441.46        74.36702
441.91        75.04415
442.35        75.10503
442.80          75.123
443.24        74.81345
443.69         74.6852
444.13        74.76081
444.58        74.79144
445.02        74.75594
445.47        74.92696
445.91        75.30614
446.36        75.53729
446.80        75.52637
447.24        76.37246
447.69        76.22635
448.13        76.40154
448.58        76.46554
449.02        76.37481
449.47         76.2308
449.91        76.14079
450.36         76.1669
450.80        76.23945
451.25        76.31892
451.69        76.29377
452.13        76.15408
452.58         75.9453
453.02        75.70594
453.47        75.55425
453.91        75.50186
454.36        75.47894
454.80         75.4578
455.24        75.46697
455.69        75.41071
456.13        75.13251
456.58        74.85028
457.02        74.16883
457.46        74.51381
457.91        74.80296
458.35        75.21126
458.79         75.1703
459.24        74.64396
459.68        74.04723
460.13        73.70783
460.57         72.6358
461.01        72.97409
461.46        73.12917
461.90        73.51608
462.34        73.38917
462.79        72.86768
463.23        72.87064
463.68        73.30354
464.12        73.38276
464.56        73.08966
465.01        72.75014
465.45        72.67694
465.89        72.79663
466.34        72.99964
466.78        73.25861
467.22         72.3119
467.67        72.18054
468.11        72.22481
468.55         72.2739
468.99        72.20778
469.44        72.12914
469.88         72.0286
470.32        72.26418
470.77        72.09444
471.21        72.11945
471.65        72.10011
472.10        72.07409
472.54        72.01126
472.98        71.89072
473.42        71.71651
473.87        71.57266
474.31         71.4529
474.75        71.24149
475.20        71.01921
475.64        71.18477
476.08        71.60585
476.52        71.64708
476.97        71.23314
477.41          71.428
477.85        70.16461
478.29        71.03983
478.74        70.92157
479.18        70.99503
479.62        70.58997
480.06        70.49709
480.50        70.72153
480.95        70.32598
481.39        70.97529
481.83        69.97093
482.27        70.39687
482.72        70.32835
483.16        70.19962
483.60        70.24255
484.04        70.30666
484.48        70.26898
484.93        70.43664
485.37         70.6951
485.81        70.81035
486.25        71.72751
486.69        71.29031
487.14        69.16303
487.58        68.61456
488.02        71.14878
488.46        69.98926
488.90        69.75723
489.34        70.16619
489.79        69.64579
490.23        70.00168
490.67        69.69488
491.11        69.32069
491.55        69.46974
491.99        70.02776
492.43        70.22758
492.88        69.98901
493.32        69.75593
493.76        69.61017
494.20        69.53661
494.64        69.54852
495.08        69.60484
495.52        69.70301
495.96        69.77477
496.41        69.75769
496.85        69.98884
497.29        69.96068
497.73        69.52528
498.17        68.77825
498.61        68.51117
499.05        68.78197
499.49        69.22058
499.93        69.62223
500.37        69.58743
500.82        69.20441
501.26        69.14893
501.70         69.4486
502.14        69.63781
502.58        69.63897
503.02        69.57915
503.46        69.45608
503.90        69.23233
504.34        68.99307
504.78        68.90514
505.22        68.99998
505.66        69.18133
506.10        69.37091
506.54        69.55228
506.98        69.60789
507.42        69.38204
507.86        68.78757
508.30        68.53025
508.74        68.60416
509.18        68.75589
509.62        68.91824
510.06        69.08373
510.50        69.21478
510.94         69.3112
511.38        69.36565
511.82        69.36468
512.26        69.30766
512.70        69.19136
513.14        69.04105
513.58        68.90256
514.02        68.79343
514.46        68.71459
514.90        68.64767
515.34        68.57056
515.78        68.45893
516.22        68.34608
516.66        68.26538
517.10        68.27615
517.54        68.38308
517.98        68.56019
518.42        68.74962
518.86        68.85674
519.30        68.85848
519.74        68.78458
520.18        68.67837
520.62        68.61263
521.06         68.6056
521.50        68.62463
521.93        68.66229
522.37        68.69661
522.81        68.72037
523.25        68.75032
523.69        68.74741
524.13        68.64513
524.57        68.44855
525.01        68.18678
525.45        67.95249
525.89        67.89226
526.32        68.02914
526.76         68.3083
527.20        68.63469
527.64        68.85533
528.08        68.92156
528.52        68.88128
528.96        68.76611
529.40        68.62909
529.83        68.49094
530.27        68.35165
530.71        68.23939
531.15         68.2174
531.59        68.29361
532.03        68.45371
532.46         68.6292
532.90         68.7251
533.34         68.7181
533.78        68.58405
534.22        68.38731
534.66        68.34813
535.09        68.42445
535.53         68.3378
535.97         68.1069
536.41        68.00937
536.85        68.05466
537.28        68.08938
537.72         68.0965
538.16         68.1097
538.60        68.11965
539.04        68.11633
539.47        68.09291
539.91        68.07856
540.35        68.05977
540.79        68.05642
541.22        68.07007
541.66         68.0072
542.10         68.0394
542.54        68.02789
542.97        68.01102
543.41        68.00253
543.85        67.99144
544.29        67.97684
544.72        67.95181
545.16        67.94317
545.60        67.94151
546.04        67.93874
546.47        67.92783
546.91        67.92332
547.35         67.9343
547.79        67.89921
548.22        67.78796
548.66        67.79836
549.10         67.8829
549.53        67.49216
549.97        67.29421
550.41        67.17799
550.84        67.34481
551.28        67.63892
551.72        67.95865
552.15        68.10546
552.59        68.06635
553.03        68.07536
553.46        67.97933
553.90        68.01149
554.34        68.13587
554.77        68.19728
555.21        68.10667
555.65        68.47959
556.08        68.05044
556.52        67.76104
556.96        67.37154
557.39        67.09066
557.83        66.94446
558.27        67.34992
558.70        67.18318
559.14        67.49894
559.57        67.49735
560.01        67.69457
560.45        67.84358
560.88        67.83948
561.32        67.74627
561.75        67.30524
562.19        66.77874
562.63        67.08632
563.06         67.9825
563.50        67.92947
563.93        67.04299
564.37        66.80434
564.80         67.2167
565.24        67.49155
565.68        67.52493
566.11        67.52611
566.55        67.50432
566.98        67.36122
567.42          67.214
567.85        67.22363
568.29        67.42091
568.72        67.61798
569.16        67.81349
569.60        67.91721
570.03        67.86046
570.47        67.69189
570.90        68.02426
571.34        67.13637
571.77        67.51863
572.21        67.45302
572.64         67.6429
573.08        67.31871
573.51        67.59194
573.95        67.81246
574.38        67.82563
574.82        67.91292
575.25        68.22834
575.69        68.19743
576.12         68.0447
576.56        67.61726
576.99        67.89157
577.42         68.0845
577.86        68.22618
578.29         68.3148
578.73        69.05378
579.16        67.94598
579.60        67.35194
580.03        67.29134
580.47        67.76781
580.90        67.37748
581.33        68.03617
581.77        68.35318
582.20        68.41711
582.64        68.34331
583.07        68.24113
583.51        67.79599
583.94        67.35822
584.37        67.55578
584.81        68.39204
585.24        68.43379
585.68        67.71346
586.11        68.22936
586.54        68.26922
586.98         67.6095
587.41         67.2254
587.85         68.2123
588.28        68.54462
588.71        66.72583
589.15        67.73663
589.58        67.05402
590.01         67.1534
590.45        67.24193
590.88        67.52279
591.31        67.52558
591.75        67.58411
592.18        67.23148
592.61        66.66489
593.05         67.2333
593.48        67.30986
593.91        67.37038
594.35        66.98274
594.78        66.77408
595.21        66.87037
595.65        67.48476
596.08        67.45515
596.51        67.04765
596.94        66.89217
597.38        66.72341
597.81        66.91355
598.24        66.62325
598.68        67.14764
599.11        66.67865
599.54        67.82558
599.97        67.56525
600.41        66.81743
600.84        67.32037
601.27        67.04169
601.70        67.55988
602.14        67.62605
602.57        67.48285
603.00        67.12274
603.43        66.79281
603.87        66.94994
604.30        67.43124
604.73        67.04027
605.16         66.5466
605.60         66.6196
606.03        66.84786
606.46        67.28888
606.89        67.15598
607.32         66.6777
607.76        66.46516
608.19        66.60836
608.62        67.09855
609.05         66.9939
609.48        67.09846
609.92        66.67948
610.35        66.42653
610.78        67.59225
611.21        67.67477
611.64         67.1573
612.07        67.08041
612.50        67.49312
612.94        67.20589
613.37        66.91229
613.80        66.78767
614.23         66.5984
614.66        66.93755
615.09        66.61926
615.52        66.67515
615.96        66.76317
616.39        66.97168
616.82        67.04713
617.25        67.13888
617.68        67.15707
618.11        67.02685
618.54        66.79711
618.97          66.635
619.40         66.5994
619.84        66.52409
620.27        66.39177
620.70        66.64131
621.13        67.21747
621.56        66.66967
621.99        65.84599
622.42        66.62315
622.85        66.38897
623.28        66.52581
623.71        66.47163
624.14        66.68955
624.57        66.76006
625.00         66.8941
625.43        66.95772
625.86         66.7654
626.29        66.31722
626.72        66.44532
627.15        66.14168
627.58        66.06194
628.01        65.92632
628.44        66.08495
628.87        66.45628
629.30           66.37
629.73         66.2813
630.16        66.23363
630.59        66.36149
631.02        66.41882
631.45        66.39104
631.88        66.36545
632.31        66.34062
632.74        66.29825
633.17        66.25945
633.60        66.25732
634.03        66.29737
634.46         66.3747
634.89        66.45948
635.32        66.49863
635.75        66.47743
636.18        66.40741
636.61        66.31569
637.04        66.25013
637.47        66.22932
637.89        66.23013
638.32        66.20067
638.75        66.16193
639.18        66.12249
639.61        65.81735
640.04        65.78601
640.47        65.69788
640.90        65.71533
641.33        65.79219
641.76        65.87748
642.18        65.97776
642.61        66.07207
643.04        66.01948
643.47        65.77939
643.90        66.22029
644.33        65.92358
644.76        65.92828
645.18        65.85873
645.61        66.04165
646.04        66.37175
646.47        66.32316
646.90        65.96375
647.33        65.84406
647.75        65.98854
648.18        66.06564
648.61        66.07274
649.04        66.08184
649.47        66.06521
649.89        66.21176
650.32        66.41756
650.75        66.04063
651.18        65.30963
651.61        65.42329
652.03        66.26215
652.46        66.41365
652.89        65.84182
653.32        65.57465
653.74        65.85065
654.17        65.70573
654.60        66.01312
655.03        66.58775
655.46        65.55008
655.88        65.49609
656.31        71.22328
656.74        71.25085
657.16        66.54709
657.59        65.04293
658.02         65.3526
658.45        66.07771
658.87        66.00679
659.30        65.24838
659.73        65.47563
660.15        66.50409
660.58        65.79431
661.01        65.64133
661.44        65.28316
661.86        65.24961
662.29        65.51348
662.72        65.78537
663.14        66.01878
663.57        66.16594
664.00        66.22077
664.42        66.24374
664.85        66.23672
665.27        66.08321
665.70        65.84815
666.13        65.71927
666.55        65.73698
666.98        65.83135
667.41        65.96769
667.83        66.09456
668.26        66.17024
668.69        66.21234
669.11        66.23109
669.54        66.25574
669.96        66.28149
670.39        66.25912
670.82        66.20415
671.24        66.13203
671.67         66.0797
672.09        66.13092
672.52        66.25689
672.94        66.26835
673.37        66.15524
673.80        66.00879
674.22        65.87984
674.65        65.78228
675.07        65.75131
675.50        65.77159
675.92        65.83356
676.35         65.8899
676.77        65.92629
677.20        65.97629
677.62        66.06499
678.05        65.99272
678.47        66.15953
678.90         66.1527
679.32        66.08916
679.75        66.04601
680.17          66.024
680.60        65.96959
681.02        65.91213
681.45        65.90153
681.87        65.95058
682.30        66.08421
682.72        66.24688
683.15        66.19249
683.57        65.96619
684.00        65.87008
684.42        65.92571
684.85        65.94678
685.27        65.92796
685.70        65.98489
686.12        66.06381
686.54        66.08055
686.97        66.02692
687.39        65.75265
687.82        65.75731
688.24        65.50432
688.66          65.244
689.09         65.3633
689.51        65.81398
689.94        66.07209
690.36        66.08938
690.78        66.17152
691.21        66.35254
691.63        66.44994
692.06        66.52628
692.48        66.88957
692.90         67.4007
693.33        67.54076
693.75        67.25976
694.17        66.78951
694.60        66.35915
695.02        66.00468
695.44        66.01181
695.87        66.15985
696.29        66.51303
696.71        65.78146
697.14        65.98399
697.56        66.01576
697.98        66.39294
698.41        66.57282
698.83        66.53696
699.25        66.55351
699.68        66.60379
700.10        66.64069
700.52        66.65762
700.94        66.62655
701.37        66.57583
701.79        66.67345
702.21        66.85341
702.64        66.91689
703.06        66.85418
703.48        66.71941
703.90        66.50203
704.33        66.59705
704.75        66.20734
705.17        66.14268
705.59        66.17654
706.01        66.28034
706.44        66.43663
706.86        66.65432
707.28        66.90238
707.70        67.17053
708.12        67.38982
708.55        67.44447
708.97        67.31765
709.39        67.04841
709.81        66.74364
710.23        66.59808
710.66        66.66211
711.08        66.89096
711.50        67.16929
711.92        67.32551
712.34        67.31377
712.76        67.19083
713.19         67.0034
713.61        66.87917
714.03        66.83802
714.45        66.84132
714.87        66.88435
715.29        66.96329
715.71        67.06641
716.13        67.20118
716.56        67.30973
716.98        67.37434
717.40        67.35428
717.82        67.25916
718.24        67.14214
718.66        67.09383
719.08         67.1334
719.50        67.23474
719.92        67.34282
720.34        67.36758
720.76        67.28775
721.19        67.13406
721.61        66.96175
722.03        66.84814
722.45        66.82243
722.87        66.87209
723.29         66.9592
723.71         67.0219
724.13        67.03899
724.55        67.01381
724.97        67.00276
725.39        67.09609
725.81        67.30102
726.23        67.58699
726.65         67.8317
727.07        67.84193
727.49        67.59087
727.91        67.14986
728.33        66.68929
728.75        66.47873
729.17        66.57935
729.59        66.90573
730.01        67.31828
730.43        67.57293
730.85        67.59506
731.27         67.4724
731.69        67.27069
732.10         67.0885
732.52        66.96696
732.94        66.86217
733.36        66.80994
733.78        66.84196
734.20        66.94418
734.62        67.22093
735.04        67.57238
735.46          67.534
735.88        67.21897
736.30        67.35824
736.72        67.85123
737.13        67.97105
737.55        67.66118
737.97        67.23853
738.39        66.89852
738.81        67.04745
739.23        67.60387
739.65        67.84496
740.06        67.68645
740.48        67.71262
740.90        67.88716
741.32        67.87273
741.74        67.66096
742.16        67.46523
742.57          67.324
742.99         67.1391
743.41        66.99728
743.83         67.0899
744.25        67.38776
744.67        67.70459
745.08        67.94659
745.50        68.01951
745.92        67.89793
746.34        67.55915
746.75        67.10764
747.17        66.78447
747.59        66.63177
748.01        66.59924
748.42        66.65292
748.84        66.70035
749.26        66.72719
749.68        66.75967
750.09        66.81351
750.51        66.93588
750.93        67.11401
751.35        67.29444
751.76        67.45875
752.18        67.59842
752.60        67.70633
753.01        67.79626
753.43        67.83886
753.85        67.83657
754.27        67.80272
754.68        67.74809
755.10        67.72361
755.52        67.80103
755.93        67.97279
756.35        68.19996
756.77        68.43444
757.18        68.52604
757.60        68.44485
758.02        68.43321
758.43        68.42889
758.85        67.95214
759.26        67.21646
759.68        67.24167
760.10        67.95213
760.51        68.24746
760.93        68.03682
761.34        68.01893
761.76        68.19887
762.18        68.12034
762.59        67.87134
763.01        67.81573
763.42        68.01226
763.84        68.10645
764.26        68.10661
764.67        68.15911
765.09        68.25423
765.50        68.22247
765.92        68.07272
766.33        67.78911
766.75        67.42529
767.16        67.35191
767.58        67.57895
768.00        67.91592
768.41        68.33693
768.83        68.89407
769.24        69.45057
769.66        69.79985
770.07        69.87491
770.49        69.52896
770.90        68.95914
771.32        68.86388
771.73        69.19748
772.15        69.20401
772.56        68.87495
772.97        68.67833
773.39        68.64607
773.80        68.75476
774.22        68.77567
774.63        68.94926
775.05        69.12576
775.46        69.23251
775.88        69.21436
776.29         69.1099
776.70        68.97335
777.12        68.92107
777.53        68.99852
777.95        69.14843
778.36        69.30865
778.77        69.35698
779.19        69.27367
779.60         69.1021
780.02        68.90768
780.43        68.84344
780.84        68.95075
781.26        69.03342
781.67        69.07325
782.09        69.35896
782.50        69.71246
782.91        69.38417
783.33         68.5787
783.74        68.34435
784.15        68.78229
784.57        69.30325
784.98        69.81091
785.39        70.34202
785.81        70.81922
786.22        71.00395
786.63        71.27582
787.04        71.26169
787.46        71.12807
787.87        70.84541
788.28        70.55321
788.70        70.43874
789.11        70.51093
789.52        70.74155
789.93        71.01289
790.35        71.11594
790.76        71.02381
791.17        70.78848
791.58        70.48969
792.00        70.28103
792.41         70.2283
792.82        70.15079
793.23          70.046
793.65        70.28029
794.06        70.68377
794.47        70.41615
794.88        69.71455
795.29        69.56244
795.71        69.93628
796.12        70.48224
796.53        70.97764
796.94        71.07863
797.35        70.74589
797.76        70.43978
798.18        70.29409
798.59        70.13161
799.00        70.01135
799.41        70.08984
799.82        70.34061
800.23        70.60583
800.64        70.84013
801.06        71.06682
801.47        71.26483
801.88        71.29426
802.29        71.13769
802.70         70.8226
803.11        70.45559
803.52        70.22099
803.93        70.18448
804.34        70.30561
804.75        70.52877
805.17         70.8088
805.58        71.15106
805.99        71.30423
806.40        71.29282
806.81        71.70796
807.22         72.2991
807.63        71.81874
808.04        70.50691
808.45        69.89902
808.86        70.14681
809.27        70.43384
809.68        70.62531
810.09        70.84402
810.50        71.02448
810.91        71.15761
811.32        71.21117
811.73          71.128
812.14        70.91895
812.55         70.5925
812.96        70.31337
813.37        70.36569
813.78        70.79596
814.19        71.50859
814.60        72.26048
815.01        72.67848
815.42        72.66898
815.83        72.32002
816.24        71.79296
816.65        71.41221
817.05        71.30981
817.46        71.38015
817.87        71.52702
818.28         71.5574
818.69         71.4211
819.10        71.18396
819.51        70.95146
819.92        70.90024
820.33        71.07088
820.74        71.38303
821.14        71.69476
821.55        71.83215
821.96        71.74716
822.37        71.52068
822.78        71.24905
823.19        71.10252
823.60        71.15024
824.00         71.3513
824.41        71.65659
824.82        72.09342
825.23        72.61394
825.64        73.18698
826.04          73.694
826.45        73.85506
826.86        73.64506
827.27        73.15398
827.68         72.4981
828.08        71.90294
828.49        71.43558
828.90        71.06303
829.31        70.87583
829.72        70.99641
830.12        71.45361
830.53         72.1919
830.94        72.96622
831.35        73.27674
831.75        73.01616
832.16        72.26641
832.57        71.43787
832.97        71.16505
833.38         71.5648
833.79         72.4401
834.20        73.43056
834.60        73.91462
835.01        73.69289
835.42        73.01073
835.82        72.13319
836.23        71.45379
836.64        71.11327
837.04         71.0007
837.45        71.06225
837.86        71.28063
838.26        71.61424
838.67        72.03277
839.08        72.44152
839.48         72.6416
839.89        72.57603
840.29        72.30325
840.70        71.90725
841.11        71.50202
841.51        71.16243
841.92        70.84052
842.33        70.64909
842.73        70.76921
843.14        71.17184
843.54         71.8703
843.95        72.61095
844.35        73.03036
844.76        72.99448
845.17        72.57931
845.57        72.05375
845.98        71.84576
846.38        72.07546
846.79        72.61421
847.19        73.18815
847.60         73.2412
848.00         72.6851
848.41        71.70371
848.81        70.70586
849.22        70.28182
849.62        70.57768
850.03        71.37801
850.43        72.36656
850.84        72.84935
851.24        72.68725
851.65        72.05488
852.05        71.28281
852.46        70.88113
852.86        70.98457
853.27        71.40807
853.67        71.94901
854.07        72.53214
854.48         73.0384
854.88        73.60608
855.29        73.98545
855.69        73.96951
856.10        73.40771
856.50         72.4652
856.90        71.42614
857.31        70.72154
857.71        70.44623
858.12        70.43253
858.52        70.63972
858.92        70.77043
859.33        70.70665
859.73        70.59183
860.13        70.35199
860.54        69.89597
860.94        69.25031
861.34        68.42483
861.75         67.6554
862.15        67.40983
862.55        67.76817
862.96        68.57514
863.36        69.53833
863.76        70.08866
864.17        70.06728
864.57        69.64567
864.97        69.03905
865.38         68.6176
865.78        68.52444
866.18        68.61598
866.58        68.78947
866.99        68.87197
867.39        68.84182
867.79        68.79111
868.19        68.71133
868.60        68.53857
869.00        68.27401
869.40        67.90463
869.80        67.62192
870.21        67.78036
870.61        68.46941
871.01        69.49814
871.41        70.45322
871.81        70.71507
872.22        70.17421
872.62        69.05282
873.02        67.73424
873.42        66.85834
873.82        66.64395
874.22        66.92104
874.63        67.51204
875.03        68.12347
875.43        68.62422
875.83        69.07444
876.23        69.48082
876.63        69.84676
877.03        70.16206
877.44        70.37513
877.84        70.43803
878.24        70.25116
878.64        69.83582
879.04        69.26833
879.44        68.73466
879.84        68.49984
880.24        68.60776
880.64        68.96997
881.04        69.44529
881.44        69.78975
881.84        69.92965
882.24        69.94694
882.65        69.82536
883.05        69.66328
883.45        69.46691
883.85        69.19982
884.25        69.00895
884.65        69.11652
885.05        69.54584
885.45        70.26128
885.85        70.99225
886.25        71.26065
886.65        70.95098
887.05        70.18435
887.45        69.33467
887.85        68.99792
888.25        69.30193
888.65        70.06805
889.04        70.89797
889.44        71.12539
889.84        70.60995
890.24        69.56784
890.64        68.41637
891.04        67.74142
891.44        67.68766
891.84        68.12709
892.24        68.69552
892.64        68.78364
893.04        68.26324
893.44        67.32265
893.83        66.48106
894.23        66.52969
894.63        67.56879
895.03        69.33932
895.43        71.17224
895.83        71.86306
896.23        71.12778
896.63        69.44795
897.02        67.51516
897.42        66.39752
897.82        66.27565
898.22         66.8638
898.62        67.86929
899.01        68.81407
899.41        69.43641
899.81        69.89668
900.21        70.27779
900.61        70.70323
901.00        71.18882
901.40         71.6047
901.80        71.82903
902.20        71.72305
902.59        71.29547
902.99        70.64774
903.39        69.95977
903.79        69.50051
904.18         69.3343
904.58        69.39421
904.98        69.60024
905.38        69.83189
905.77         70.0266
906.17        70.24579
906.57        70.37355
906.96        70.23751
907.36        69.81445
907.76         69.1604
908.15        68.55118
908.55        68.39731
908.95        68.79748
909.34        69.63557
909.74         70.5715
910.14        71.11559
910.53        71.11622
910.93        70.71765
911.33         70.1366
911.72        69.71657
912.12        69.58627
912.52        69.63496
912.91        69.73748
913.31        69.69166
913.70        69.45735
914.10        69.12605
914.49        68.83417
914.89         68.7552
915.29        68.92738
915.68        69.27358
916.08         69.6699
916.47        69.93633
916.87        70.00711
917.26        69.93807
917.66        69.79117
918.05        69.65547
918.45        69.56253
918.84        69.53242
919.24        69.54354
919.64        69.63463
920.03        69.82091
920.42        70.06079
920.82        70.36148
921.21        70.76466
921.61        71.21516
922.00        71.68147
922.40         72.0088
922.79        72.00332
923.19        71.62172
923.58        70.98588
923.98        70.22057
924.37          69.425
924.77        68.70063
925.16        68.03589
925.55        67.60365
925.95        67.65399
926.34        68.23732
926.74        69.21724
927.13        70.41828
927.52        71.45853
927.92        72.18002
928.31        72.64953
928.70        72.84922
929.10        72.81316
929.49        72.60532
929.89        72.21032
930.28        71.73398
930.67        71.32104
931.07        71.01025
931.46        70.77347
931.85        70.63854
932.24        70.61885
932.64        70.69936
933.03        70.95026
933.42        71.13011
933.82         70.8817
934.21        70.17456
934.60        69.07795
934.99         68.1097
935.39        68.04617
935.78        69.05235
936.17         70.9594
936.56         73.0036
936.96        73.74993
937.35        72.87527
937.74        70.82001
938.13        68.60027
938.53        67.58729
938.92        68.00883
939.31        69.49316
939.70        71.37515
940.09        72.42534
940.49         72.2466
940.88        71.25321
941.27        70.00619
941.66         69.3326
942.05        69.45035
942.44        70.08892
942.84        70.89298
943.23        71.33192
943.62        71.17668
944.01        70.66167
944.40        70.06147
944.79         69.7748
945.18        69.90607
945.57        70.27606
945.97        70.73072
946.36        71.14956
946.75        71.43125
947.14        71.64296
947.53        71.72466
947.92        71.55734
948.31        71.15482
948.70        70.57565
949.09        70.02062
949.48        69.78718
949.87        69.96041
950.26        70.50049
950.65        71.26134
951.04        71.96575
951.43        72.47348
951.82        72.75811
952.21        72.94894
952.60         73.2829
952.99         73.7665
953.38        74.31338
953.77        74.56692
954.16        73.92786
954.55        72.37555
954.94        70.26425
955.33        68.18752
955.72        67.01656
956.11        66.95607
956.50        67.69385
956.89        68.96635
957.28        70.33876
957.66        71.61631
958.05        72.78051
958.44        73.52448
958.83        73.26431
959.22        71.98083
959.61        69.94501
960.00        67.78813
960.39        66.41467
960.78         66.0246
961.16        66.40736
961.55        67.29929
961.94        68.32072
962.33        69.26186
962.72        70.23983
963.11        70.99289
963.49        71.07202
963.88        70.37702
964.27        69.06261
964.66        67.63228
965.04        66.81848
965.43        66.73638
965.82        67.18567
966.21        67.85178
966.60        68.11192
966.98        67.77547
967.37        67.06351
967.76         66.1606
968.15         65.3419
968.53        64.75072
968.92        64.26799
969.31        64.02443
969.69        64.25483
970.08        64.91341
970.47        65.94045
970.86        66.97865
971.24        67.36279
971.63        66.86857
972.02        65.75809
972.40        64.38575
972.79        63.33879
973.17        62.83561
973.56        62.71962
973.95        62.96423
974.33        63.53634
974.72        64.32085
975.11        65.29644
975.49        66.40659
975.88        67.44633
976.26        68.33829
976.65        69.03674
977.04        69.28638
977.42        68.70265
977.81        67.32718
978.19        65.31572
978.58        63.66031
978.96        63.62054
979.35        65.38847
979.74        68.68283
980.12        72.64268
980.51        74.88029
980.89        74.76299
981.28        72.78516
981.66        69.97099
982.05        68.11829
982.43        67.73728
982.82        68.27864
983.20        69.54649
983.59        71.01632
983.97        72.48845
984.35        74.08543
984.74        75.29725
985.12        75.40961
985.51         74.3061
985.89        72.12846
986.28         69.7116
986.66        68.28349
987.04         68.2926
987.43         69.4379
987.81        71.07988
988.20        71.89281
988.58        71.53948
988.96        70.24913
989.35        68.83595
989.73        68.56641
990.12        69.65379
990.50        71.74802
990.88        73.70417
991.27        73.70707
991.65        71.51492
992.03        67.81393
992.42        64.05174
992.80        62.17855
993.18        62.76607
993.56        65.17113
993.95        68.34471
994.33        70.71256
994.71        71.47092
995.10        71.12218
995.48        70.01645
995.86        68.74988
996.24        67.66872
996.63         66.5669
997.01        65.64965
997.39        65.25616
997.77         65.4184
998.15        66.14319
998.54        67.17659
998.92        67.97031
999.30        68.32104
999.68        68.31332
1000.06        68.10983
1000.45        68.00549
1000.83        68.22378
1001.21        68.59154
1001.59        68.95853
1001.97        69.10143
1002.35        68.93972
1002.73        68.53481
1003.12        68.08984
1003.50         67.8454
1003.88        67.91475
1004.26        68.30464
1004.64        68.70099
1005.02        68.62901
1005.40        68.03404
1005.78        66.99562
1006.16        66.11876
1006.54        66.47221
1006.92        68.20978
1007.30        70.91223
1007.69        73.47576
1008.07        74.34983
1008.45        73.08838
1008.83        70.28193
1009.21        66.83627
1009.59        64.27393
1009.97         63.1682
1010.35         63.1257
1010.73        64.03301
1011.11        65.63874
1011.49         67.7538
1011.86        70.69578
1012.24        73.73353
1012.62        75.89172
1013.00        76.75409
1013.38        76.20538
1013.76        74.99567
1014.14        74.74779
1014.52        75.95306
1014.90        78.32063
1015.28        80.68502
1015.66        80.88039
1016.04        78.73347
1016.41        75.41991
1016.79        72.48911
1017.17        71.36446
1017.55        72.10313
1017.93        74.19103
1018.31        77.15395
1018.69        78.95531
1019.06        78.36806
1019.44        76.64869
1019.82        74.23927
1020.20        71.02213
1020.58        66.88463
1020.95         61.2714
1021.33        55.48964
1021.71        53.51808
1022.09        57.39725
1022.46        66.02632
1022.84        75.96597
1023.22        82.46664
1023.60        84.31531
1023.97        82.70596
1024.35        78.60022
1024.73        74.12321
