SpectraSmart Spectrum 2.9.0.0
--------- Device Information -----------
Spectrum Name :  反射率_0
Saving Time :  2024/05/01 15:51:47
Spectro-Module Model Name : SE2030-DUVN
Spectro-Module Serial Number : OS361AC55029948
Wavelength Start : 200
Wavelength End : 1025
Wavelength Unit : Wavelength(nm)
Spectrum Unit : Reflectance(%)
-----------Spectrum Setting ------------
Integration Time : 20ms
Average : 10
Boxcar : 0
Background removal :  enabled
linearity correction :  enabled
SC :  disabled
Intensity correction :  disabled
DWT denoise :  enabled
savitzky-golay :  disabled
FFT :  disabled
Running average :  disabled
Kalman :  disabled
High pass :  disabled
---------------BEGIN--------------------
Wavelength(nm)             Reflectance(%)
200.29               0
200.75        57.09112
201.21        439.2571
201.67         -220.93
202.13       -75.81937
202.58       -18.91775
203.04        18.85048
203.50        43.54353
203.96        55.03217
204.42        56.09102
204.88        41.58049
205.34       -389.2241
205.80        121.6073
206.26        80.11849
206.72        35.49682
207.18       -149.1774
207.64        351.3864
208.10        164.7057
208.55        114.5378
209.01        87.31592
209.47        71.60983
209.93        62.15669
210.39        53.65541
210.85         45.3689
211.31        35.39366
211.77        8.962877
212.23        189.8439
212.69        83.44869
213.14        92.89787
213.60        165.2173
214.06       -661.0615
214.52       -90.45358
214.98       -53.51453
215.44       -46.72721
215.90       -59.02225
216.36       -320.0194
216.81        69.89482
217.27        51.87172
217.73       -65.34846
218.19       -15.74831
218.65       -25.72791
219.11       -57.65014
219.57       -161.8562
220.02        -585.989
220.48        -292.645
220.94       -68.72336
221.40       -11.29889
221.86        9.361635
222.32        18.23989
222.77        23.28567
223.23        27.53015
223.69        30.83121
224.15        30.30608
224.61        26.31613
225.06        21.45305
225.52        18.40769
225.98        17.95497
226.44        19.64254
226.90        23.42816
227.36        28.41138
227.81        30.31541
228.27        27.74392
228.73        23.56454
229.19        20.14719
229.65        18.58378
230.10          18.622
230.56        20.11317
231.02        22.73184
231.48        25.21855
231.93        26.61012
232.39        27.20371
232.85        27.86669
233.31        29.62781
233.77        32.32197
234.22         35.3994
234.68        38.09871
235.14        39.72451
235.60        40.26515
236.05          39.992
236.51        39.21574
236.97        39.20163
237.43        40.78283
237.88        43.50179
238.34         46.2297
238.80        48.28403
239.26        49.64769
239.71        50.97668
240.17        51.45715
240.63        48.66137
241.08        42.46953
241.54        35.73284
242.00        32.39101
242.46        35.34992
242.91        46.31232
243.37        68.25292
243.83        107.3273
244.28         144.616
244.74        147.9406
245.20         132.325
245.66        115.5853
246.11        103.1831
246.57         92.4073
247.03        77.58024
247.48        53.64008
247.94        21.52032
248.40       -6.117086
248.85       -21.47318
249.31       -19.18644
249.77       -3.961747
250.22        14.64339
250.68        32.02531
251.14        45.00497
251.59        52.81964
252.05        57.50536
252.51        60.77443
252.96        63.97057
253.42        72.92305
253.88        83.48852
254.33        82.94655
254.79        79.88649
255.25        77.75503
255.70        75.98673
256.16        75.03288
256.62        74.12083
257.07        72.78255
257.53         71.6967
257.99        70.60318
258.44        69.42776
258.90        68.60837
259.35         67.6898
259.81        66.92928
260.27        65.97768
260.72         64.5359
261.18        63.00631
261.63        61.26978
262.09        59.85567
262.55        58.89527
263.00        58.20113
263.46        57.75809
263.91        57.15079
264.37        56.21186
264.83        54.88846
265.28        53.33778
265.74        51.79441
266.19        50.29293
266.65         48.9798
267.11        47.72047
267.56        46.64148
268.02        46.04805
268.47        45.89304
268.93        46.05563
269.38        46.16011
269.84        45.54087
270.30        44.11236
270.75        42.10471
271.21        39.97593
271.66         38.2921
272.12        37.26721
272.57        36.66782
273.03        36.36406
273.48        36.09303
273.94        35.76929
274.39         35.4293
274.85        35.05737
275.31        34.55482
275.76        33.91058
276.22        33.19566
276.67        32.42503
277.13        31.74236
277.58        31.12077
278.04        30.56942
278.49         30.0676
278.95        29.69892
279.40        29.40469
279.86        29.19334
280.31        28.93723
280.77         28.5491
281.22         27.9804
281.68        27.34306
282.13        26.65833
282.59        26.04114
283.04        25.49836
283.50        25.04549
283.95        24.70955
284.41        24.58107
284.86        24.64398
285.32        24.87903
285.77        25.18265
286.22        25.44567
286.68        25.64011
287.13        25.75893
287.59        25.84564
288.04        25.93281
288.50        26.05032
288.95        26.14119
289.41        26.20935
289.86        26.18773
290.32         26.1148
290.77        26.03121
291.22        25.99169
291.68        26.06054
292.13        26.26665
292.59        26.63164
293.04        27.16401
293.50        27.92088
293.95        28.88085
294.40        30.03083
294.86         31.3066
295.31        32.61352
295.77        33.90728
296.22        35.18256
296.68        36.45876
297.13         37.7622
297.58        39.12952
298.04        40.58397
298.49        42.10549
298.95          43.695
299.40        45.32084
299.85        46.97506
300.31        48.72734
300.76        50.67273
301.21        52.83604
301.67        55.19606
302.12         57.5555
302.58        59.62514
303.03        61.29517
303.48        62.67363
303.94        64.03708
304.39         65.7003
304.84        67.79466
305.30        70.20995
305.75        72.72904
306.20         75.0387
306.66         77.0446
307.11        78.78192
307.57        80.38921
308.02        81.96339
308.47        83.57778
308.93        85.18567
309.38        86.69924
309.83        88.08377
310.29        89.34818
310.74        90.52032
311.19        91.63079
311.65        92.69412
312.10        93.70247
312.55        94.64307
313.00        95.60331
313.46        96.72649
313.91        98.00269
314.36        99.37959
314.82        100.6247
315.27        101.3767
315.72        101.5555
316.18        101.3215
316.63        100.9124
317.08        100.7651
317.53        101.0012
317.99        101.5089
318.44        102.1591
318.89        102.7017
319.35         103.056
319.80         103.324
320.25        103.5598
320.70        103.8494
321.16        104.2043
321.61        104.5803
322.06        104.9779
322.51        105.4324
322.97        105.9086
323.42        106.4428
323.87         106.905
324.32        107.1038
324.78        107.0025
325.23        106.6975
325.68        106.3535
326.13        106.2628
326.59        106.4832
327.04        106.9898
327.49        107.6281
327.94         108.156
328.39        108.4852
328.85        108.6288
329.30        108.7541
329.75        108.9826
330.20        109.3631
330.66        109.8267
331.11        110.3173
331.56        110.6139
332.01         110.689
332.46        110.6105
332.92        110.5656
333.37        110.9739
333.82        111.8919
334.27        113.2285
334.72        114.6977
335.17        115.7908
335.63        116.3159
336.08        116.4429
336.53        116.4091
336.98        116.6836
337.43        117.3968
337.88        118.4105
338.34        119.4534
338.79        120.1667
339.24         120.406
339.69        120.3105
340.14        120.1312
340.59        120.2482
341.05         120.755
341.50        121.5553
341.95        122.4297
342.40        123.0313
342.85        123.2766
343.30        123.2866
343.75        123.2818
344.20        123.5975
344.66        124.2979
345.11        125.2542
345.56        126.2666
346.01        126.9994
346.46         127.358
346.91        127.4715
347.36        127.4666
347.81        127.5347
348.26        127.7442
348.72        128.0293
349.17        128.3726
349.62         128.824
350.07        129.3374
350.52        129.8673
350.97        130.2742
351.42        130.3201
351.87        129.9778
352.32        129.3782
352.77        128.6066
353.22        127.8014
353.67        127.0472
354.13        126.3356
354.58         125.799
355.03        125.7568
355.48        126.2152
355.93        127.0959
356.38        127.9634
356.83        128.0827
357.28         127.305
357.73        125.8562
358.18        124.2766
358.63        123.3772
359.08        123.3133
359.53        123.8244
359.98        124.4646
360.43        124.4947
360.88        123.7148
361.33        122.3865
361.78         120.869
362.23        119.6572
362.68        118.8788
363.13        118.3823
363.58        117.9516
364.03        117.2718
364.48        116.2639
364.93        115.0276
365.38        113.8014
365.83        112.9201
366.28        112.4356
366.73        112.2476
367.18        112.0218
367.63        111.2366
368.08        109.8262
368.53        107.9984
368.98        106.2059
369.43        105.1009
369.88        104.7977
370.33        105.0826
370.78        105.5595
371.23        105.5371
371.68        104.8142
372.13        103.6276
372.58        102.2812
373.03        101.2218
373.48        100.5612
373.93        100.1216
374.38        99.79356
374.83         99.4228
375.28        98.94292
375.72        98.41801
376.17        97.83293
376.62        97.08013
377.07         96.1686
377.52        95.12202
377.97        94.09615
378.42        93.34936
378.87        92.92749
379.32        92.75163
379.77        92.64901
380.22        92.34262
380.67        91.76833
381.11        91.02176
381.56        90.22145
382.01        89.58879
382.46        89.19411
382.91        88.96004
383.36        88.81618
383.81        88.65793
384.26        88.43728
384.71        88.18201
385.15        87.87379
385.60        87.53072
386.05        87.14775
386.50        86.72856
386.95        86.28556
387.40        85.85184
387.85        85.44173
388.29        84.99692
388.74        84.63514
389.19        84.32378
389.64        84.04557
390.09        83.78172
390.54        83.47913
390.98        83.03965
391.43        82.52031
391.88        81.95001
392.33        81.38915
392.78        80.94907
393.23        80.65433
393.67        80.35068
394.12        80.09321
394.57        80.04884
395.02        80.08363
395.47        79.65285
395.91        78.92549
396.36        78.64553
396.81        78.86974
397.26        79.23067
397.71         79.4934
398.15        79.44092
398.60        79.11089
399.05        78.43785
399.50        77.70245
399.95        77.50219
400.39        77.81004
400.84        77.96925
401.29        77.82566
401.74        77.57896
402.18        77.19684
402.63        76.48115
403.08        75.65207
403.53        75.14127
403.97        75.00227
404.42        75.10279
404.87        75.31212
405.32        75.38953
405.76        75.25305
406.21        75.14742
406.66        75.04932
407.11        74.60882
407.55        74.03137
408.00        73.96972
408.45        74.36996
408.90        74.62617
409.34        74.53969
409.79        74.05904
410.24        73.35775
410.68        72.96192
411.13        72.93721
411.58        72.93992
412.03        72.92233
412.47        72.98207
412.92        73.06581
413.37        73.15971
413.81        73.21056
414.26        73.20114
414.71        73.11004
415.15        72.95905
415.60        72.78419
416.05        72.71219
416.49        72.77235
416.94        72.91827
417.39        73.08184
417.83        73.13963
418.28        73.06463
418.73        72.90169
419.17        72.69328
419.62        72.51248
420.07        72.38174
420.51        72.26311
420.96        72.20475
421.41        72.17078
421.85        72.12582
422.30        72.22718
422.74        72.39391
423.19        72.31206
423.64        72.04922
424.08        72.23878
424.53        72.80685
424.98        72.75345
425.42        72.73129
425.87        72.55013
426.31        72.52717
426.76        72.20588
427.21        71.79484
427.65        72.42937
428.10         73.6468
428.54        73.54111
428.99        72.38297
429.44        71.61976
429.88        71.51992
430.33        72.42194
430.77        73.71807
431.22        73.67041
431.66        72.44654
432.11        71.70545
432.56        71.61792
433.00        72.01488
433.45        72.79089
433.89        72.18589
434.34        71.41653
434.78        73.10271
435.23        72.48687
435.67        72.77408
436.12        72.57518
436.57        73.00664
437.01        73.88463
437.46         74.2341
437.90        74.03999
438.35        73.50887
438.79        73.43233
439.24        73.09192
439.68        72.78726
440.13        72.86601
440.57        73.32729
441.02        73.66692
441.46        73.75318
441.91        74.21228
442.35         74.8692
442.80        74.23563
443.24        74.26019
443.69        74.05379
444.13        74.18359
444.58        74.18642
445.02        74.03033
445.47        74.07656
445.91        74.36116
446.36        74.52854
446.80        74.47884
447.24        75.55869
447.69        75.47044
448.13        75.65201
448.58        75.50176
449.02        75.37518
449.47        75.33576
449.91        75.24763
450.36        75.17554
450.80        75.19636
451.25         75.2797
451.69        75.25144
452.13        75.09579
452.58        74.88513
453.02        74.66271
453.47        74.46021
453.91        74.24122
454.36        74.19558
454.80          74.343
455.24        73.88318
455.69        73.52153
456.13         74.0419
456.58        73.52076
457.02         73.3481
457.46        73.05645
457.91         73.3996
458.35        74.12611
458.79        74.19475
459.24         73.5808
459.68        72.95811
460.13        72.62742
460.57         71.5769
461.01        71.95494
461.46        71.84968
461.90         71.8875
462.34         72.3146
462.79        71.62732
463.23         71.6692
463.68        71.90424
464.12        72.06002
464.56        72.02433
465.01        71.70367
465.45        71.40531
465.89        71.29739
466.34        71.33713
466.78         71.6284
467.22        70.97051
467.67        70.79901
468.11        70.92905
468.55        70.97814
468.99        70.93835
469.44        70.87091
469.88        70.79403
470.32        70.67123
470.77        70.53214
471.21        70.47531
471.65        70.49676
472.10        70.47263
472.54        70.55217
472.98         70.4959
473.42        70.33083
473.87        70.27521
474.31        70.26533
474.75        69.82702
475.20         69.1834
475.64        69.34993
476.08         70.1328
476.52        70.33018
476.97        69.83667
477.41        69.83723
477.85        68.79353
478.29        69.55862
478.74        69.53755
479.18        69.80915
479.62        68.84087
480.06        68.68416
480.50        69.09654
480.95        68.43748
481.39        69.08547
481.83        68.29746
482.27        68.73959
482.72        68.64189
483.16        68.59665
483.60        68.71709
484.04        68.93963
484.48        68.96213
484.93         69.0682
485.37        69.72507
485.81        69.44005
486.25        70.78251
486.69        70.39372
487.14        68.22324
487.58        67.24078
488.02        69.39145
488.46        68.51553
488.90        68.01043
489.34         68.5526
489.79        68.82788
490.23        68.31105
490.67        68.20488
491.11        68.21728
491.55        68.25111
491.99        68.24451
492.43        68.18916
492.88        68.09337
493.32        68.01109
493.76        67.95905
494.20        67.95292
494.64        67.98901
495.08        68.01907
495.52        68.05756
495.96        68.11164
496.41        68.12006
496.85        68.15558
497.29        68.13451
497.73        67.54747
498.17        67.27639
498.61        66.99547
499.05        67.00547
499.49        67.17384
499.93        67.41726
500.37        67.55799
500.82        67.57204
501.26        67.65004
501.70        67.77906
502.14        67.80123
502.58        67.71112
503.02        67.60732
503.46        67.50627
503.90        67.37173
504.34         67.2745
504.78        67.31684
505.22        67.49705
505.66        67.85247
506.10        68.25259
506.54        68.29514
506.98        67.89805
507.42        67.81347
507.86        67.08248
508.30        66.84805
508.74        66.83759
509.18        67.03884
509.62        67.34783
510.06        67.43066
510.50        67.52919
510.94        67.45467
511.38        67.34219
511.82        67.25842
512.26        67.22737
512.70        67.20968
513.14        67.18887
513.58        67.15594
514.02        67.10511
514.46        67.05156
514.90        66.98965
515.34        66.90421
515.78        66.79958
516.22        66.68329
516.66        66.58458
517.10        66.54787
517.54        66.57998
517.98        66.66653
518.42        66.77419
518.86        66.84591
519.30        66.86598
519.74        66.84943
520.18        66.81586
520.62        66.80103
521.06        66.80994
521.50        66.81841
521.93        66.82314
522.37        66.81033
522.81         66.7804
523.25        66.75124
523.69        66.69198
524.13        66.54939
524.57        66.33212
525.01        66.06567
525.45        65.84284
525.89        65.80881
526.32        65.98071
526.76        66.29964
527.20        66.65467
527.64        66.86768
528.08        66.88773
528.52         66.7757
528.96        66.58125
529.40        66.38457
529.83        66.21887
530.27        66.07972
530.71        65.99779
531.15         66.0391
531.59        66.20397
532.03        66.46665
532.46        66.74387
532.90        66.91728
533.34        66.95133
533.78        66.82629
534.22        66.59511
534.66        66.45999
535.09        66.38816
535.53        66.12371
535.97        65.72532
536.41        65.52072
536.85        65.53607
537.28        65.61232
537.72        65.70713
538.16        65.80733
538.60         65.8849
539.04        65.93375
539.47        65.95679
539.91        65.99964
540.35        66.05016
540.79        66.11883
541.22        66.18227
541.66        66.11362
542.10         66.0784
542.54         65.9593
542.97        65.83715
543.41        65.79082
543.85         65.8221
544.29        65.90775
544.72        66.00008
545.16        66.05972
545.60        66.05853
546.04        66.00954
546.47        65.92802
546.91        65.85208
547.35        65.80116
547.79        65.74596
548.22        65.65283
548.66        65.61083
549.10         65.6223
549.53        65.37836
549.97        65.45683
550.41        65.46455
550.84        65.57121
551.28        65.70427
551.72        65.84229
552.15        66.01693
552.59        66.15745
553.03        66.13521
553.46        65.78089
553.90        65.70488
554.34         65.8684
554.77        65.93953
555.21        65.82539
555.65        66.19505
556.08        65.78851
556.52         65.6576
556.96        65.47116
557.39        65.33537
557.83        65.31965
558.27        65.27788
558.70        65.21791
559.14        65.45047
559.57        65.37926
560.01        65.58865
560.45        65.74107
560.88        65.64237
561.32        65.38974
561.75        65.04311
562.19        64.79265
562.63        65.13799
563.06        65.85706
563.50        65.78652
563.93        65.03419
564.37        64.83833
564.80         65.1918
565.24        65.38509
565.68        65.34883
566.11        65.34083
566.55        65.37826
566.98        65.32168
567.42        65.25545
567.85        65.32619
568.29        65.53729
568.72        65.67727
569.16        65.79542
569.60        65.84947
570.03         65.7624
570.47        65.77023
570.90        66.21342
571.34        65.20521
571.77        65.63425
572.21        65.71561
572.64        65.64877
573.08        65.51634
573.51        65.56223
573.95        65.98669
574.38        65.66812
574.82        66.01628
575.25        66.24703
575.69        66.60114
576.12        65.98569
576.56        65.80691
576.99        66.29073
577.42        66.01795
577.86        66.04996
578.29        66.29577
578.73          67.258
579.16        66.21107
579.60        65.34811
580.03        65.19206
580.47        65.91006
580.90        65.26243
581.33         66.1732
581.77        66.34068
582.20        66.85097
582.64          66.641
583.07        66.63351
583.51        66.09595
583.94        65.57619
584.37        65.59132
584.81         66.2057
585.24        66.37144
585.68        65.96223
586.11        66.30323
586.54        66.10227
586.98        65.32513
587.41        65.05373
587.85        65.70845
588.28        66.32497
588.71        64.84449
589.15        65.78995
589.58        65.05951
590.01        65.01311
590.45        65.07621
590.88        65.46399
591.31        65.50963
591.75        65.12239
592.18        64.97926
592.61         65.0509
593.05        65.07969
593.48         64.9128
593.91        65.50885
594.35        65.01565
594.78        64.88246
595.21        64.56606
595.65        64.96799
596.08        65.32429
596.51        64.93207
596.94        64.68858
597.38        64.48532
597.81        64.71677
598.24        64.53749
598.68         65.2095
599.11        64.55218
599.54        65.46935
599.97        65.51012
600.41        64.97064
600.84        65.09198
601.27        65.07417
601.70        65.52959
602.14         65.6469
602.57        65.33097
603.00        64.64266
603.43        64.37762
603.87        64.95712
604.30        65.15114
604.73        64.76711
605.16        64.50915
605.60        64.34022
606.03        64.65283
606.46        65.17209
606.89        65.01712
607.32        64.41528
607.76        64.17079
608.19         64.4054
608.62        64.95184
609.05        64.81514
609.48        65.03674
609.92        64.34508
610.35        63.81292
610.78         65.0405
611.21        65.11612
611.64        64.56491
612.07        64.95987
612.50        65.23015
612.94        65.13501
613.37        64.80259
613.80        64.71047
614.23        64.30596
614.66        64.56661
615.09        64.27432
615.52        64.37386
615.96        64.48739
616.39        64.64002
616.82        64.44233
617.25        64.58086
617.68        64.86908
618.11        64.81681
618.54        64.45187
618.97         64.2211
619.40        64.24472
619.84        64.18738
620.27        64.03786
620.70        64.45759
621.13        65.38241
621.56        64.28409
621.99        64.20359
622.42        64.12489
622.85        64.37414
623.28        64.47239
623.71        63.96538
624.14        64.67317
624.57        64.38882
625.00         64.5558
625.43        64.52975
625.86        64.47935
626.29        64.39536
626.72         64.1501
627.15        64.16983
627.58        63.93619
628.01        63.60247
628.44        63.92744
628.87        64.02117
629.30        64.03707
629.73           63.77
630.16        63.70961
630.59        63.86098
631.02        63.95901
631.45        63.97349
631.88        63.96484
632.31        63.92774
632.74        63.84396
633.17        63.74653
633.60         63.6958
634.03        63.71289
634.46        63.75882
634.89         63.7956
635.32        63.84603
635.75         63.9146
636.18        63.65651
636.61        63.71587
637.04        63.62413
637.47        63.58411
637.89        63.55941
638.32        63.52402
638.75        63.52565
639.18        63.56818
639.61         63.3876
640.04        63.46855
640.47           63.44
640.90        63.44656
641.33        63.46102
641.76        63.45686
642.18        63.47952
642.61        63.52431
643.04        63.44532
643.47        63.20546
643.90        63.64001
644.33        63.38319
644.76        63.43791
645.18        63.42447
645.61        63.62601
646.04        63.93368
646.47        63.84266
646.90        63.44775
647.33         63.3293
647.75        63.51908
648.18        63.68354
648.61        63.77673
649.04        63.79951
649.47         63.7195
649.89        63.74158
650.32        63.80836
650.75        63.40358
651.18        62.73595
651.61        62.85442
652.03        63.68242
652.46        63.84978
652.89        63.30141
653.32        63.32748
653.74        64.05496
654.17        63.31813
654.60        63.32365
655.03        63.75444
655.46        63.08323
655.88        63.95509
656.31        69.34144
656.74        69.70469
657.16        65.24541
657.59         63.1406
658.02         63.6884
658.45         63.6602
658.87        63.84012
659.30        62.87401
659.73        62.88001
660.15        63.63367
660.58        63.38449
661.01         63.2705
661.44         62.7597
661.86        62.86225
662.29        63.46317
662.72        63.65945
663.14        63.45328
663.57        63.43267
664.00        63.61785
664.42        63.65465
664.85        63.54639
665.27        63.42135
665.70        63.31754
666.13        63.25986
666.55        63.26999
666.98        63.31984
667.41        63.39898
667.83        63.49902
668.26        63.59222
668.69        63.67584
669.11        63.73972
669.54        63.79343
669.96        63.82589
670.39        63.77643
670.82        63.67902
671.24        63.62495
671.67        63.63339
672.09        63.67229
672.52        63.72143
672.94        63.70127
673.37        63.60664
673.80        63.46612
674.22        63.33103
674.65        63.24692
675.07        63.24654
675.50        63.30056
675.92        63.38179
676.35        63.43761
676.77        63.45398
677.20        63.43776
677.62        63.40862
678.05        63.38455
678.47        63.37372
678.90        63.37923
679.32         63.3806
679.75        63.36973
680.17        63.33718
680.60        63.28399
681.02        63.24422
681.45        63.25075
681.87        63.31784
682.30        63.44586
682.72        63.58032
683.15        63.54852
683.57        63.36536
684.00        63.18113
684.42         63.0614
684.85        63.01906
685.27        63.05865
685.70         63.2128
686.12          63.398
686.54        63.45357
686.97        63.34161
687.39        63.19565
687.82        63.04582
688.24          62.793
688.66        62.54745
689.09        62.68224
689.51        63.12999
689.94        63.36282
690.36         63.3356
690.78        63.35219
691.21        63.47024
691.63        63.55146
692.06         63.6651
692.48        64.09222
692.90        64.67754
693.33         64.9065
693.75        64.72343
694.17         64.3105
694.60        63.85975
695.02        63.65229
695.44        63.69823
695.87        63.81379
696.29         63.9105
696.71        63.75517
697.14        63.46437
697.56        63.62057
697.98        64.14625
698.41        64.38501
698.83        64.29578
699.25        64.25502
699.68        64.26704
700.10        64.22876
700.52        64.14402
700.94        64.00067
701.37         63.8541
701.79        63.91084
702.21        64.11577
702.64        64.26508
703.06        64.30973
703.48        64.23893
703.90        64.02506
704.33         64.0616
704.75        63.61455
705.17        63.51769
705.59        63.56852
706.01        63.72591
706.44        63.93997
706.86        64.16577
707.28        64.36182
707.70        64.53487
708.12        64.66416
708.55         64.7056
708.97        64.65508
709.39        64.53103
709.81        64.37899
710.23         64.2889
710.66        64.28649
711.08        64.35938
711.50        64.46645
711.92        64.55282
712.34        64.59982
712.76        64.62689
713.19         64.6165
713.61        64.58662
714.03        64.52527
714.45        64.42915
714.87        64.34052
715.29        64.32533
715.71        64.39263
716.13        64.52894
716.56        64.65422
716.98        64.71154
717.40        64.65198
717.82        64.50338
718.24        64.34018
718.66        64.28282
719.08        64.35492
719.50        64.51337
719.92        64.68684
720.34        64.75976
720.76        64.70292
721.19          64.561
721.61        64.38488
722.03        64.24477
722.45        64.17537
722.87        64.16386
723.29        64.20995
723.71        64.31575
724.13        64.46507
724.55        64.63477
724.97        64.81628
725.39        64.99439
725.81        65.15157
726.23        65.29352
726.65        65.34557
727.07        65.19383
727.49        64.84406
727.91        64.34888
728.33        63.88041
728.75        63.70893
729.17        63.88757
729.59        64.33167
730.01         64.8736
730.43        65.21828
730.85        65.27427
731.27        65.13464
731.69        64.88785
732.10        64.67537
732.52        64.55434
732.94        64.46961
733.36        64.44025
733.78        64.50025
734.20        64.63209
734.62        64.85466
735.04        65.09723
735.46        65.14088
735.88         65.0171
736.30        64.99976
736.72        65.04665
737.13        64.97109
737.55        64.76945
737.97        64.38997
738.39        64.02859
738.81        64.39616
739.23        65.32466
739.65        65.62991
740.06         65.2495
740.48        65.17815
740.90        65.39558
741.32        65.33306
741.74        64.98484
742.16        64.69102
742.57         64.5058
742.99        64.30646
743.41        64.17551
743.83         64.2895
744.25        64.61279
744.67        64.96996
745.08        65.25996
745.50        65.36607
745.92        65.25694
746.34        64.92799
746.75        64.49633
747.17        64.15034
747.59        63.92111
748.01         63.8923
748.42        64.09732
748.84        63.82444
749.26         64.2132
749.68         64.3488
750.09        64.51979
750.51        64.62282
750.93        64.64387
751.35        64.58512
751.76        64.49346
752.18        64.47781
752.60        64.56595
753.01        64.74516
753.43        64.94646
753.85        65.09644
754.27        65.17268
754.68        65.19739
755.10        65.21774
755.52        65.30035
755.93        65.44682
756.35        65.62451
756.77        65.78317
757.18         65.8007
757.60        65.66271
758.02        65.53642
758.43        65.41668
758.85         65.0819
759.26         64.7152
759.68         64.8397
760.10        65.31403
760.51        65.66787
760.93        65.90315
761.34        64.89933
761.76        65.42202
762.18        65.20627
762.59        65.09586
763.01        64.98853
763.42        64.97995
763.84        65.05401
764.26          65.202
764.67        65.40726
765.09        65.61057
765.50        65.62739
765.92        65.47421
766.33        65.22079
766.75        64.92357
767.16        64.84201
767.58          64.984
768.00        65.27713
768.41         65.6825
768.83        66.10664
769.24        66.47287
769.66        66.77982
770.07        66.95453
770.49        66.76034
770.90        66.31502
771.32        66.13573
771.73        66.23463
772.15        66.15599
772.56        65.91544
772.97        65.82223
773.39        65.87491
773.80        65.96093
774.22        66.03747
774.63        66.17503
775.05         66.3162
775.46        66.43781
775.88        66.49655
776.29        66.50842
776.70         66.4839
777.12        66.47348
777.53        66.50413
777.95        66.54208
778.36         66.5615
778.77         66.4939
779.19        66.34053
779.60        66.14836
780.02         65.9649
780.43        65.88189
780.84        65.94965
781.26        66.04962
781.67        66.16499
782.09        66.53632
782.50        66.96843
782.91        66.70422
783.33        65.94518
783.74        65.74778
784.15        66.20883
784.57        66.72879
784.98        67.19449
785.39        67.62668
785.81        67.95438
786.22        67.96445
786.63        68.06489
787.04         67.9632
787.46        67.83296
787.87         67.6263
788.28        67.44422
788.70        67.41483
789.11         67.5257
789.52        67.76128
789.93        68.01798
790.35        68.09451
790.76         67.9845
791.17        67.77964
791.58        67.52205
792.00        67.29517
792.41         67.1609
792.82        66.90799
793.23        66.62338
793.65        66.95413
794.06         67.6834
794.47        67.59598
794.88        66.87325
795.29        66.71513
795.71        67.09689
796.12        67.45216
796.53        67.62455
796.94        67.67757
797.35        67.56013
797.76        67.27097
798.18        66.96984
798.59        66.86822
799.00        67.02309
799.41        67.36907
799.82        67.80196
800.23        68.13519
800.64        68.29838
801.06        68.32509
801.47        68.26677
801.88        68.11922
802.29        67.91244
802.70        67.64465
803.11        67.38747
803.52         67.2599
803.93        67.29396
804.34        67.46628
804.75        67.71499
805.17        67.94498
805.58        68.15521
805.99        68.21667
806.40        68.15404
806.81        68.31101
807.22        68.56799
807.63        68.24449
808.04        67.49805
808.45        67.20554
808.86        67.45303
809.27        67.78325
809.68        68.07643
810.09        68.31406
810.50        68.43326
810.91        68.45123
811.32        68.37689
811.73        68.22758
812.14         68.0341
812.55        67.79321
812.96        67.60925
813.37         67.6604
813.78        67.97109
814.19        68.47938
814.60        69.02847
815.01         69.3762
815.42        69.45882
815.83        69.33148
816.24        69.07023
816.65        68.83662
817.05         68.7056
817.46        68.61323
817.87        68.55992
818.28        68.50043
818.69        68.41811
819.10        68.33881
819.51        68.27865
819.92        68.25245
820.33        68.26362
820.74        68.29919
821.14         68.3274
821.55        68.33419
821.96        68.30489
822.37        68.25828
822.78        68.22486
823.19         68.2548
823.60        68.36863
824.00         68.5727
824.41        68.80728
824.82        69.07938
825.23          69.358
825.64        69.60659
826.04         69.8259
826.45         69.9466
826.86        69.97885
827.27         69.9574
827.68        69.80666
828.08         69.4259
828.49         68.7998
828.90        67.98441
829.31        67.25497
829.72        67.03699
830.12        67.44643
830.53        68.35276
830.94        69.38245
831.35        69.80573
831.75         69.4454
832.16        68.46913
832.57        67.40337
832.97        67.05068
833.38        67.56822
833.79        68.69401
834.20         69.9759
834.60        70.64326
835.01        70.44707
835.42        69.67506
835.82        68.65567
836.23        67.88132
836.64        67.51775
837.04        67.41698
837.45         67.4896
837.86        67.65441
838.26        67.86419
838.67        68.14419
839.08        68.42381
839.48        68.53673
839.89        68.44311
840.29        68.16901
840.70        67.85503
841.11        67.70965
841.51        67.79321
841.92         68.0161
842.33        68.30483
842.73        68.53956
843.14        68.62918
843.54        68.66853
843.95        68.63319
844.35         68.5571
844.76        68.43851
845.17        68.26434
845.57        68.11819
845.98        68.12263
846.38        68.30927
846.79        68.63165
847.19        68.96226
847.60        68.99689
848.00        68.69949
848.41        68.15215
848.81        67.57053
849.22        67.26804
849.62        67.33483
850.03        67.64501
850.43        68.07638
850.84        68.27785
851.24        68.21291
851.65          67.966
852.05        67.68424
852.46        67.56499
852.86        67.64804
853.27        67.84697
853.67        68.10611
854.07        68.53072
854.48        69.04941
854.88        69.74895
855.29        70.29401
855.69        70.29694
856.10        69.56368
856.50        68.32345
856.90        67.02048
857.31        66.30077
857.71         66.2967
858.12        66.78664
858.52        67.55089
858.92        67.96246
859.33        67.79785
859.73        67.29472
860.13        66.59014
860.54        65.92268
860.94        65.39838
861.34        64.92584
861.75        64.58009
862.15        64.55127
862.55          64.839
862.96        65.38757
863.36        66.02576
863.76        66.37065
864.17        66.32978
864.57        66.02094
864.97        65.60339
865.38        65.36428
865.78        65.41299
866.18        65.62593
866.58         65.9333
866.99        66.21128
867.39        66.42234
867.79        66.60706
868.19        66.67756
868.60        66.46708
869.00        65.96603
869.40        65.21274
869.80        64.46268
870.21        64.19707
870.61        64.57767
871.01        65.39884
871.41        66.27987
871.81        66.63714
872.22        66.33715
872.62        65.57579
873.02        64.62189
873.42        63.92168
873.82        63.64518
874.22        63.67832
874.63        63.93058
875.03        64.25852
875.43        64.59188
875.83        64.96034
876.23        65.37502
876.63        65.84182
877.03        66.33485
877.44        66.79727
877.84        67.13451
878.24        67.16349
878.64        66.86826
879.04        66.33006
879.44         65.7374
879.84        65.37051
880.24        65.29324
880.64        65.42829
881.04        65.66734
881.44        65.81773
881.84        65.82371
882.24        65.76105
882.65        65.62734
883.05        65.52128
883.45        65.44559
883.85        65.36787
884.25        65.37108
884.65        65.59065
885.05        66.03505
885.45        66.66889
885.85         67.3204
886.25        67.68613
886.65        67.67548
887.05        67.35422
887.45        66.91679
887.85         66.6774
888.25        66.72099
888.65        66.97443
889.04        67.25443
889.44        67.24112
889.84        66.87995
890.24        66.26491
890.64         65.6461
891.04        65.37156
891.44        65.50704
891.84        65.97755
892.24         66.4719
892.64        66.46619
893.04        65.87032
893.44        64.86266
893.83        63.90446
894.23        63.70202
894.63        64.35289
895.03        65.62247
895.43        67.02026
895.83        67.64909
896.23        67.26798
896.63         66.2329
897.02        64.93687
897.42        64.03323
897.82        63.64341
898.22        63.61129
898.62        63.88645
899.01        64.41644
899.41         65.0857
899.81        65.93701
900.21        66.88033
900.61        67.73721
901.00        68.40995
901.40        68.84562
901.80        69.01354
902.20        68.92138
902.59         68.6059
902.99        68.09333
903.39        67.47218
903.79        66.88204
904.18        66.37907
904.58        65.98771
904.98        65.72637
905.38        65.60379
905.77        65.60912
906.17         65.7737
906.57        65.99262
906.96        66.10517
907.36        66.06022
907.76        65.88593
908.15        65.76694
908.55        65.97012
908.95        66.54788
909.34         67.4066
909.74        68.24171
910.14        68.64261
910.53         68.4935
910.93        67.91837
911.33        67.16805
911.72        66.63566
912.12        66.45665
912.52        66.52562
912.91        66.65455
913.31        66.52547
913.70        66.08408
914.10        65.46885
914.49        64.90974
914.89        64.72498
915.29        64.98725
915.68        65.57103
916.08        66.28945
916.47        66.84882
916.87        67.13683
917.26        67.23249
917.66        67.20448
918.05        67.16628
918.45        67.15067
918.84        67.13979
919.24        67.12624
919.64        67.17676
920.03        67.31709
920.42        67.53722
920.82        67.77375
921.21        67.94614
921.61        68.00096
922.00        67.94336
922.40        67.82121
922.79        67.79541
923.19        67.86907
923.58        67.99215
923.98        67.99918
924.37        67.59501
924.77        66.79607
925.16        65.72298
925.55        64.65574
925.95        64.05529
926.34        64.09224
926.74        64.58643
927.13        65.45572
927.52        66.46046
927.92        67.44357
928.31        68.44173
928.70         69.2468
929.10        69.55507
929.49        69.33534
929.89        68.64845
930.28        67.74877
930.67        67.05196
931.07        66.68761
931.46        66.55231
931.85        66.59869
932.24        66.71655
932.64        66.84458
933.03        67.09418
933.42         67.2692
933.82        67.06837
934.21        66.47448
934.60        65.53786
934.99        64.70651
935.39        64.65682
935.78        65.54102
936.17        67.21959
936.56        69.05068
936.96        69.82532
937.35        69.25092
937.74        67.65242
938.13        65.87815
938.53        65.08134
938.92          65.445
939.31        66.67779
939.70        68.14613
940.09        68.69308
940.49        68.01089
940.88        66.53364
941.27        64.93748
941.66        64.20767
942.05        64.57787
942.44        65.73472
942.84        67.20917
943.23        68.21273
943.62        68.39175
944.01        68.00928
944.40        67.33951
944.79        66.81308
945.18        66.58006
945.57        66.46739
945.97        66.41666
946.36        66.46104
946.75        66.53902
947.14        66.69245
947.53        66.81986
947.92        66.70569
948.31        66.32204
948.70        65.75475
949.09        65.17289
949.48        64.82904
949.87        64.80317
950.26        65.04789
950.65        65.50062
951.04        66.03974
951.43         66.5729
951.82        67.05618
952.21        67.49226
952.60        67.91891
952.99        68.30357
953.38        68.59708
953.77        68.61913
954.16         68.0783
954.55        66.99986
954.94         65.6126
955.33          64.223
955.72         63.2729
956.11        62.88149
956.50        62.87653
956.89        63.26211
957.28        64.03259
957.66         65.1288
958.05          66.446
958.44         67.5149
958.83        67.44881
959.22        66.12846
959.61        63.92426
960.00        61.62082
960.39        60.33266
960.78        60.29978
961.16        61.23612
961.55        62.70667
961.94        64.05723
962.33        64.99445
962.72         65.6823
963.11        66.07177
963.49         66.1027
963.88        65.75961
964.27        65.05566
964.66        64.18661
965.04        63.45631
965.43        62.92549
965.82         62.5547
966.21        62.31186
966.60        62.10076
966.98        61.90887
967.37        61.78349
967.76        61.71107
968.15         61.6371
968.53        61.55141
968.92        61.41937
969.31        61.32259
969.69         61.4165
970.08        61.68835
970.47        62.10486
970.86        62.48598
971.24        62.52709
971.63        62.11856
972.02        61.39614
972.40         60.6094
972.79        60.15916
973.17        60.16372
973.56         60.5108
973.95        61.01381
974.33        61.39114
974.72        61.50686
975.11        61.37736
975.49        61.25971
975.88        61.61293
976.26        62.58279
976.65        63.97602
977.04        65.15678
977.42        65.10332
977.81        63.66952
978.19        61.18876
978.58        58.88799
978.96        58.36635
979.35        59.91869
979.74         63.1787
980.12        67.12364
980.51         69.1135
980.89        68.44897
981.28        65.73668
981.66        62.32454
982.05        60.49573
982.43        60.83715
982.82        62.65921
983.20        65.28244
983.59        67.36996
983.97        68.50407
984.35        69.04086
984.74        68.98461
985.12        68.45646
985.51        67.55551
985.89        66.16692
986.28        64.71598
986.66        63.77524
987.04        63.59381
987.43        64.05874
987.81        64.82378
988.20         65.0603
988.58        64.59782
988.96        63.55196
989.35        62.44762
989.73          62.097
990.12        62.62756
990.50        63.83746
990.88        65.00573
991.27        64.98902
991.65        63.65542
992.03        61.43415
992.42        59.21547
992.80        58.12132
993.18        58.52703
993.56         60.0092
993.95        61.98262
994.33        63.70802
994.71        64.66814
995.10        65.12792
995.48        65.02482
995.86        64.28115
996.24        63.03805
996.63        61.30328
997.01        59.60189
997.39        58.70814
997.77        58.75687
998.15         59.6331
998.54        60.82766
998.92        61.33579
999.30        60.87358
999.68        59.71923
1000.06        58.44299
1000.45        58.01936
1000.83        58.84299
1001.21        60.51842
1001.59        62.54291
1001.97        64.06118
1002.35        64.73419
1002.73        64.79801
1003.12         64.4303
1003.50        63.87824
1003.88        63.35094
1004.26        62.82362
1004.64        62.39009
1005.02        62.18819
1005.40        62.25666
1005.78        62.59846
1006.16        63.23919
1006.54         64.1523
1006.92        65.22044
1007.30        66.32658
1007.69        67.18378
1008.07        67.60655
1008.45         67.4556
1008.83        66.84682
1009.21        65.87968
1009.59         64.7426
1009.97        63.58896
1010.35        62.42929
1010.73        61.60525
1011.11        61.65416
1011.49        62.75619
1011.86         65.0542
1012.24        67.81619
1012.62        70.03183
1013.00        71.25567
1013.38        71.45456
1013.76        71.36036
1014.14        72.47792
1014.52         75.1216
1014.90        78.81366
1015.28        81.93478
1015.66        81.70451
1016.04        77.97777
1016.41        72.40381
1016.79         67.0782
1017.17        63.69698
1017.55         62.2343
1017.93        62.05933
1018.31        62.79936
1018.69        63.32456
1019.06        63.02018
1019.44        62.48469
1019.82        61.85104
1020.20        61.04797
1020.58        60.06985
1020.95        58.68441
1021.33        57.28831
1021.71        56.83503
1022.09        57.80123
1022.46        59.81507
1022.84        62.28701
1023.22        64.61225
1023.60         66.5245
1023.97        68.27487
1024.35        69.06712
1024.73        67.63794
