SpectraSmart Spectrum 2.9.0.0
--------- Device Information -----------
Spectrum Name :  反射率_0
Saving Time :  2024/05/01 16:02:14
Spectro-Module Model Name : SE2030-DUVN
Spectro-Module Serial Number : OS361AC55029948
Wavelength Start : 200
Wavelength End : 1025
Wavelength Unit : Wavelength(nm)
Spectrum Unit : Reflectance(%)
-----------Spectrum Setting ------------
Integration Time : 20ms
Average : 10
Boxcar : 0
Background removal :  enabled
linearity correction :  enabled
SC :  disabled
Intensity correction :  disabled
DWT denoise :  enabled
savitzky-golay :  disabled
FFT :  disabled
Running average :  disabled
Kalman :  disabled
High pass :  disabled
---------------BEGIN--------------------
Wavelength(nm)             Reflectance(%)
200.29               0
200.75        105.9537
201.21        502.2284
201.67       -211.2491
202.13       -68.81662
202.58       -18.92291
203.04        12.38573
203.50        32.52802
203.96        42.47972
204.42        45.35596
204.88        40.06378
205.34       -127.4696
205.80        58.21377
206.26        25.04704
206.72       -32.16178
207.18       -311.2987
207.64         480.997
208.10         198.934
208.55        128.4168
209.01        92.42905
209.47        72.08703
209.93        60.13917
210.39        50.32988
210.85        43.23621
211.31        41.60025
211.77        53.25455
212.23       -85.37225
212.69       -1.673476
213.14        13.83916
213.60        49.67889
214.06       -310.7294
214.52       -58.20602
214.98       -38.75195
215.44       -29.07974
215.90       -14.03284
216.36        188.2323
216.81       -134.9086
217.27       -191.1476
217.73        357.9083
218.19        53.93254
218.65         19.5715
219.11       -1.277441
219.57       -44.21801
220.02       -219.9156
220.48        -130.763
220.94       -38.53912
221.40       -12.24781
221.86       -1.337182
222.32        5.244838
222.77        11.60108
223.23        19.82735
223.69        30.00875
224.15        35.68567
224.61        33.58639
225.06        28.07513
225.52        23.82071
225.98        22.61991
226.44        23.98619
226.90        27.29869
227.36        31.62318
227.81        33.04875
228.27        30.36895
228.73        26.46873
229.19         23.1356
229.65        20.88975
230.10        19.38816
230.56         18.3576
231.02        18.01127
231.48        19.05176
231.93        21.27043
232.39        23.92958
232.85         26.4681
233.31        28.58174
233.77        30.27498
234.22        31.70917
234.68        32.71912
235.14        33.27375
235.60        33.45359
236.05        33.22914
236.51        32.96044
236.97        33.76751
237.43        36.22857
237.88        40.00055
238.34        43.45385
238.80        45.27709
239.26        45.20086
239.71        43.03429
240.17        38.14968
240.63        32.08048
241.08         28.5672
241.54        29.30535
242.00        32.89959
242.46        37.88712
242.91        45.45108
243.37        57.25206
243.83        78.79473
244.28         106.222
244.74        118.5069
245.20         117.269
245.66        110.7494
246.11        102.2109
246.57         90.6161
247.03         71.2941
247.48        39.34838
247.94        1.287627
248.40       -23.73819
248.85       -30.56837
249.31       -18.35774
249.77        3.167434
250.22        24.09691
250.68        42.06082
251.14        54.93782
251.59         62.7365
252.05        67.64332
252.51        70.85615
252.96        73.84307
253.42        83.38273
253.88        95.54119
254.33        95.83948
254.79        91.19215
255.25        85.14951
255.70        78.82472
256.16        73.78409
256.62        70.49221
257.07        69.44872
257.53        70.29537
257.99         71.6524
258.44        72.45562
258.90         72.4016
259.35        71.22183
259.81        69.61301
260.27        67.88058
260.72        66.56367
261.18        65.99658
261.63         65.5546
262.09        65.15448
262.55        64.27258
263.00        62.80411
263.46        61.14707
263.91        59.33467
264.37        57.75478
264.83        56.39591
265.28        55.17958
265.74        54.08013
266.19        52.78319
266.65        51.38329
267.11        49.88383
267.56        48.56386
268.02        47.95231
268.47        48.04427
268.93        48.60808
269.38        49.15418
269.84        48.85465
270.30        47.55581
270.75        45.52607
271.21        43.24821
271.66        41.32146
272.12        39.98909
272.57        39.02248
273.03        38.32161
273.48        37.66586
273.94         37.0087
274.39        36.40823
274.85        35.87078
275.31        35.31612
275.76        34.71395
276.22        34.09418
276.67        33.44842
277.13        32.89569
277.58        32.38757
278.04        31.94356
278.49        31.47896
278.95        30.98607
279.40         30.4267
279.86         29.8733
280.31        29.33346
280.77        28.91068
281.22        28.56392
281.68        28.30836
282.13        28.05605
282.59        27.77341
283.04        27.42446
283.50        27.08134
283.95        26.75993
284.41        26.53944
284.86        26.42639
285.32        26.41045
285.77        26.48993
286.22         26.7061
286.68        27.04951
287.13        27.47852
287.59        27.91052
288.04        28.16134
288.50         28.2195
288.95        28.09983
289.41        27.94803
289.86        27.89662
290.32        28.01529
290.77        28.26223
291.22         28.5791
291.68         28.8613
292.13        29.09607
292.59        29.36827
293.04        29.75849
293.50        30.43392
293.95        31.40844
294.40        32.63615
294.86        34.02101
295.31        35.42014
295.77        36.77309
296.22        38.08796
296.68        39.40392
297.13        40.77144
297.58        42.22625
298.04        43.77178
298.49        45.34963
298.95        46.90943
299.40        48.40853
299.85        49.85931
300.31        51.37014
300.76        53.08681
301.21        55.05008
301.67        57.22797
302.12         59.4017
302.58        61.25394
303.03        62.66846
303.48        63.76095
303.94        64.83449
304.39        66.23262
304.84        68.08503
305.30        70.27273
305.75        72.53099
306.20        74.47805
306.66         76.0229
307.11        77.23723
307.57        78.34257
308.02        79.55654
308.47        80.97054
308.93        82.49695
309.38        83.97199
309.83        85.24003
310.29         86.2775
310.74        87.14677
311.19        87.92928
311.65         88.7205
312.10        89.53468
312.55        90.33204
313.00        91.15916
313.46        92.09797
313.91        93.12561
314.36        94.21284
314.82        95.17635
315.27        95.73043
315.72        95.81569
316.18        95.56868
316.63        95.17392
317.08        94.98229
317.53        95.09382
317.99        95.41647
318.44        95.87481
318.89        96.31256
319.35        96.66895
319.80        97.01408
320.25        97.33224
320.70        97.59743
321.16        97.80133
321.61         97.9428
322.06        98.09497
322.51        98.41122
322.97        98.88985
323.42        99.52088
323.87        100.1365
324.32        100.4793
324.78        100.4823
325.23        100.2635
325.68        99.96581
326.13        99.84377
326.59        99.96134
327.04        100.2987
327.49        100.7725
327.94        101.2648
328.39        101.7158
328.85        102.1058
329.30         102.517
329.75        102.9298
330.20        103.3423
330.66        103.7217
331.11        104.0498
331.56        104.1846
332.01        104.1311
332.46        103.9376
332.92        103.7887
333.37        104.0937
333.82        104.9091
334.27        106.1565
334.72        107.5608
335.17        108.6207
335.63        109.1468
336.08         109.303
336.53        109.3063
336.98        109.5921
337.43        110.2815
337.88         111.237
338.34        112.2189
338.79        112.9206
339.24        113.2057
339.69        113.1909
340.14        113.0764
340.59        113.1625
341.05        113.5304
341.50        114.1218
341.95        114.7682
342.40        115.1994
342.85        115.3687
343.30        115.3878
343.75        115.4714
344.20        115.9445
344.66        116.8552
345.11        118.0558
345.56        119.3368
346.01        120.3461
346.46        120.9614
346.91        121.2985
347.36        121.4228
347.81        121.4401
348.26        121.4277
348.72        121.3717
349.17        121.3623
349.62        121.6194
350.07        122.1418
350.52        122.8281
350.97        123.4917
351.42        123.8058
351.87        123.6955
352.32        123.3155
352.77        122.6892
353.22        121.8654
353.67        120.9292
354.13        119.8931
354.58        119.0247
355.03        118.8511
355.48        119.4212
355.93        120.6104
356.38        121.8394
356.83        122.1219
357.28        121.2525
357.73        119.5394
358.18        117.6845
358.63        116.7398
359.08        116.9081
359.53        117.8464
359.98        118.9674
360.43        119.2902
360.88        118.5481
361.33        117.0889
361.78        115.3845
362.23        114.0995
362.68        113.4025
363.13        113.0715
363.58        112.8468
364.03         112.345
364.48        111.4569
364.93        110.3203
365.38        109.1431
365.83        108.2048
366.28        107.5668
366.73        107.1461
367.18        106.7155
367.63        105.9337
368.08        104.7627
368.53        103.3442
368.98        102.0005
369.43        101.1874
369.88        100.9717
370.33        101.1972
370.78        101.5371
371.23        101.4268
371.68        100.7137
372.13        99.59152
372.58        98.34516
373.03         97.3975
373.48        96.84635
373.93        96.52825
374.38        96.31661
374.83        96.01855
375.28        95.56173
375.72        95.02176
376.17        94.40471
376.62        93.64254
377.07        92.75699
377.52        91.76082
377.97        90.80972
378.42        90.16001
378.87        89.85047
379.32        89.80098
379.77        89.81983
380.22        89.60091
380.67        89.07576
381.11        88.34761
381.56        87.55418
382.01        86.94942
382.46        86.61253
382.91        86.45596
383.36        86.39721
383.81        86.31302
384.26        86.14929
384.71        85.93867
385.15        85.66586
385.60        85.35281
386.05        84.99488
386.50        84.59045
386.95        84.14958
387.40        83.70474
387.85        83.26968
388.29        82.79094
388.74        82.39049
389.19        82.03846
389.64        81.73189
390.09        81.47523
390.54         81.2078
390.98        80.82643
391.43        80.37898
391.88        79.84901
392.33        79.36403
392.78        79.14666
393.23        79.13547
393.67         79.2009
394.12        79.32371
394.57        79.07632
395.02        78.38557
395.47        78.57805
395.91        77.86681
396.36        77.43672
396.81        77.53182
397.26        77.64345
397.71        77.79061
398.15        77.64987
398.60        77.29844
399.05        76.61346
399.50        75.89837
399.95        75.93344
400.39        76.62918
400.84        76.98405
401.29         76.8205
401.74         76.6488
402.18        76.41846
402.63        75.64929
403.08        74.61093
403.53        73.99373
403.97        73.88287
404.42        74.05612
404.87        74.32906
405.32        74.43728
405.76        74.29546
406.21        74.04921
406.66        73.75261
407.11        73.47828
407.55        73.32737
408.00        73.20399
408.45        73.11828
408.90        73.34942
409.34        73.66895
409.79        73.26082
410.24        72.33611
410.68        71.94462
411.13        72.15948
411.58        72.38994
412.03        72.52456
412.47        72.64279
412.92        72.67059
413.37        72.61707
413.81        72.49007
414.26        72.35892
414.71        72.22542
415.15        72.08504
415.60        71.96336
416.05        71.96241
416.49        72.09444
416.94        72.32739
417.39        72.55548
417.83        72.58904
418.28        72.40276
418.73        72.07098
419.17        71.70673
419.62        71.50006
420.07        71.48851
420.51        71.57574
420.96         71.7666
421.41        71.93668
421.85        72.00733
422.30        72.23943
422.74        72.50754
423.19        72.24847
423.64        71.66842
424.08        71.88869
424.53        72.78118
424.98        73.16402
425.42        72.89954
425.87         72.7618
426.31        72.80009
426.76        72.33125
427.21        71.63439
427.65        71.95146
428.10        72.98156
428.54        73.28716
428.99        72.83173
429.44        72.26138
429.88        71.23764
430.33        71.89686
430.77        73.44137
431.22         73.2012
431.66        71.44092
432.11        70.95176
432.56        71.83624
433.00        72.39442
433.45        72.37349
433.89         72.4932
434.34        71.72085
434.78         73.1432
435.23          73.036
435.67        73.09918
436.12        72.55009
436.57         72.9408
437.01        74.09132
437.46         74.6875
437.90         74.1539
438.35          73.877
438.79        73.77198
439.24        73.39825
439.68        72.86591
440.13        72.83923
440.57           73.38
441.02        73.68723
441.46        73.59971
441.91        74.62486
442.35        75.34892
442.80        74.57373
443.24        73.96359
443.69         73.7338
444.13        74.35981
444.58        74.54563
445.02        74.28033
445.47        74.31736
445.91        74.67406
446.36        74.99287
446.80         75.2206
447.24        75.70403
447.69         75.9712
448.13         76.0455
448.58        75.85992
449.02        75.65537
449.47        75.53526
449.91        75.44063
450.36         75.4194
450.80        75.54063
451.25        75.73045
451.69         75.7057
452.13        75.47691
452.58        75.26823
453.02        75.09624
453.47        74.92323
453.91        74.74529
454.36        74.56764
454.80        74.46383
455.24         74.4158
455.69        74.53703
456.13        74.58317
456.58         74.0864
457.02        73.24005
457.46        73.33942
457.91        73.82486
458.35        74.72305
458.79        74.85079
459.24         74.1529
459.68        73.34876
460.13        72.81976
460.57        71.85934
461.01         72.0317
461.46        72.23962
461.90        72.72542
462.34        72.62533
462.79        72.38582
463.23        72.36949
463.68        72.63176
464.12         72.6727
464.56        72.42762
465.01        72.05968
465.45        71.68508
465.89         71.7009
466.34        71.89032
466.78        72.47876
467.22        71.51102
467.67        71.33586
468.11           71.21
468.55        71.37457
468.99        71.62782
469.44        71.67077
469.88        71.49911
470.32        71.32108
470.77        71.19878
471.21         71.1191
471.65        71.08221
472.10        71.10353
472.54         71.1403
472.98        71.10784
473.42         70.9775
473.87         70.9315
474.31        70.91587
474.75        70.55072
475.20        69.99913
475.64        70.13933
476.08        70.83127
476.52        70.90376
476.97        70.23386
477.41        70.67744
477.85        69.40947
478.29         70.0817
478.74        70.40775
479.18        70.37952
479.62        69.67213
480.06        69.48827
480.50        69.88694
480.95        69.22397
481.39         69.9137
481.83        69.13191
482.27        69.23884
482.72        69.60182
483.16        69.37758
483.60        69.55514
484.04        69.63731
484.48        69.70854
484.93        69.76116
485.37        70.21172
485.81        69.72591
486.25        71.29259
486.69         71.2545
487.14        68.49958
487.58        67.77664
488.02        69.68426
488.46        68.86678
488.90        68.52569
489.34        69.36286
489.79        69.04781
490.23        69.03987
490.67        68.72927
491.11         68.5112
491.55         68.6042
491.99        68.90561
492.43        68.96486
492.88        68.73363
493.32        68.52657
493.76        68.41916
494.20        68.38596
494.64        68.43472
495.08        68.60595
495.52        68.83685
495.96        68.84915
496.41        68.66531
496.85         68.7628
497.29        69.03052
497.73        68.82526
498.17        68.21732
498.61        68.05598
499.05        67.88617
499.49        68.12626
499.93        68.46272
500.37        68.52139
500.82         68.3344
501.26        68.22695
501.70        68.36875
502.14        68.64692
502.58        68.40012
503.02        68.34624
503.46        68.30872
503.90        68.04196
504.34        67.97709
504.78         67.9352
505.22        68.05582
505.66        68.22316
506.10        68.38965
506.54        68.58758
506.98        68.69215
507.42        68.44933
507.86        68.01467
508.30        67.52712
508.74        67.75249
509.18        67.85126
509.62        67.97117
510.06        68.10263
510.50        68.21359
510.94        68.29153
511.38        68.32813
511.82         68.3279
512.26        68.28943
512.70        68.21001
513.14        68.09216
513.58        67.94457
514.02        67.78074
514.46        67.60677
514.90         67.4452
515.34        67.34469
515.78        67.31973
516.22        67.29291
516.66        67.37214
517.10        67.42335
517.54        67.47141
517.98        67.51643
518.42        67.56332
518.86        67.62008
519.30        67.68389
519.74        67.74407
520.18        67.78897
520.62        67.80646
521.06        67.79179
521.50        67.74667
521.93        67.68035
522.37        67.59707
522.81        67.50937
523.25        67.42612
523.69        67.34219
524.13        67.24545
524.57        67.14189
525.01        67.04087
525.45        66.97569
525.89        66.99652
526.32        67.10567
526.76        67.27879
527.20        67.46489
527.64        67.58739
528.08        67.62276
528.52        67.59101
528.96        67.51509
529.40        67.44065
529.83         67.3752
530.27        67.31203
530.71        67.26054
531.15        67.26455
531.59        67.32782
532.03         67.4318
532.46        67.54308
532.90        67.62856
533.34        67.66788
533.78        67.63058
534.22        67.54197
534.66        67.50564
535.09        67.45717
535.53        67.37505
535.97        66.92227
536.41        66.72948
536.85        66.71007
537.28        66.71072
537.72        66.71593
538.16        66.76655
538.60        66.85156
539.04        66.95388
539.47        67.04108
539.91        67.10534
540.35        67.12248
540.79         67.1035
541.22        67.07207
541.66        66.99927
542.10        67.04446
542.54        67.01736
542.97        66.95587
543.41        66.86206
543.85        66.76496
544.29        66.80022
544.72        66.91644
545.16        66.93353
545.60        66.82629
546.04        66.71355
546.47        66.62924
546.91        66.55743
547.35        66.53526
547.79        66.61729
548.22        66.71561
548.66        66.76788
549.10        66.75925
549.53        66.44143
549.97        66.43859
550.41        66.38747
550.84        66.47347
551.28        66.63477
551.72        66.83817
552.15          67.021
552.59        67.09394
553.03        67.20186
553.46        66.79764
553.90         66.7162
554.34        66.95982
554.77        67.08401
555.21        67.01785
555.65        67.41216
556.08        66.97932
556.52        66.78448
556.96         66.5248
557.39         66.3654
557.83        66.35207
558.27        66.41199
558.70        66.48087
559.14        66.65566
559.57        66.43438
560.01        66.53618
560.45        66.72637
560.88        66.76899
561.32         66.7049
561.75        66.40919
562.19        66.06638
562.63        66.31827
563.06         66.9634
563.50        66.80743
563.93        65.98283
564.37        65.73254
564.80         66.0668
565.24        66.34602
565.68        66.45714
566.11        66.51608
566.55        66.52135
566.98         66.4051
567.42        66.28107
567.85        66.29226
568.29        66.46104
568.72        66.65118
569.16        66.88869
569.60        66.97919
570.03        66.83192
570.47         67.0268
570.90        67.28624
571.34        66.45629
571.77        66.93238
572.21        66.91418
572.64         67.1803
573.08        66.82105
573.51        66.88231
573.95        67.44922
574.38        67.16317
574.82        67.00901
575.25        67.26498
575.69        67.63199
576.12        67.38155
576.56        66.61657
576.99        67.11908
577.42        67.25783
577.86        66.99583
578.29        67.52213
578.73        68.11797
579.16        67.17784
579.60        66.38437
580.03         66.1616
580.47        67.09756
580.90        66.48028
581.33        67.30334
581.77        67.40863
582.20        67.79775
582.64        67.87543
583.07        67.39049
583.51        66.82597
583.94        66.41552
584.37        66.65192
584.81        67.53713
585.24         67.5192
585.68        67.42368
586.11        67.54388
586.54        67.28365
586.98        66.60874
587.41         66.2974
587.85        67.26677
588.28        67.31996
588.71        66.05801
589.15        66.98826
589.58        66.57975
590.01        66.17307
590.45        66.40456
590.88        66.72594
591.31        66.56307
591.75        66.69826
592.18         66.3494
592.61        65.92075
593.05        66.50629
593.48         66.6741
593.91        66.87907
594.35        66.47914
594.78        66.14614
595.21        66.12273
595.65        66.89214
596.08        66.64491
596.51        66.41766
596.94        66.07372
597.38        65.95663
597.81        66.21564
598.24        65.85119
598.68        66.30931
599.11        65.57047
599.54        67.26993
599.97         67.0525
600.41        66.13467
600.84        66.66006
601.27        66.48793
601.70        66.89494
602.14         66.9994
602.57        66.74075
603.00        66.26526
603.43        65.95419
603.87        66.24181
604.30        66.65194
604.73        66.29613
605.16         65.7226
605.60        65.71675
606.03        66.03298
606.46        66.68156
606.89        66.52681
607.32        65.81213
607.76        65.55856
608.19        65.90326
608.62        66.05728
609.05        66.35129
609.48        66.12782
609.92        65.62685
610.35        65.43355
610.78        66.95992
611.21        67.17321
611.64        66.52587
612.07        66.48328
612.50        66.71596
612.94        66.58791
613.37        66.04051
613.80        66.05624
614.23        65.71957
614.66        66.08598
615.09        65.83067
615.52        65.97787
615.96        66.10844
616.39        66.20949
616.82        66.07033
617.25        65.79676
617.68        66.39441
618.11        66.42629
618.54          66.194
618.97        65.89619
619.40        65.65806
619.84        65.52615
620.27        65.53387
620.70        65.85892
621.13        66.34898
621.56        66.02107
621.99        65.39057
622.42        65.42174
622.85        65.68829
623.28        65.73286
623.71        65.60929
624.14        65.82518
624.57        65.91681
625.00          66.076
625.43        66.15668
625.86        65.98392
626.29        65.95159
626.72        65.87727
627.15        65.71951
627.58        65.50645
628.01        65.25999
628.44        65.37262
628.87        65.75004
629.30        65.74717
629.73        65.37518
630.16        65.50426
630.59        65.51765
631.02        65.62267
631.45        65.61034
631.88        65.55989
632.31        65.45636
632.74        65.48418
633.17        65.32421
633.60        65.30608
634.03        65.33514
634.46         65.4142
634.89        65.50623
635.32        65.55212
635.75        65.53851
636.18        65.47664
636.61         65.3981
637.04        65.35695
637.47         65.3717
637.89        65.41442
638.32        65.42803
638.75        65.42478
639.18        65.40924
639.61        65.12086
640.04        65.09384
640.47        65.00203
640.90        65.00892
641.33        65.07139
641.76        65.14227
642.18        65.23382
642.61        65.32642
643.04         65.2764
643.47        65.04717
643.90        65.50269
644.33        65.23779
644.76        65.27918
645.18         65.2352
645.61        65.39802
646.04        65.66047
646.47        65.51175
646.90         65.0547
647.33        64.89678
647.75        65.07262
648.18        65.21865
648.61        65.30322
649.04          65.382
649.47        65.41492
649.89         65.5386
650.32        65.65302
650.75        65.28312
651.18        64.63895
651.61          64.587
652.03        65.13817
652.46        65.47491
652.89         65.4307
653.32        65.36597
653.74        65.52515
654.17        64.70406
654.60        65.53833
655.03        65.64134
655.46        64.90591
655.88        65.40915
656.31        72.61805
656.74        71.73347
657.16        66.29263
657.59        64.13452
658.02        65.21784
658.45        65.58404
658.87        65.53648
659.30        64.59298
659.73        64.81407
660.15        65.97747
660.58        65.32053
661.01         65.2175
661.44        64.82944
661.86         64.8614
662.29        65.24612
662.72        65.45219
663.14        65.46161
663.57        65.49187
664.00         65.5508
664.42        65.52372
664.85        65.41634
665.27        65.21927
665.70        65.00153
666.13        64.90321
666.55        64.95969
666.98         65.1133
667.41        65.31386
667.83        65.48534
668.26        65.57925
668.69        65.61259
669.11         65.6153
669.54        65.64981
669.96        65.71564
670.39        65.76253
670.82        65.77757
671.24        65.70145
671.67        65.57646
672.09        65.57057
672.52        65.66161
672.94        65.61113
673.37        65.41589
673.80        65.20448
674.22        65.03577
674.65        64.91856
675.07        64.88998
675.50        64.93481
675.92        65.03255
676.35        65.13813
676.77        65.23528
677.20        65.32086
677.62        65.39823
678.05        65.46165
678.47        65.50783
678.90        65.54142
679.32        65.54552
679.75        65.51533
680.17         65.4446
680.60          65.354
681.02        65.28036
681.45        65.21031
681.87        65.18025
682.30        65.31617
682.72        65.55285
683.15        65.53831
683.57        65.31211
684.00        65.25066
684.42        65.38189
684.85        65.45519
685.27        65.45022
685.70        65.58955
686.12        65.78761
686.54        65.68745
686.97        65.33092
687.39        65.19875
687.82        65.28156
688.24        65.10995
688.66        64.77126
689.09         64.8602
689.51        65.32046
689.94        65.53372
690.36        65.45752
690.78         65.4223
691.21        65.49948
691.63        65.56596
692.06        65.69798
692.48        66.18281
692.90        66.83614
693.33        67.08484
693.75        66.85773
694.17        66.35509
694.60        65.82133
695.02        65.55947
695.44        65.57639
695.87        65.81674
696.29        66.14651
696.71        65.72572
697.14        65.24323
697.56        65.45705
697.98        66.35329
698.41        66.64409
698.83        66.28632
699.25        66.07063
699.68        66.05048
700.10        65.98491
700.52        65.89154
700.94        65.82707
701.37        65.81374
701.79        65.97616
702.21        66.23573
702.64        66.39847
703.06        66.43056
703.48        66.35073
703.90        66.14185
704.33        66.20377
704.75        65.76289
705.17        65.65993
705.59        65.67979
706.01        65.78502
706.44        65.96334
706.86        66.20759
707.28        66.47694
707.70         66.8277
708.12        67.16164
708.55         67.1617
708.97        66.87738
709.39        66.71062
709.81        66.70995
710.23        66.64661
710.66        66.53913
711.08         66.5789
711.50        66.71667
711.92          66.784
712.34        66.75816
712.76        66.69381
713.19        66.60152
713.61        66.54578
714.03        66.52351
714.45         66.5096
714.87        66.51425
715.29        66.55768
715.71         66.6375
716.13        66.75561
716.56        66.84579
716.98        66.88024
717.40        66.81887
717.82        66.67474
718.24        66.52907
718.66         66.5148
719.08        66.65308
719.50        66.90065
719.92        67.14856
720.34        67.22366
720.76        67.07903
721.19        66.78341
721.61        66.44685
722.03        66.23985
722.45        66.21787
722.87        66.33917
723.29        66.53723
723.71        66.70096
724.13        66.78641
724.55        66.81045
724.97        66.82284
725.39        66.90226
725.81          67.059
726.23        67.26543
726.65        67.42023
727.07        67.36772
727.49        67.09354
727.91        66.66217
728.33         66.2343
728.75        66.06438
729.17        66.20834
729.59        66.56541
730.01        66.98876
730.43        67.27232
730.85        67.35465
731.27        67.12289
731.69         66.9948
732.10        66.76766
732.52        66.58766
732.94        66.39408
733.36        66.28136
733.78         66.3568
734.20        66.61572
734.62        67.18788
735.04        67.84004
735.46         67.8335
735.88        67.29179
736.30        67.11426
736.72        67.34425
737.13        67.49859
737.55        67.45897
737.97        67.18292
738.39        66.80231
738.81         66.8028
739.23        67.17811
739.65         67.4527
740.06        67.49582
740.48        67.55269
740.90        67.57223
741.32        67.42523
741.74        67.17934
742.16        67.00764
742.57        66.94787
742.99          67.036
743.41        67.22433
743.83        67.19584
744.25        67.02969
744.67        67.27868
745.08        67.83585
745.50        67.95436
745.92        67.59313
746.34        67.13257
746.75         66.7066
747.17        66.41333
747.59        66.29697
748.01        66.34283
748.42        66.50301
748.84        66.66628
749.26        66.80546
749.68        66.91211
750.09         66.9926
750.51         67.1534
750.93        67.35413
751.35        67.40157
751.76        67.33559
752.18        67.36955
752.60        67.51257
753.01        67.69107
753.43        67.84287
753.85        67.86679
754.27        67.73378
754.68        67.82011
755.10        67.56616
755.52        67.52864
755.93        67.53322
756.35        67.56566
756.77        67.62253
757.18        67.64185
757.60        67.62408
758.02         67.7702
758.43        67.96751
758.85        67.72548
759.26         67.2224
759.68        67.29462
760.10        67.91125
760.51          68.367
760.93        68.44918
761.34        68.25848
761.76        67.89231
762.18        67.39461
762.59        67.00565
763.01        67.20634
763.42        67.89746
763.84         68.1641
764.26        67.93515
764.67         67.6546
765.09        67.48779
765.50        67.44842
765.92        67.55276
766.33        67.60863
766.75        67.55087
767.16        67.64975
767.58        67.87587
768.00        68.05273
768.41        68.22856
768.83        68.69536
769.24        69.31831
769.66        69.53912
770.07        69.31728
770.49         69.1209
770.90        69.01315
771.32        68.91869
771.73        68.83899
772.15        68.70467
772.56        68.53877
772.97        68.44462
773.39        68.42117
773.80        68.45088
774.22        68.49844
774.63        68.61931
775.05        68.75276
775.46        68.86686
775.88        68.91825
776.29        68.93401
776.70        68.93363
777.12         68.9797
777.53        69.09161
777.95        69.21571
778.36        69.31487
778.77        69.28706
779.19        69.12756
779.60        68.95246
780.02        68.77667
780.43        68.54724
780.84         68.3866
781.26        68.37147
781.67         68.5183
782.09        69.10566
782.50        69.81343
782.91         69.4822
783.33        68.38023
783.74        68.07372
784.15        68.69579
784.57        69.33846
784.98         69.8498
785.39        70.34246
785.81        70.73601
786.22        70.77541
786.63        70.91396
787.04        70.89701
787.46        70.90031
787.87        70.84872
788.28        70.79843
788.70        70.79678
789.11        70.82197
789.52        70.92656
789.93        71.02862
790.35        70.91008
790.76        70.60934
791.17        70.31823
791.58        70.11142
792.00        69.97989
792.41        69.96841
792.82         70.0369
793.23         70.1386
793.65        70.39547
794.06        70.67416
794.47        70.43006
794.88        69.86745
795.29        69.73309
795.71        70.00918
796.12        70.42239
796.53        70.78236
796.94        70.90469
797.35        70.69461
797.76        70.22926
798.18        69.72748
798.59        69.48307
799.00        69.57826
799.41        69.91843
799.82        70.37086
800.23        70.70764
800.64        70.84458
801.06        70.82789
801.47        70.73238
801.88        70.59097
802.29         70.4383
802.70        70.24789
803.11        70.07311
803.52        70.01124
803.93        70.09874
804.34        70.32746
804.75        70.62057
805.17        70.93316
805.58        71.28245
805.99        71.29025
806.40        71.05731
806.81         71.6096
807.22        72.57806
807.63        71.99538
808.04        70.18719
808.45        69.44444
808.86        69.96797
809.27        70.52217
809.68        70.86518
810.09         71.1398
810.50        71.24426
810.91        71.15812
811.32        70.95258
811.73        70.74618
812.14        70.59551
812.55         70.4697
812.96        70.43092
813.37        70.57922
813.78        70.91312
814.19        71.40049
814.60        71.90272
815.01        72.19917
815.42         72.2399
815.83        72.07707
816.24        71.79616
816.65         71.5769
817.05        71.49919
817.46         71.4926
817.87        71.55193
818.28        71.62452
818.69        71.68435
819.10         71.7473
819.51        71.80517
819.92        71.83141
820.33         71.8145
820.74         71.7556
821.14        71.63857
821.55        71.47103
821.96        71.25601
822.37        71.02251
822.78        70.82983
823.19        70.77647
823.60        70.89849
824.00        71.18822
824.41        71.57388
824.82        72.03867
825.23        72.53181
825.64        73.01823
826.04         73.4416
826.45         73.6419
826.86        73.61091
827.27        73.39084
827.68        73.00745
828.08        72.53565
828.49        71.99871
828.90        71.41412
829.31        70.92188
829.72        70.72198
830.12        70.88385
830.53        71.34283
830.94        71.89005
831.35        72.08679
831.75        71.84428
832.16        71.24065
832.57        70.63726
832.97        70.58607
833.38        71.17178
833.79        72.19438
834.20        73.30331
834.60        73.90425
835.01        73.79362
835.42        73.19614
835.82        72.33739
836.23        71.55652
836.64        70.99447
837.04        70.57333
837.45        70.30918
837.86         70.2959
838.26         70.5341
838.67        70.97787
839.08        71.49438
839.48        71.81245
839.89        71.84557
840.29        71.66222
840.70        71.36223
841.11        71.08742
841.51         70.9126
841.92        70.77035
842.33        70.73142
842.73        70.91699
843.14        71.28716
843.54        71.87433
843.95        72.48295
844.35        72.84824
844.76        72.86254
845.17        72.57393
845.57        72.19386
845.98        72.05717
846.38        72.25966
846.79        72.70171
847.19        73.14681
847.60        73.10551
848.00        72.51205
848.41        71.52538
848.81        70.53683
849.22        70.11052
849.62        70.38368
850.03        71.15776
850.43        72.11207
850.84        72.54058
851.24        72.30975
851.65         71.5985
852.05        70.76898
852.46        70.38947
852.86        70.59158
853.27        71.14779
853.67        71.81649
854.07        72.47192
854.48        72.98427
854.88        73.52035
855.29        73.80014
855.69        73.57111
856.10        72.70659
856.50        71.40319
856.90        70.08347
857.31        69.36412
857.71        69.36561
858.12        69.88456
858.52        70.71608
858.92        71.23527
859.33         71.2093
859.73        70.85854
860.13        70.28819
860.54        69.70118
860.94        69.19566
861.34        68.68579
861.75        68.26777
862.15        68.17617
862.55        68.42397
862.96        68.94658
863.36        69.55732
863.76         69.8458
864.17        69.71014
864.57        69.27589
864.97        68.71951
865.38          68.351
865.78        68.28973
866.18        68.41543
866.58         68.6375
866.99        68.79417
867.39        68.86082
867.79        68.90959
868.19        68.91024
868.60         68.7797
869.00        68.51474
869.40        68.10661
869.80        67.76852
870.21        67.88995
870.61        68.57965
871.01        69.65361
871.41        70.66434
871.81          70.943
872.22        70.36258
872.62        69.12786
873.02        67.69767
873.42        66.83864
873.82        66.77714
874.22         67.3127
874.63        68.07681
875.03        68.46925
875.43        68.33898
875.83        67.88451
876.23        67.41332
876.63        67.39753
877.03        67.93553
877.44        68.81917
877.84        69.77564
878.24        70.31625
878.64        70.30444
879.04        69.91137
879.44        69.35853
879.84        68.97535
880.24        68.85638
880.64        68.88999
881.04         69.0126
881.44        69.12071
881.84        69.18016
882.24        69.26431
882.65        69.30904
883.05        69.29424
883.45         69.1816
883.85        68.96236
884.25         68.7984
884.65        68.94053
885.05        69.42023
885.45        70.17982
885.85        70.94831
886.25        71.25561
886.65        70.98559
887.05        70.26338
887.45        69.45064
887.85        69.12054
888.25        69.39906
888.65         70.1146
889.04        70.89487
889.44        71.11402
889.84        70.64042
890.24        69.67822
890.64        68.60826
891.04        67.96671
891.44        67.88086
891.84        68.22089
892.24        68.66518
892.64        68.67552
893.04        68.14603
893.44        67.26863
893.83         66.4711
894.23        66.40331
894.63        67.14993
895.03        68.48206
895.43        69.92482
895.83        70.61613
896.23        70.32199
896.63        69.37947
897.02        68.17159
897.42        67.35267
897.82        67.03627
898.22        67.06015
898.62        67.36704
899.01        67.89305
899.41        68.51349
899.81        69.28136
900.21        70.09409
900.61        70.75098
901.00        71.17471
901.40        71.35068
901.80        71.31413
902.20        71.16212
902.59        70.95381
902.99         70.6824
903.39        70.40314
903.79        70.20107
904.18        70.07615
904.58        70.02296
904.98        70.01537
905.38        70.00532
905.77        69.97606
906.17        69.99424
906.57        69.95062
906.96        69.68761
907.36         69.1907
907.76        68.50549
908.15        67.96845
908.55        68.07631
908.95        68.91653
909.34         70.3365
909.74        71.80116
910.14        72.51103
910.53        72.25993
910.93        71.28443
911.33        70.05909
911.72        69.34481
912.12        69.36423
912.52        69.87821
912.91        70.54226
913.31        70.77956
913.70        70.44737
914.10        69.77618
914.49        69.04141
914.89         68.6262
915.29        68.64341
915.68        68.93954
916.08        69.38898
916.47        69.81513
916.87        70.12473
917.26        70.37539
917.66        70.53823
918.05        70.55827
918.45        70.43758
918.84        70.21731
919.24        69.96698
919.64        69.90361
920.03        70.09377
920.42        70.44924
920.82        70.88258
921.21        71.28539
921.61        71.57299
922.00        71.77042
922.40        71.81051
922.79        71.65532
923.19        71.30524
923.58        70.81326
923.98        70.23157
924.37        69.56511
924.77        68.88037
925.16        68.19011
925.55        67.65939
925.95        67.52602
926.34        67.85795
926.74        68.53901
927.13        69.44043
927.52        70.25161
927.92        70.84509
928.31        71.28355
928.70        71.55447
929.10        71.69106
929.49        71.73277
929.89        71.63811
930.28         71.4688
930.67        71.29738
931.07        71.14309
931.46         71.0099
931.85        70.89793
932.24        70.79309
932.64        70.69332
933.03         70.6572
933.42        70.60741
933.82         70.4387
934.21        70.14104
934.60        69.71807
934.99        69.38763
935.39        69.44695
935.78        69.97475
936.17        70.93148
936.56        71.92626
936.96        72.25162
937.35        71.78065
937.74        70.66704
938.13        69.52052
938.53         69.1715
938.92        69.71322
939.31        70.95005
939.70        72.30141
940.09        72.70159
940.49        71.89178
940.88        70.27253
941.27         68.5147
941.66        67.60509
942.05        67.78059
942.44        68.74796
942.84        70.08163
943.23        71.06216
943.62        71.35263
944.01        71.20044
944.40        70.80796
944.79        70.49355
945.18        70.37849
945.57        70.30968
945.97        70.29451
946.36        70.47963
946.75        70.82611
947.14        71.33495
947.53        71.82359
947.92        71.93497
948.31        71.59248
948.70        70.91982
949.09        70.16235
949.48        69.68653
949.87        69.61102
950.26        69.87299
950.65        70.35757
951.04        70.85442
951.43        71.25337
951.82        71.53664
952.21        71.80621
952.60        72.24309
952.99          72.833
953.38        73.48649
953.77        73.86329
954.16        73.39524
954.55        72.04797
954.94        70.14404
955.33        68.20515
955.72        67.00372
956.11        66.73466
956.50        67.12714
956.89        68.00908
957.28        69.08927
957.66        70.22265
958.05        71.37328
958.44          72.197
958.83          72.025
959.22        70.81284
959.61        68.86499
960.00        66.83657
960.39        65.67222
960.78        65.57234
961.16        66.27966
961.55        67.51298
961.94        68.87457
962.33         70.1255
962.72         71.3813
963.11        72.30095
963.49        72.29781
963.88        71.27872
964.27        69.49642
964.66        67.60763
965.04        66.53929
965.43        66.45406
965.82        67.09981
966.21        68.14146
966.60        68.89993
966.98        69.10726
967.37        68.94977
967.76        68.50132
968.15        67.86806
968.53        67.16317
968.92        66.33197
969.31         65.5753
969.69        65.24335
970.08        65.35487
970.47        65.83573
970.86        66.47674
971.24         66.8616
971.63        66.80092
972.02        66.46936
972.40        65.92809
972.79        65.32045
973.17         64.7609
973.56        64.19948
973.95        63.83063
974.33         63.9706
974.72        64.59733
975.11        65.60956
975.49        66.79178
975.88        67.64223
976.26        68.02132
976.65        68.02034
977.04        67.63709
977.42        66.85831
977.81        65.77473
978.19        64.36481
978.58        63.37885
978.96        63.73978
979.35        65.54353
979.74        68.61366
980.12        72.13222
980.51        73.82021
980.89        73.16199
981.28        70.66668
981.66         67.5023
982.05        65.68498
982.43        65.74693
982.82        67.06306
983.20        69.29051
983.59        71.62246
983.97        73.71523
984.35        75.73332
984.74        77.08511
985.12        76.95344
985.51        75.27189
985.89         72.2521
986.28         68.9889
986.66        67.13939
987.04        67.25271
987.43        68.90008
987.81        71.27555
988.20        72.72744
988.58        72.76733
988.96        71.70847
989.35        70.27115
989.73           69.59
990.12        69.90719
990.50         70.9057
990.88        71.75492
991.27        71.18426
991.65         69.0728
992.03        65.96204
992.42         62.9636
992.80        61.47836
993.18        61.94373
993.56        63.88483
993.95        66.45921
994.33        68.47688
994.71        69.26775
995.10        69.16572
995.48        68.45131
995.86        67.62174
996.24        66.93426
996.63         66.2233
997.01        65.53642
997.39        64.95872
997.77        64.51788
998.15        64.30093
998.54         64.3412
998.92        64.62979
999.30        65.15314
999.68        65.87746
1000.06        66.72259
1000.45        67.53101
1000.83        68.33147
1001.21        69.01669
1001.59        69.50222
1001.97        69.70563
1002.35        69.59811
1002.73        69.18464
1003.12        68.56937
1003.50        67.88167
1003.88        67.24557
1004.26        66.72962
1004.64        66.27647
1005.02         65.7471
1005.40        65.12959
1005.78        64.45457
1006.16        63.96645
1006.54         64.0722
1006.92        64.82823
1007.30        66.08335
1007.69        67.31156
1008.07        67.90993
1008.45        67.62342
1008.83        66.62519
1009.21        65.38139
1009.59        64.69196
1009.97        64.79864
1010.35        65.51472
1010.73        66.48998
1011.11        67.08179
1011.49        67.13169
1011.86        67.02565
1012.24        66.87566
1012.62         67.3401
1013.00         68.6601
1013.38        70.60202
1013.76        73.03615
1014.14        75.78001
1014.52        78.56835
1014.90        81.30213
1015.28        83.29934
1015.66        83.43829
1016.04        81.70639
1016.41        78.75589
1016.79        75.64989
1017.17           73.13
1017.55        71.07674
1017.93        69.06962
1018.31        66.94198
1018.69         64.9635
1019.06        63.69675
1019.44        63.36288
1019.82        63.41597
1020.20        63.12067
1020.58        62.37223
1020.95        61.19696
1021.33        60.02945
1021.71        59.80832
1022.09        60.98739
1022.46        63.06477
1022.84        65.50555
1023.22        67.91241
1023.60        70.05238
1023.97        72.13282
1024.35        73.25001
1024.73        71.92602
