SpectraSmart Spectrum 2.9.0.0
--------- Device Information -----------
Spectrum Name :  反射率_0
Saving Time :  2024/05/01 16:33:33
Spectro-Module Model Name : SE2030-DUVN
Spectro-Module Serial Number : OS361AC55029948
Wavelength Start : 200
Wavelength End : 1025
Wavelength Unit : Wavelength(nm)
Spectrum Unit : Reflectance(%)
-----------Spectrum Setting ------------
Integration Time : 20ms
Average : 10
Boxcar : 0
Background removal :  enabled
linearity correction :  enabled
SC :  disabled
Intensity correction :  disabled
DWT denoise :  enabled
savitzky-golay :  disabled
FFT :  disabled
Running average :  disabled
Kalman :  disabled
High pass :  disabled
---------------BEGIN--------------------
Wavelength(nm)             Reflectance(%)
200.29               0
200.75       -7.477732
201.21        303.9466
201.67       -207.8188
202.13       -80.50243
202.58       -23.95471
203.04        15.08938
203.50        41.70485
203.96        56.17243
204.42         62.9722
204.88        67.52857
205.34        108.3069
205.80        53.08374
206.26        45.11628
206.72        27.04713
207.18       -74.95572
207.64        246.7966
208.10        146.7243
208.55        130.3774
209.01        123.3686
209.47        114.1714
209.93        101.5973
210.39        84.55566
210.85        68.69135
211.31        64.49229
211.77        93.86034
212.23       -228.2136
212.69       -36.75845
213.14       -14.35102
213.60        15.73369
214.06       -239.7754
214.52       -56.88317
214.98        -40.2427
215.44       -27.95873
215.90      -0.8021473
216.36        383.6974
216.81       -208.0986
217.27        -249.828
217.73        362.0807
218.19        30.10984
218.65       -4.483914
219.11       -20.84486
219.57       -45.55319
220.02       -123.4023
220.48        -59.4393
220.94       -19.41339
221.40       -8.705176
221.86        -3.45528
222.32        1.651179
222.77         8.70609
223.23        19.18082
223.69        32.93661
224.15        41.00438
224.61        38.65754
225.06        31.88887
225.52        26.82499
225.98        26.01084
226.44        28.98918
226.90         35.0819
227.36        43.02821
227.81        46.64418
228.27        43.47321
228.73        37.74387
229.19        32.62798
229.65        29.37336
230.10        27.44304
230.56        26.17197
231.02        25.35315
231.48         25.0506
231.93        25.21893
232.39        25.81167
232.85         26.6923
233.31        27.76099
233.77         28.8943
234.22        30.09213
234.68        30.95031
235.14        31.12196
235.60        30.56236
236.05        29.14336
236.51          27.179
236.97        26.32061
237.43        27.77538
237.88        31.22481
238.34        34.88195
238.80        36.77826
239.26        36.40767
239.71        34.04032
240.17        28.44981
240.63        19.30499
241.08        10.40318
241.54         4.93669
242.00        5.401569
242.46        13.62164
242.91        32.04727
243.37        66.85894
243.83        125.6134
244.28         175.157
244.74        171.1132
245.20        140.7988
245.66        113.0378
246.11        96.33308
246.57        86.41623
247.03        77.33483
247.48        63.86069
247.94        39.65506
248.40        9.146603
248.85        -17.4235
249.31       -25.76135
249.77       -11.21026
250.22         13.7905
250.68        39.00977
251.14        57.84705
251.59        67.63155
252.05        70.23234
252.51        65.81361
252.96        48.80134
253.42        24.35442
253.88        29.66147
254.33        52.13942
254.79        64.84656
255.25        68.20051
255.70         67.2049
256.16        65.81908
256.62        64.17663
257.07        62.27298
257.53        60.84544
257.99        59.49141
258.44        58.30569
258.90        57.85335
259.35        57.64808
259.81         57.7563
260.27        57.66798
260.72        56.80725
261.18        55.50411
261.63        53.81894
262.09        52.28434
262.55        51.08824
263.00        50.11001
263.46        49.30263
263.91        48.42032
264.37        47.45265
264.83        46.33871
265.28        45.16801
265.74        43.96243
266.19        42.49799
266.65        40.89957
267.11        39.15971
267.56        37.60602
268.02        36.84322
268.47        36.89327
268.93        37.51625
269.38        38.20811
269.84        38.09034
270.30        36.99431
270.75        35.21109
271.21        33.19666
271.66        31.52725
272.12        30.43801
272.57        29.69262
273.03        29.23533
273.48        28.93742
273.94        28.72738
274.39        28.61694
274.85        28.49774
275.31        28.14524
275.76        27.53787
276.22        26.79158
276.67        25.99186
277.13        25.35951
277.58        24.88623
278.04        24.52352
278.49         24.2342
278.95        24.06201
279.40        23.93497
279.86         23.8752
280.31        23.71788
280.77        23.30467
281.22        22.60809
281.68        21.75966
282.13        20.89781
282.59        20.28548
283.04        19.94792
283.50        19.83757
283.95        19.85635
284.41        19.88899
284.86        19.88355
285.32        19.88892
285.77        19.92822
286.22        20.05541
286.68         20.2855
287.13        20.57627
287.59        20.88694
288.04        21.11793
288.50        21.26292
288.95        21.30207
289.41         21.3418
289.86        21.47322
290.32        21.73518
290.77        22.10524
291.22        22.47381
291.68        22.66315
292.13         22.6679
292.59        22.59815
293.04        22.64009
293.50        23.12548
293.95        24.09903
294.40        25.45786
294.86        27.00787
295.31        28.44494
295.77        29.66957
296.22        30.76255
296.68         31.8103
297.13        32.93895
297.58        34.21873
298.04        35.62967
298.49        37.15956
298.95        38.82651
299.40        40.58452
299.85        42.41254
300.31        44.31784
300.76        46.30477
301.21        48.38122
301.67        50.55582
302.12        52.68641
302.58         54.5727
303.03        56.14143
303.48        57.48165
303.94        58.84835
304.39        60.53188
304.84        62.64944
305.30        65.09791
305.75         67.6674
306.20        70.04868
306.66        72.13865
307.11        73.96239
307.57        75.63627
308.02        77.23521
308.47        78.83259
308.93        80.40081
309.38        81.86967
309.83        83.22859
310.29        84.49442
310.74        85.68155
311.19        86.84301
311.65        88.02739
312.10        89.22388
312.55        90.41151
313.00        91.59951
313.46        92.80688
313.91        94.00884
314.36        95.19345
314.82         96.2441
315.27        96.99014
315.72        97.38945
316.18        97.52879
316.63        97.53259
317.08        97.66598
317.53        98.00353
317.99         98.4828
318.44        99.02552
318.89         99.4691
319.35        99.76479
319.80        99.98565
320.25        100.1719
320.70        100.3888
321.16        100.6477
321.61        100.9319
322.06         101.253
322.51        101.6542
322.97        102.1071
323.42        102.6384
323.87        103.1359
324.32        103.4374
324.78        103.5007
325.23        103.4035
325.68        103.2532
326.13        103.2538
326.59        103.4432
327.04        103.8162
327.49        104.2771
327.94        104.6842
328.39        104.9862
328.85         105.183
329.30        105.3944
329.75        105.6638
330.20        106.0125
330.66        106.3832
331.11        106.7797
331.56        107.0835
332.01        107.2832
332.46        107.4186
332.92        107.5524
333.37        107.8984
333.82        108.4726
334.27        109.2391
334.72        110.0988
335.17        110.8725
335.63        111.4604
336.08        111.9392
336.53        112.3464
336.98        112.8162
337.43        113.3908
337.88        114.0395
338.34         114.637
338.79        115.0715
339.24        115.2761
339.69        115.2909
340.14        115.2981
340.59        115.5785
341.05        116.1769
341.50         117.038
341.95        117.9034
342.40        118.3528
342.85         118.315
343.30        117.9462
343.75         117.575
344.20        117.7111
344.66        118.4575
345.11        119.6307
345.56        120.9613
346.01        121.9869
346.46        122.5577
346.91        122.8319
347.36        122.9189
347.81        122.9891
348.26        123.1213
348.72        123.2495
349.17        123.4207
349.62        123.7974
350.07        124.3542
350.52        125.0128
350.97        125.5678
351.42         125.664
351.87        125.2463
352.32        124.4937
352.77        123.5265
353.22        122.5366
353.67        121.6319
354.13        120.7805
354.58         120.146
355.03        120.0915
355.48        120.6221
355.93        121.6546
356.38         122.677
356.83        122.8217
357.28        121.9184
357.73        120.2364
358.18        118.4231
358.63        117.4539
359.08        117.5113
359.53        118.2755
359.98        119.2093
360.43         119.414
360.88        118.6446
361.33        117.2283
361.78        115.5702
362.23        114.2327
362.68        113.3731
363.13        112.8092
363.58         112.366
364.03        111.7998
364.48        111.0241
364.93        110.1091
365.38        109.1832
365.83        108.4065
366.28        107.8024
366.73        107.3344
367.18        106.7717
367.63        105.7693
368.08        104.3211
368.53        102.5825
368.98        100.9739
369.43        100.0985
369.88        100.0445
370.33        100.6158
370.78        101.3721
371.23         101.535
371.68        100.8751
372.13        99.63387
372.58        98.17702
373.03        97.06021
373.48        96.42191
373.93        96.06139
374.38        95.81359
374.83        95.42798
375.28        94.82184
375.72         94.1028
376.17        93.32696
376.62        92.49055
377.07        91.62605
377.52        90.72408
377.97        89.87797
378.42        89.25119
378.87        88.86224
379.32        88.65434
379.77        88.50726
380.22        88.22358
380.67        87.75646
381.11         87.1803
381.56        86.54557
382.01        85.96562
382.46        85.49022
382.91        85.07447
383.36        84.75151
383.81        84.57292
384.26        84.51797
384.71        84.56634
385.15        84.57017
385.60        84.34449
386.05        83.84357
386.50        83.13504
386.95        82.37563
387.40        81.81776
387.85        81.51978
388.29         81.3546
388.74          81.295
389.19        81.10856
389.64        80.74743
390.09        80.26582
390.54        79.74527
390.98        79.30016
391.43        79.01521
391.88        78.81979
392.33        78.64269
392.78        78.41685
393.23        78.13437
393.67        77.71648
394.12        77.27613
394.57        77.06301
395.02        76.97349
395.47        76.44043
395.91        75.64973
396.36        75.35602
396.81        75.62099
397.26        76.09902
397.71        76.47032
398.15        76.42941
398.60        76.01691
399.05        75.06136
399.50         74.0015
399.95        73.99939
400.39        74.90598
400.84        75.19028
401.29        74.71766
401.74        74.53062
402.18        74.59029
402.63        74.07907
403.08        73.17528
403.53        72.60662
403.97         72.4363
404.42         72.4193
404.87        72.45442
405.32         72.4079
405.76        72.22517
406.21        72.07055
406.66         71.9338
407.11        71.64564
407.55         71.3308
408.00        71.24557
408.45        71.38928
408.90        71.64825
409.34        71.82928
409.79        71.51857
410.24        70.85962
410.68        70.52345
411.13         70.5713
411.58        70.60472
412.03        70.57592
412.47        70.60823
412.92        70.65948
413.37         70.7085
413.81        70.74565
414.26        70.81657
414.71        70.90209
415.15        71.00292
415.60        71.07472
416.05        71.10191
416.49        71.08032
416.94        71.01089
417.39        70.90939
417.83        70.78829
418.28        70.66255
418.73        70.53976
419.17        70.42803
419.62        70.34134
420.07        70.27952
420.51        70.22765
420.96        70.23102
421.41         70.2475
421.85        70.24844
422.30        70.38087
422.74        70.56836
423.19        70.56634
423.64         70.4447
424.08        70.70414
424.53        71.25332
424.98         71.5313
425.42         71.4594
425.87        71.47321
426.31        71.59376
426.76        71.24108
427.21        70.66993
427.65        71.05747
428.10        72.06505
428.54        72.25383
428.99        71.67619
429.44        70.79375
429.88        70.01057
430.33        70.70934
430.77        72.29348
431.22        72.25334
431.66        70.77071
432.11        70.27589
432.56        70.94425
433.00        71.45223
433.45        71.53791
433.89        71.83854
434.34        71.30276
434.78        71.96374
435.23        72.12109
435.67        71.83039
436.12        71.21771
436.57         71.7802
437.01        73.35511
437.46        74.01979
437.90        73.59303
438.35        73.26712
438.79        73.12766
439.24        72.71243
439.68        72.16143
440.13        72.13518
440.57        72.67014
441.02        72.98393
441.46        72.92375
441.91         73.8069
442.35        74.52602
442.80        73.82961
443.24        73.86723
443.69        73.59927
444.13        73.74767
444.58        73.77502
445.02        73.69758
445.47        73.84437
445.91        74.16951
446.36        74.45097
446.80        74.63332
447.24         74.9575
447.69        75.13789
448.13        75.24638
448.58        75.25011
449.02        75.29443
449.47        75.39642
449.91        75.41323
450.36        75.36653
450.80        75.32106
451.25        75.29552
451.69        75.19572
452.13        75.02814
452.58        74.89171
453.02        74.80054
453.47         74.5153
453.91         74.5748
454.36         74.4555
454.80        74.30859
455.24        74.37802
455.69        74.55383
456.13        74.22855
456.58        73.60532
457.02        73.38187
457.46        73.61356
457.91        73.94195
458.35        74.18027
458.79        74.07905
459.24         73.6167
459.68        73.04719
460.13        72.65405
460.57        71.59093
461.01        71.99971
461.46        71.80687
461.90        71.97039
462.34         72.1976
462.79        71.42208
463.23        71.48837
463.68        71.90051
464.12        71.99089
464.56        71.73591
465.01        71.46407
465.45        71.21918
465.89        71.44657
466.34        71.94446
466.78        71.67794
467.22        70.76477
467.67        70.46468
468.11        70.58724
468.55        70.73088
468.99        70.72627
469.44         70.7336
469.88        70.73692
470.32        70.69455
470.77        70.63682
471.21          70.628
471.65           70.66
472.10        70.72054
472.54        70.76836
472.98        70.74125
473.42          70.622
473.87        70.54704
474.31        70.47277
474.75        70.15653
475.20        69.70441
475.64        69.68417
476.08        70.04794
476.52        70.01059
476.97        69.46092
477.41        70.08871
477.85        69.12543
478.29        69.74435
478.74        69.38534
479.18        69.74611
479.62        69.15559
480.06        69.15918
480.50        69.45249
480.95        68.78281
481.39         69.5533
481.83        68.69297
482.27        69.16378
482.72        69.02547
483.16        68.93166
483.60        69.02514
484.04        69.29018
484.48        69.15397
484.93        68.91678
485.37        69.92474
485.81        70.08907
486.25        70.70805
486.69        70.86496
487.14         68.3561
487.58        67.26131
488.02        69.25726
488.46        68.32136
488.90        68.46205
489.34         69.0687
489.79        68.85715
490.23        68.57496
490.67        68.20052
491.11        68.02388
491.55        68.16667
491.99        68.52509
492.43        68.65923
492.88        68.52113
493.32        68.43229
493.76        68.41907
494.20        68.39995
494.64        68.37773
495.08        68.33021
495.52        68.32398
495.96         68.3809
496.41        68.43573
496.85        68.66409
497.29        69.00629
497.73        68.13179
498.17        68.14795
498.61        67.74715
499.05         67.6491
499.49         67.8466
499.93        68.23275
500.37        68.40096
500.82        68.31487
501.26        68.33651
501.70        68.44537
502.14        68.50981
502.58        68.28261
503.02        68.12891
503.46        67.99696
503.90        67.83987
504.34        67.71365
504.78        67.70345
505.22         67.7946
505.66        68.05011
506.10        68.39643
506.54        68.40294
506.98         67.9717
507.42        68.31525
507.86        67.64777
508.30        67.47728
508.74        67.62579
509.18        67.80435
509.62        68.02676
510.06        68.17841
510.50        68.23646
510.94        68.21281
511.38        68.13207
511.82        68.03889
512.26        67.94946
512.70        67.84872
513.14         67.7424
513.58        67.64342
514.02        67.55801
514.46        67.49493
514.90        67.45194
515.34        67.41964
515.78         67.3956
516.22        67.37873
516.66        67.37824
517.10        67.40785
517.54        67.46647
517.98        67.54865
518.42        67.62595
518.86        67.65318
519.30        67.62326
519.74        67.54853
520.18        67.46954
520.62        67.45274
521.06        67.50742
521.50        67.60531
521.93        67.70592
522.37        67.73275
522.81          67.673
523.25        67.56004
523.69        67.41134
524.13         67.2513
524.57        67.10207
525.01        66.96236
525.45         66.8698
525.89        66.88403
526.32        67.00443
526.76        67.20232
527.20        67.41734
527.64        67.55246
528.08        67.57906
528.52        67.53094
528.96         67.4222
529.40        67.27941
529.83        67.11815
530.27        66.94938
530.71        66.82186
531.15        66.82777
531.59          66.977
532.03        67.23953
532.46        67.51576
532.90        67.66302
533.34        67.64581
533.78        67.45509
534.22        67.17938
534.66        67.07463
535.09        67.10991
535.53        67.00018
535.97        66.75452
536.41        66.62876
536.85        66.63043
537.28        66.62405
537.72        66.59522
538.16        66.57745
538.60        66.56534
539.04        66.54515
539.47        66.52908
539.91        66.57593
540.35         66.6709
540.79        66.81969
541.22        66.97981
541.66         66.9895
542.10        67.00291
542.54        66.90439
542.97        66.77717
543.41        66.70654
543.85        66.70103
544.29         66.7416
544.72        66.78875
545.16        66.81304
545.60        66.79062
546.04        66.74239
546.47        66.69166
546.91        66.66202
547.35        66.68192
547.79        66.76614
548.22        66.83202
548.66        66.86721
549.10        66.85151
549.53         66.4828
549.97        66.41669
550.41        66.35507
550.84        66.48764
551.28        66.77431
551.72         67.1084
552.15        67.21118
552.59        67.06685
553.03         67.0153
553.46        66.78573
553.90        66.73611
554.34        66.79821
554.77        66.82886
555.21         66.7377
555.65        67.12621
556.08        66.71181
556.52         66.5666
556.96        66.34834
557.39        66.19207
557.83        66.13482
558.27        66.03934
558.70        65.93121
559.14        66.18375
559.57        66.20078
560.01        66.53497
560.45         66.8332
560.88        66.77946
561.32        66.47968
561.75         66.0096
562.19        65.62102
562.63        65.96505
563.06        66.79598
563.50        66.74746
563.93        65.92493
564.37        65.70693
564.80        66.09344
565.24         66.3285
565.68        66.32893
566.11         66.3274
566.55        66.33702
566.98         66.2622
567.42        66.20036
567.85        66.24002
568.29        66.40502
568.72        66.64921
569.16        66.99329
569.60        67.06983
570.03        66.76994
570.47        66.93443
570.90        67.30313
571.34        65.99416
571.77        66.75666
572.21        66.70844
572.64        67.00974
573.08        66.63538
573.51        66.96604
573.95        67.33595
574.38        67.13458
574.82        67.10217
575.25        67.43881
575.69        67.74158
576.12        67.09861
576.56        66.75559
576.99        67.13522
577.42        67.30759
577.86        67.31901
578.29        67.62763
578.73        68.15694
579.16        67.04585
579.60        66.68897
580.03        66.52122
580.47        67.35044
580.90        66.64899
581.33        67.40517
581.77         67.6501
582.20        67.87562
582.64        67.76192
583.07        67.29354
583.51         66.7794
583.94        66.55499
584.37        66.87768
584.81        67.66243
585.24        67.81208
585.68        67.24568
586.11        67.53506
586.54        67.09102
586.98        66.54465
587.41        66.21413
587.85        67.23447
588.28        67.75953
588.71        66.22408
589.15        67.12804
589.58        66.39291
590.01         66.1209
590.45        66.15371
590.88        66.57804
591.31         66.7565
591.75        66.54539
592.18        66.16582
592.61        65.80725
593.05        66.15193
593.48        66.38573
593.91        67.04556
594.35        66.36714
594.78        66.09681
595.21        65.81332
595.65         66.3288
596.08        66.78532
596.51         66.4821
596.94        66.09824
597.38        65.88797
597.81        66.19141
598.24        65.84834
598.68        66.56866
599.11        65.54988
599.54        66.87939
599.97        66.68462
600.41        65.99934
600.84        66.65121
601.27        66.27907
601.70        66.76866
602.14        66.81838
602.57        66.68922
603.00        66.36504
603.43        66.09325
603.87        66.32854
604.30        66.77941
604.73        66.36103
605.16        66.03239
605.60        66.02794
606.03        66.18565
606.46        66.47504
606.89        66.36555
607.32        65.95192
607.76         65.7951
608.19        65.97401
608.62        66.35736
609.05        66.17257
609.48        66.55485
609.92        65.95343
610.35        65.51353
610.78        66.86536
611.21        66.98032
611.64        66.43875
612.07        66.62324
612.50        66.79356
612.94        66.38342
613.37        66.19743
613.80        66.15965
614.23        65.86221
614.66        66.21999
615.09        65.98925
615.52        66.03167
615.96        65.98681
616.39         66.3649
616.82        66.35536
617.25        66.40091
617.68        66.27856
618.11        66.17892
618.54         66.1049
618.97        65.90858
619.40        65.67771
619.84        65.55537
620.27        65.55782
620.70        65.89212
621.13        66.44136
621.56        66.03537
621.99        65.36042
622.42        65.84083
622.85        65.63071
623.28        66.08295
623.71        65.41313
624.14        65.99171
624.57        65.92599
625.00        66.07361
625.43        65.97189
625.86        65.84738
626.29        65.79399
626.72        65.46647
627.15        65.51669
627.58        65.34779
628.01        65.18419
628.44        65.35526
628.87        65.63454
629.30        65.67928
629.73        65.47411
630.16        65.43261
630.59        65.56311
631.02        65.61942
631.45        65.58307
631.88        65.54218
632.31        65.49825
632.74        65.43002
633.17        65.35779
633.60        65.31288
634.03        65.30302
634.46        65.32595
634.89        65.36309
635.32        65.37932
635.75        65.36337
636.18        65.32124
636.61        65.26804
637.04        65.23122
637.47        65.22409
637.89        65.23053
638.32        65.20303
638.75        65.16964
639.18        65.14062
639.61        64.84741
640.04        64.82791
640.47        64.76795
640.90        64.82661
641.33        64.95674
641.76        65.08366
642.18        65.17284
642.61        65.19904
643.04        65.03885
643.47        64.69219
643.90        65.07681
644.33        64.81236
644.76        64.89764
645.18        64.93156
645.61        65.18525
646.04        65.53777
646.47        65.48379
646.90        65.09708
647.33        64.93996
647.75        65.04839
648.18        65.07456
648.61        65.03056
649.04        65.06306
649.47        65.13858
649.89        65.31052
650.32        65.47951
650.75        65.22009
651.18        64.69814
651.61        64.73993
652.03        65.29888
652.46        65.45336
652.89        65.15324
653.32        65.03584
653.74        65.27115
654.17        65.07285
654.60        65.13057
655.03        65.70724
655.46        64.72279
655.88        65.29391
656.31        73.13829
656.74        72.41837
657.16        66.13071
657.59        64.59773
658.02        65.33974
658.45        65.59061
658.87        65.68299
659.30         64.4298
659.73        64.37551
660.15        65.83117
660.58        65.09861
661.01        65.00001
661.44        64.42455
661.86        64.42808
662.29        64.94144
662.72        65.25966
663.14        65.34656
663.57        65.44339
664.00        65.54781
664.42        65.54971
664.85        65.45099
665.27        65.21229
665.70        64.92056
666.13        64.77069
666.55        64.81067
666.98        64.96993
667.41        65.18784
667.83        65.37067
668.26        65.46285
668.69        65.48795
669.11        65.49029
669.54         65.5377
669.96        65.62828
670.39        65.75238
670.82        65.87093
671.24        65.76966
671.67        65.53936
672.09        65.61597
672.52        65.93365
672.94        65.96702
673.37        65.69789
673.80        65.40769
674.22        65.19734
674.65        65.07705
675.07        65.09444
675.50        65.22962
675.92         65.4174
676.35        65.54095
676.77         65.5708
677.20        65.53065
677.62        65.46271
678.05        65.42635
678.47        65.43898
678.90        65.48153
679.32        65.52875
679.75        65.56721
680.17        65.58152
680.60        65.58483
681.02        65.58626
681.45        65.56642
681.87        65.54472
682.30        65.55473
682.72        65.59122
683.15         65.5555
683.57        65.46857
684.00        65.42805
684.42        65.45582
684.85        65.51758
685.27        65.59266
685.70        65.73107
686.12        65.87128
686.54        65.84727
686.97        65.65848
687.39        65.54773
687.82        65.49512
688.24        65.20835
688.66        64.78703
689.09        64.71835
689.51        64.99646
689.94        65.14869
690.36        65.15305
690.78        65.28996
691.21        65.56332
691.63         65.7555
692.06        65.90369
692.48        66.29058
692.90        66.78999
693.33        66.96224
693.75        66.76962
694.17        66.35413
694.60        65.90649
695.02        65.71722
695.44        65.79086
695.87        65.94672
696.29        66.07251
696.71         65.8881
697.14        65.51362
697.56        65.56712
697.98        66.01445
698.41        66.24668
698.83        66.23381
699.25        66.34355
699.68        66.52936
700.10        66.59688
700.52        66.52502
700.94        66.32754
701.37        66.09662
701.79        66.10462
702.21        66.31303
702.64        66.48886
703.06         66.5723
703.48         66.5378
703.90        66.34977
704.33        66.42826
704.75        65.99487
705.17        65.88186
705.59        65.87336
706.01        65.93258
706.44        66.05113
706.86         66.2342
707.28        66.44852
707.70        66.74993
708.12        67.05222
708.55        67.05491
708.97        66.80727
709.39        66.70512
709.81        66.77517
710.23        66.75153
710.66        66.64296
711.08        66.65018
711.50        66.74625
711.92        66.80113
712.34        66.80117
712.76        66.78704
713.19        66.75595
713.61        66.74891
714.03        66.75462
714.45        66.75895
714.87        66.77003
715.29        66.80481
715.71        66.86259
716.13        66.94073
716.56        66.99524
716.98        67.03719
717.40        67.03317
717.82        66.98931
718.24        66.94069
718.66        66.94585
719.08        67.01309
719.50        67.12027
719.92        67.22282
720.34        67.24934
720.76        67.18352
721.19         67.0517
721.61        66.89319
722.03        66.76117
722.45        66.68188
722.87        66.65218
723.29        66.66786
723.71        66.70863
724.13        66.76111
724.55        66.83853
724.97        66.96185
725.39        67.03862
725.81        67.25815
726.23        67.45106
726.65        67.59388
727.07         67.5546
727.49        67.32355
727.91        66.94587
728.33        66.55886
728.75        66.38595
729.17        66.47455
729.59        66.75812
730.01         67.1112
730.43        67.31271
730.85        67.30027
731.27        67.15439
731.69        66.95031
732.10        66.80506
732.52        66.76344
732.94        66.77332
733.36        66.84784
733.78        67.01337
734.20        67.24891
734.62        67.55531
735.04        67.85015
735.46         67.9562
735.88        67.88979
736.30        67.78932
736.72        67.66951
737.13        67.62357
737.55        67.61066
737.97        67.27459
738.39        66.79461
738.81        67.03995
739.23        67.87681
739.65        68.14867
740.06        67.78352
740.48        67.69314
740.90         67.8561
741.32        67.76863
741.74         67.4631
742.16        67.29561
742.57        67.31329
742.99        67.37749
743.41        67.48734
743.83        67.68866
744.25        67.92828
744.67        68.08697
745.08        68.12889
745.50         68.0374
745.92        67.82958
746.34        67.47767
746.75        67.06438
747.17        66.78888
747.59        66.67835
748.01        66.68987
748.42        66.80162
748.84        66.93916
749.26        67.08167
749.68        67.22985
750.09        67.35046
750.51         67.4466
750.93        67.49002
751.35        67.40207
751.76        67.25357
752.18        67.22964
752.60        67.36091
753.01        67.58824
753.43         67.8138
753.85        67.93742
754.27        67.93353
754.68        67.84354
755.10        67.74557
755.52        67.75458
755.93         67.8831
756.35         68.0794
756.77        68.30054
757.18        68.41217
757.60        68.39012
758.02        68.45981
758.43        68.54307
758.85        68.20625
759.26        67.63285
759.68        67.67041
760.10         68.2648
760.51         68.6926
760.93        68.44638
761.34         68.5598
761.76        68.92316
762.18        68.62582
762.59        67.89966
763.01        67.80702
763.42        68.38972
763.84        68.61197
764.26        68.44125
764.67        68.39959
765.09        68.50516
765.50        68.51023
765.92        68.40189
766.33        68.07082
766.75        67.56532
767.16        67.40377
767.58        67.61895
768.00         67.8577
768.41        68.14087
768.83        68.81976
769.24        69.67859
769.66        70.07236
770.07        69.95708
770.49        69.56373
770.90        69.10493
771.32         69.0759
771.73        69.40906
772.15        69.38992
772.56        69.00713
772.97        68.75312
773.39        68.68651
773.80        68.69545
774.22        68.75684
774.63        68.94927
775.05        69.17796
775.46        69.35077
775.88        69.40714
776.29        69.39257
776.70        69.33633
777.12        69.31776
777.53        69.37366
777.95        69.45269
778.36        69.53856
778.77        69.56084
779.19        69.49957
779.60        69.44942
780.02        69.41084
780.43        69.21505
780.84        68.95959
781.26        69.01539
781.67         69.3187
782.09         69.4264
782.50        69.29128
782.91        69.06522
783.33        68.87066
783.74        68.92828
784.15        69.27879
784.57        69.76805
784.98        70.32156
785.39        70.81831
785.81        71.19416
786.22        71.25446
786.63        71.41536
787.04        71.36234
787.46        71.27182
787.87        71.08376
788.28        70.91289
788.70        70.91189
789.11        71.07135
789.52        71.37053
789.93        71.66917
790.35        71.72434
790.76         71.5139
791.17        71.10399
791.58        70.62914
792.00        70.34258
792.41        70.33266
792.82        70.35649
793.23        70.37333
793.65        70.76844
794.06        71.30519
794.47         70.9615
794.88        70.04134
795.29        69.80099
795.71        70.24097
796.12        70.81591
796.53        71.28741
796.94        71.51425
797.35        71.37478
797.76         70.9341
798.18        70.41924
798.59        70.13934
799.00        70.18675
799.41        70.46223
799.82        70.85931
800.23        71.19334
800.64        71.38647
801.06        71.47678
801.47        71.49157
801.88        71.37375
802.29        71.13904
802.70        70.79417
803.11         70.4394
803.52        70.24501
803.93         70.2633
804.34        70.46141
804.75        70.76005
805.17        71.05619
805.58        71.34463
805.99        71.42261
806.40        71.33993
806.81        71.65685
807.22        72.17356
807.63        71.79775
808.04        70.73319
808.45        70.29643
808.86        70.61074
809.27        70.97786
809.68        71.25245
810.09         71.4898
810.50        71.61897
810.91        71.63312
811.32        71.55199
811.73        71.41047
812.14        71.23756
812.55        71.02502
812.96          70.846
813.37        70.82499
813.78        70.98481
814.19        71.29543
814.60        71.64721
815.01        71.86472
815.42        71.90192
815.83        71.79298
816.24        71.61044
816.65        71.49919
817.05        71.51559
817.46        71.60005
817.87        71.70415
818.28        71.71398
818.69        71.60494
819.10         71.4063
819.51        71.21694
819.92        71.20933
820.33        71.41766
820.74        71.77611
821.14        72.12335
821.55        72.24866
821.96        72.10046
822.37         71.7644
822.78        71.38132
823.19        71.20271
823.60         71.3194
824.00        71.67422
824.41         72.1518
824.82         72.6662
825.23        73.14343
825.64        73.58451
826.04        73.94865
826.45        74.08999
826.86        74.01413
827.27        73.75798
827.68          73.361
828.08        72.92515
828.49        72.47429
828.90        72.01259
829.31        71.65992
829.72        71.58403
830.12        71.84058
830.53        72.36868
830.94        72.94757
831.35        73.12181
831.75        72.80552
832.16        72.08456
832.57        71.35499
832.97        71.22161
833.38        71.78049
833.79        72.82005
834.20         73.9694
834.60        74.59212
835.01        74.47518
835.42        73.86755
835.82        72.99855
836.23        72.21213
836.64        71.65624
837.04        71.24256
837.45        71.02321
837.86        71.15596
838.26        71.63982
838.67        72.39785
839.08        73.20564
839.48        73.64408
839.89        73.59278
840.29        73.16684
840.70        72.55161
841.11         72.0268
841.51        71.71078
841.92         71.5005
842.33        71.43491
842.73        71.58008
843.14        71.87419
843.54        72.37254
843.95         72.8863
844.35        73.15417
844.76        73.08047
845.17         72.7234
845.57        72.29369
845.98        72.12713
846.38        72.32387
846.79        72.77633
847.19        73.29166
847.60        73.45148
848.00        73.17773
848.41        72.58179
848.81        71.94082
849.22         71.6544
849.62        71.82883
850.03        72.31506
850.43        72.88801
850.84        73.01381
851.24         72.6326
851.65        71.89197
852.05         71.1345
852.46        70.87818
852.86        71.22387
853.27        71.95653
853.67        72.81348
854.07        73.64745
854.48          74.327
854.88        75.01476
855.29        75.42506
855.69        75.30524
856.10        74.50997
856.50        73.22244
856.90        71.86701
857.31        71.06649
857.71        70.94478
858.12        71.30814
858.52        71.94467
858.92        72.21676
859.33        71.91589
859.73        71.29057
860.13        70.50621
860.54        69.84809
860.94        69.42109
861.34        69.10332
861.75        68.93118
862.15        69.03413
862.55        69.38151
862.96        69.93451
863.36        70.50141
863.76        70.67058
864.17        70.36123
864.57        69.70609
864.97         68.9556
865.38        68.54093
865.78        68.60865
866.18        69.01084
866.58        69.57961
866.99        69.99953
867.39        70.18264
867.79        70.22758
868.19        70.14727
868.60        69.92999
869.00        69.59741
869.40        69.12392
869.80         68.7028
870.21        68.69917
870.61         69.2257
871.01        70.11703
871.41        70.98334
871.81         71.2288
872.22        70.73611
872.62        69.69672
873.02        68.48165
873.42        67.70858
873.82         67.5798
874.22        67.94514
874.63        68.55871
875.03        69.01852
875.43        69.20704
875.83        69.23712
876.23        69.29683
876.63        69.67674
877.03        70.41201
877.44        71.33928
877.84        72.20923
878.24        72.57935
878.64        72.34607
879.04        71.67196
879.44        70.82203
879.84        70.18856
880.24        69.88574
880.64        69.81326
881.04        69.86885
881.44        69.87254
881.84        69.77365
882.24        69.65604
882.65        69.53066
883.05        69.51246
883.45        69.58069
883.85         69.6692
884.25        69.80309
884.65        70.03956
885.05        70.38001
885.45        70.83071
885.85        71.24109
886.25        71.35534
886.65        71.11735
887.05        70.57323
887.45        70.00682
887.85        69.86531
888.25        70.23424
888.65        71.00303
889.04          71.779
889.44        71.89957
889.84        71.25375
890.24        70.05318
890.64        68.80882
891.04        68.25642
891.44        68.54488
891.84        69.48438
892.24        70.56552
892.64        70.92142
893.04        70.35012
893.44        69.12606
893.83        67.86946
894.23        67.52154
894.63        68.23848
895.03        69.72479
895.43         71.3485
895.83        71.97182
896.23        71.31582
896.63        69.84565
897.02         68.1638
897.42        67.21009
897.82        67.13572
898.22        67.67587
898.62        68.58807
899.01        69.48828
899.41        70.14864
899.81        70.71588
900.21         71.2215
900.61        71.70339
901.00        72.15833
901.40        72.47435
901.80        72.62646
902.20         72.6267
902.59        72.49377
902.99        72.26517
903.39        71.95573
903.79        71.57034
904.18        71.12724
904.58        70.66868
904.98        70.28288
905.38        70.10343
905.77        70.14268
906.17        70.38895
906.57        70.66791
906.96        70.70741
907.36        70.43407
907.76        69.93079
908.15        69.45085
908.55        69.36097
908.95        69.75681
909.34        70.53026
909.74        71.36594
910.14        71.82983
910.53        71.79314
910.93        71.38402
911.33        70.84426
911.72        70.55436
912.12        70.63168
912.52        70.94575
912.91        71.28877
913.31        71.31709
913.70        70.96722
914.10        70.38931
914.49        69.80089
914.89        69.50564
915.29         69.5857
915.68        69.92182
916.08        70.40417
916.47        70.86733
916.87        71.22241
917.26        71.51904
917.66        71.70683
918.05        71.70539
918.45        71.51671
918.84        71.18991
919.24        70.84523
919.64          70.788
920.03        71.09859
920.42        71.65707
920.82        72.30139
921.21        72.80673
921.61        73.07361
922.00         73.1802
922.40        73.11078
922.79        72.92765
923.19         72.6561
923.58        72.28062
923.98        71.87281
924.37        71.47363
924.77        71.13658
925.16        70.88284
925.55        70.70605
925.95         70.5377
926.34         70.3996
926.74        70.26926
927.13        70.33801
927.52        70.80855
927.92        71.66538
928.31        72.82403
928.70        73.95272
929.10        74.54332
929.49         74.4847
929.89         73.8972
930.28        73.07605
930.67        72.48421
931.07        72.25963
931.46        72.26551
931.85        72.38564
932.24        72.42389
932.64         72.3162
933.03         72.2151
933.42        72.04786
933.82        71.69533
934.21        71.17387
934.60        70.48255
934.99        69.93584
935.39        69.99966
935.78         70.7678
936.17        72.13542
936.56          73.578
936.96        74.11983
937.35        73.54936
937.74        72.13453
938.13        70.55475
938.53        69.71964
938.92        69.77742
939.31        70.51376
939.70        71.50748
940.09        71.98699
940.49        71.72532
940.88        70.99348
941.27        70.19118
941.66        69.91068
942.05        70.29128
942.44        71.13834
942.84        72.11106
943.23        72.69162
943.62        72.65276
944.01        72.19176
944.40        71.59305
944.79        71.29765
945.18         71.4277
945.57        71.81369
945.97        72.30188
946.36        72.76088
946.75        73.08974
947.14        73.35989
947.53        73.52584
947.92        73.48808
948.31        73.25095
948.70        72.84962
949.09        72.43835
949.48        72.25492
949.87        72.36658
950.26        72.74231
950.65        73.27382
951.04        73.75153
951.43        74.08022
951.82        74.25626
952.21         74.3688
952.60        74.58749
952.99         74.9003
953.38        75.20293
953.77        75.27645
954.16        74.75395
954.55        73.63387
954.94        72.20053
955.33        70.70553
955.72        69.49776
956.11        68.71462
956.50        68.21672
956.89        68.21426
957.28        69.03903
957.66        70.70089
958.05        72.99668
958.44        75.17955
958.83        75.83093
959.22        74.64703
959.61        72.13418
960.00         69.3201
960.39        67.69011
960.78        67.58057
961.16        68.59512
961.55        70.18597
961.94        71.51879
962.33        72.24791
962.72        72.62437
963.11        72.68305
963.49        72.49741
963.88        72.10159
964.27        71.45941
964.66        70.72173
965.04        70.13744
965.43        69.75143
965.82        69.54673
966.21         69.4752
966.60        69.40247
966.98        69.30537
967.37        69.21281
967.76        69.15926
968.15        69.17735
968.53        69.26281
968.92        69.34026
969.31        69.40684
969.69        69.49248
970.08        69.54552
970.47        69.56477
970.86        69.43947
971.24        69.00603
971.63        68.22954
972.02        67.25578
972.40        66.28904
972.79        65.65445
973.17        65.43923
973.56        65.53121
973.95        65.83304
974.33        66.19559
974.72        66.49445
975.11        66.73566
975.49        66.94102
975.88        67.12341
976.26        67.34251
976.65        67.52867
977.04        67.54964
977.42        67.16208
977.81        66.35986
978.19        65.23621
978.58        64.45137
978.96        64.76377
979.35        66.29453
979.74        68.90994
980.12         72.0784
980.51        74.10461
980.89        74.60074
981.28        73.80699
981.66        72.51785
982.05        72.18153
982.43        73.13142
982.82        74.89362
983.20          77.009
983.59        78.51362
983.97        79.16628
984.35        79.19878
984.74        78.63623
985.12        77.63893
985.51        76.31804
985.89          74.643
986.28        72.96777
986.66        71.69272
987.04        71.05058
987.43        70.96798
987.81        71.27313
988.20        71.43971
988.58        71.34879
988.96        70.96889
989.35        70.59932
989.73        70.70424
990.12        71.29707
990.50        72.28541
990.88        73.00607
991.27        72.42712
991.65        70.51825
992.03        67.71295
992.42        65.03745
992.80          63.813
993.18         64.4481
993.56        66.47335
993.95        69.15382
994.33        71.47543
994.71         72.7712
995.10         73.3106
995.48        73.07992
995.86        72.09142
996.24        70.57374
996.63        68.61229
997.01        66.66832
997.39        65.42487
997.77        65.03329
998.15        65.35894
998.54        66.28288
998.92        67.49654
999.30        68.79635
999.68        70.23707
1000.06        71.48659
1000.45         71.9673
1000.83        71.67867
1001.21        70.60562
1001.59        69.24595
1001.97        68.56315
1002.35        68.82567
1002.73         69.7771
1003.12        70.98203
1003.50        71.61081
1003.88        71.48045
1004.26        70.94908
1004.64        70.20964
1005.02        69.49613
1005.40        68.94186
1005.78        68.43675
1006.16        68.22205
1006.54         68.7578
1006.92         70.0254
1007.30        71.77426
1007.69        73.42227
1008.07         74.2448
1008.45        73.95554
1008.83        72.89246
1009.21        71.24259
1009.59        69.33203
1009.97        67.47241
1010.35        65.66582
1010.73        64.58184
1011.11        65.35354
1011.49        68.24225
1011.86        73.16828
1012.24        78.91879
1012.62        83.53661
1013.00        86.09501
1013.38        86.68351
1013.76        85.86213
1014.14         85.0291
1014.52         84.7017
1014.90        84.49177
1015.28        83.91503
1015.66        82.25919
1016.04        79.71356
1016.41        77.04312
1016.79        74.84976
1017.17        73.33163
1017.55        72.32295
1017.93        71.50536
1018.31        70.87537
1018.69        70.65145
1019.06        70.87054
1019.44        71.48573
1019.82        71.89034
1020.20        71.47111
1020.58        70.24319
1020.95        68.17754
1021.33        66.00055
1021.71        65.59361
1022.09        67.80625
1022.46        71.85903
1022.84        76.32314
1023.22        79.47529
1023.60        80.84132
1023.97        81.11369
1024.35        79.88168
1024.73        76.66719
