SpectraSmart Spectrum 2.9.0.0
--------- Device Information -----------
Spectrum Name :  反射率_0
Saving Time :  2024/05/01 16:11:14
Spectro-Module Model Name : SE2030-DUVN
Spectro-Module Serial Number : OS361AC55029948
Wavelength Start : 200
Wavelength End : 1025
Wavelength Unit : Wavelength(nm)
Spectrum Unit : Reflectance(%)
-----------Spectrum Setting ------------
Integration Time : 20ms
Average : 10
Boxcar : 0
Background removal :  enabled
linearity correction :  enabled
SC :  disabled
Intensity correction :  disabled
DWT denoise :  enabled
savitzky-golay :  disabled
FFT :  disabled
Running average :  disabled
Kalman :  disabled
High pass :  disabled
---------------BEGIN--------------------
Wavelength(nm)             Reflectance(%)
200.29               0
200.75       -92.99124
201.21       -74.27015
201.67       -39.55003
202.13       -12.02476
202.58        14.19402
203.04        36.52851
203.50        53.56322
203.96        64.52778
204.42        73.32854
204.88        92.00978
205.34        540.5468
205.80       -13.63789
206.26       -2.834104
206.72       -25.85107
207.18       -196.4929
207.64        352.6327
208.10        182.4366
208.55        151.6145
209.01         138.672
209.47        126.3164
209.93        111.7778
210.39        94.21885
210.85        77.75106
211.31        69.17027
211.77        77.87315
212.23       -69.14751
212.69        16.05056
213.14        28.64214
213.60        54.82224
214.06       -194.4818
214.52       -17.50248
214.98      -0.9600897
215.44        12.65316
215.90        45.68871
216.36        533.2244
216.81        -226.463
217.27       -301.6079
217.73        627.9706
218.19        128.4772
218.65        93.63499
219.11        110.6939
219.57        203.3374
220.02        610.8822
220.48        345.8317
220.94        128.6939
221.40         72.8796
221.86        54.40955
222.32        49.81105
222.77         52.1525
223.23        59.82248
223.69         71.2097
224.15        76.44957
224.61        71.73707
225.06        63.55701
225.52         58.2691
225.98        57.94661
226.44        62.11076
226.90        70.52963
227.36        81.39493
227.81        86.06518
228.27        81.49766
228.73        73.42372
229.19        67.17745
229.65        65.71264
230.10        68.56046
230.56         74.9513
231.02        83.28622
231.48        88.18779
231.93        86.99519
232.39        82.81803
232.85        78.25688
233.31        75.63864
233.77        75.11964
234.22        75.65499
234.68        77.04572
235.14        79.27714
235.60         82.5553
236.05        87.87611
236.51         95.4982
236.97        103.9211
237.43        110.3658
237.88        113.1684
238.34        112.8473
238.80        113.4414
239.26        116.6804
239.71        123.4939
240.17        132.4174
240.63        135.8774
241.08        127.5569
241.54        111.9938
242.00        99.83251
242.46        98.62175
242.91        110.3329
243.37        138.3257
243.83         186.306
244.28         219.012
244.74        202.4635
245.20        168.1231
245.66        141.2075
246.11        127.5865
246.57        122.8703
247.03        122.2308
247.48         121.922
247.94        110.6974
248.40        84.69978
248.85         54.9607
249.31        36.51984
249.77        37.42757
250.22        50.37722
250.68        66.59449
251.14        81.36758
251.59        94.26936
252.05        109.2364
252.51        135.3879
252.96        195.0253
253.42        300.3813
253.88        332.2523
254.33          260.62
254.79        203.4752
255.25        174.5255
255.70        158.5686
256.16        149.7984
256.62        143.0958
257.07        135.6704
257.53         129.516
257.99        124.7227
258.44        121.9182
258.90         122.809
259.35        125.9265
259.81         130.528
260.27        134.7703
260.72        136.3419
261.18        135.5435
261.63        132.8194
262.09         129.615
262.55        126.4945
263.00        123.4508
263.46        120.6956
263.91        117.8419
264.37        115.2226
264.83        112.7263
265.28        110.3846
265.74        108.4022
266.19        106.4625
266.65         104.725
267.11        103.0518
267.56        101.6074
268.02        100.8319
268.47        100.6378
268.93         100.819
269.38        100.8647
269.84        99.94949
270.30        97.94227
270.75        95.12714
271.21        92.05276
271.66        89.35197
272.12        87.30979
272.57        85.64579
273.03         84.3191
273.48        83.12471
273.94        82.03883
274.39          81.038
274.85        80.07275
275.31        78.86145
275.76        77.35475
276.22        75.75969
276.67        74.10841
277.13        72.72499
277.58        71.52066
278.04         70.4595
278.49        69.45681
278.95        68.61032
279.40        67.81023
279.86        67.15848
280.31         66.3708
280.77        65.26643
281.22        63.75737
281.68        62.06952
282.13        60.42006
282.59        59.30951
283.04        58.73252
283.50        58.62703
283.95        58.67777
284.41        58.51408
284.86        58.02089
285.32        57.38062
285.77        56.80779
286.22        56.71874
286.68        57.14857
287.13        57.88254
287.59        58.63756
288.04        58.90477
288.50        58.61744
288.95        57.90665
289.41        57.08183
289.86        56.41208
290.32        56.05969
290.77        55.91674
291.22        55.94848
291.68        56.07307
292.13        56.25778
292.59        56.59768
293.04        57.12255
293.50        57.93459
293.95        59.01024
294.40        60.30112
294.86        61.72011
295.31        63.14333
295.77        64.52061
296.22        65.84084
296.68        67.13642
297.13        68.41756
297.58        69.74001
298.04        71.14465
298.49        72.61055
298.95        74.16118
299.40        75.75609
299.85        77.37292
300.31        79.11657
300.76        81.09879
301.21        83.34109
301.67        85.79996
302.12        88.17127
302.58        90.03121
303.03         91.2446
303.48        91.99458
303.94        92.70212
304.39         93.8235
304.84        95.53951
305.30         97.6881
305.75        99.97349
306.20        101.9857
306.66        103.6156
307.11        104.9255
307.57        106.0959
308.02         107.235
308.47        108.4378
308.93        109.6482
309.38        110.7794
309.83        111.8256
310.29         112.802
310.74        113.7228
311.19        114.5958
311.65        115.3946
312.10        116.0919
312.55        116.6826
313.00        117.2812
313.46        118.0734
313.91        119.0588
314.36         120.181
314.82        121.1715
315.27        121.6158
315.72        121.4345
316.18        120.8242
316.63        120.0817
317.08        119.7437
317.53        119.9424
317.99        120.5231
318.44        121.2889
318.89        121.8721
319.35        122.1547
319.80        122.2716
320.25        122.3116
320.70        122.4231
321.16        122.6364
321.61        122.8882
322.06        123.1728
322.51        123.5228
322.97        123.8912
323.42        124.3228
323.87        124.6733
324.32        124.7264
324.78        124.4444
325.23         123.947
325.68        123.4002
326.13        123.1011
326.59         123.114
327.04        123.4174
327.49        123.9044
327.94        124.4139
328.39        124.8688
328.85        125.2558
329.30        125.6533
329.75        126.0029
330.20        126.3031
330.66        126.5128
331.11        126.7008
331.56        126.8437
332.01        126.9663
332.46        127.0799
332.92        127.2426
333.37        127.6733
333.82        128.3707
334.27         129.312
334.72        130.3329
335.17        131.1371
335.63        131.5979
336.08        131.8241
336.53        131.9581
336.98        132.3228
337.43        132.9987
337.88        133.8952
338.34        134.7596
338.79        135.2795
339.24        135.3258
339.69        135.0108
340.14        134.6172
340.59         134.579
341.05        134.9998
341.50        135.7941
341.95         136.672
342.40        137.1626
342.85         137.171
343.30        136.8569
343.75        136.5717
344.20        136.8576
344.66         137.802
345.11        139.1897
345.56        140.6595
346.01        141.6102
346.46        141.8785
346.91        141.6919
347.36        141.2769
347.81        140.9764
348.26        140.9193
348.72        140.9939
349.17         141.208
349.62         141.659
350.07        142.2833
350.52        143.0114
350.97        143.6048
351.42        143.6559
351.87        143.0987
352.32        142.1198
352.77        140.8675
353.22        139.5871
353.67         138.407
354.13         137.293
354.58        136.4096
355.03        136.1277
355.48         136.454
355.93         137.316
356.38        138.1845
356.83        138.1626
357.28        137.0769
357.73        135.1968
358.18        133.2065
358.63        132.1354
359.08        132.1631
359.53        132.9443
359.98        133.8658
360.43        133.9111
360.88        132.8132
361.33          130.94
361.78        128.7911
362.23        127.0611
362.68        125.9386
363.13         125.216
363.58        124.6434
364.03        123.8546
364.48        122.7433
364.93        121.4224
365.38        120.1233
365.83        119.1604
366.28        118.5762
366.73        118.2696
367.18        117.8823
367.63        116.8677
368.08        115.1706
368.53        113.0156
368.98        110.9261
369.43        109.6539
369.88        109.3285
370.33        109.7124
370.78        110.3276
371.23        110.3364
371.68        109.4948
372.13        108.0771
372.58        106.4764
373.03        105.2754
373.48        104.6173
373.93        104.2879
374.38        104.0912
374.83        103.7322
375.28        103.1143
375.72        102.3469
376.17        101.5264
376.62        100.7096
377.07        99.93011
377.52         99.1496
377.97        98.39944
378.42        97.74675
378.87        97.20026
379.32        96.75232
379.77        96.33743
380.22        95.84226
380.67        95.23994
381.11        94.56273
381.56        93.87189
382.01         93.2964
382.46        92.87517
382.91        92.57545
383.36        92.32241
383.81        91.99745
384.26        91.56904
384.71        91.06973
385.15         90.5544
385.60        90.16414
386.05        89.90202
386.50        89.71668
386.95        89.52618
387.40        89.21352
387.85         88.7618
388.29        88.17673
388.74        87.61788
389.19          87.104
389.64        86.64964
390.09        86.21992
390.54        85.82773
390.98        85.47918
391.43        85.22734
391.88        85.04861
392.33         84.8758
392.78        84.64244
393.23        84.34439
393.67        83.87675
394.12        83.39095
394.57        83.20528
395.02        83.21687
395.47        82.81697
395.91        82.12656
396.36        81.83076
396.81        81.96889
397.26        82.20419
397.71        82.33704
398.15        82.18909
398.60        81.81146
399.05        81.14644
399.50        80.46214
399.95        80.27448
400.39        80.58443
400.84        80.89809
401.29        81.00049
401.74        80.84473
402.18        80.36441
402.63        79.46369
403.08        78.44867
403.53        77.84051
403.97        77.72771
404.42        77.96513
404.87        78.32235
405.32         78.4427
405.76        78.22559
406.21        77.82996
406.66        77.38731
407.11         77.0858
407.55        77.02249
408.00        77.14552
408.45        77.23901
408.90        77.41588
409.34        77.46217
409.79        77.00217
410.24        76.21066
410.68         75.7463
411.13         75.6847
411.58        75.66525
412.03        75.63843
412.47        75.68147
412.92        75.73698
413.37        75.80878
413.81        75.84351
414.26        75.81696
414.71        75.70588
415.15        75.53307
415.60        75.33488
416.05        75.24107
416.49         75.2838
416.94        75.41846
417.39        75.57369
417.83        75.62228
418.28         75.5349
418.73        75.35091
419.17         75.1291
419.62        74.96946
420.07        74.89945
420.51        74.87697
420.96        74.90754
421.41        74.90891
421.85        74.84887
422.30        74.83922
422.74        74.85996
423.19        74.89958
423.64        74.96366
424.08        75.18435
424.53        75.48961
424.98        75.65739
425.42        75.62829
425.87        75.69888
426.31        75.83921
426.76        75.34159
427.21        74.51987
427.65        74.86803
428.10        76.04932
428.54         76.3307
428.99        75.75858
429.44        74.97268
429.88         74.3219
430.33        75.06173
430.77        76.56582
431.22        76.30025
431.66        74.55766
432.11        73.91869
432.56        74.47873
433.00        75.14471
433.45        75.69634
433.89        75.27056
434.34        74.02174
434.78         76.2037
435.23        75.52319
435.67        75.77661
436.12        75.32162
436.57        75.79173
437.01        76.90316
437.46        77.80341
437.90        76.96559
438.35        76.53576
438.79        76.22771
439.24        75.75781
439.68        75.28517
440.13        75.41628
440.57        76.06411
441.02        76.48983
441.46        76.56667
441.91        76.82874
442.35         77.1054
442.80        77.02419
443.24        76.65202
443.69        76.56165
444.13        76.75463
444.58        76.85623
445.02        76.83332
445.47        76.99345
445.91        77.32443
446.36        77.53995
446.80        77.57051
447.24        78.08727
447.69        77.98193
448.13        78.06091
448.58        78.02048
449.02        77.87879
449.47        77.70634
449.91        77.59285
450.36        77.58997
450.80        77.63602
451.25        77.70831
451.69        77.71793
452.13        77.65131
452.58        77.55085
453.02        77.44083
453.47        77.30316
453.91        77.11739
454.36        77.04911
454.80        77.17931
455.24        76.54356
455.69        76.96764
456.13        76.60637
456.58        76.27175
457.02        75.51511
457.46        75.98048
457.91        76.47905
458.35        77.13171
458.79        77.24273
459.24        76.76643
459.68        76.05318
460.13        75.42702
460.57        74.68204
461.01        74.61605
461.46        74.75077
461.90        75.13986
462.34        74.92603
462.79        74.59808
463.23        74.65915
463.68        75.12309
464.12        75.17778
464.56        74.79047
465.01         74.4492
465.45        74.21488
465.89        74.21769
466.34        74.30385
466.78        74.67657
467.22        73.87953
467.67        73.79732
468.11        73.82412
468.55        73.79411
468.99        73.63697
469.44         73.5481
469.88        73.55862
470.32        73.59808
470.77        73.64892
471.21        73.69846
471.65        73.71464
472.10        73.71255
472.54        73.68607
472.98        73.61989
473.42        73.50757
473.87        73.48696
474.31        73.48495
474.75         73.1765
475.20        72.70207
475.64        72.71895
476.08        73.13158
476.52        73.16999
476.97        72.76156
477.41        72.79404
477.85        72.12379
478.29        72.53629
478.74        72.30584
479.18        72.61831
479.62        72.18327
480.06        72.18159
480.50        72.38017
480.95        71.52911
481.39        72.17781
481.83        71.23201
482.27        71.67972
482.72        71.68283
483.16        71.82714
483.60        72.01034
484.04        72.10491
484.48        72.00713
484.93        72.10261
485.37        72.43246
485.81         71.9423
486.25        73.65802
486.69        73.09332
487.14        70.64359
487.58        69.65337
488.02        72.32198
488.46        71.23858
488.90        70.54176
489.34        71.75128
489.79        71.24958
490.23        71.13924
490.67        70.94006
491.11        71.03303
491.55        71.08652
491.99        71.04289
492.43        71.00211
492.88        70.94666
493.32        70.88293
493.76        70.81238
494.20        70.77576
494.64        70.77889
495.08        70.74137
495.52        70.70097
495.96         70.7808
496.41        70.89145
496.85        70.86861
497.29        70.76357
497.73        70.12951
498.17        70.46351
498.61        70.19369
499.05        69.86781
499.49        70.01659
499.93        70.52188
500.37        70.69722
500.82        70.53745
501.26        70.49099
501.70        70.52897
502.14        70.92064
502.58          70.606
503.02        70.54149
503.46        70.42804
503.90        70.24855
504.34        70.07666
504.78        70.04122
505.22         70.1485
505.66        70.42573
506.10        70.74975
506.54        70.69056
506.98        70.16305
507.42        70.12785
507.86        69.27416
508.30        69.07994
508.74         69.1673
509.18        69.47973
509.62        69.87914
510.06        70.16543
510.50        70.27898
510.94        70.26776
511.38        70.17204
511.82        70.05615
512.26        69.94733
512.70        69.81125
513.14         69.6762
513.58        69.59615
514.02        69.57854
514.46        69.62543
514.90        69.67546
515.34        69.61875
515.78        69.44016
516.22        69.17745
516.66        68.92353
517.10         68.8197
517.54        68.88712
517.98        69.09608
518.42        69.36508
518.86        69.48792
519.30        69.41119
519.74        69.46371
520.18        69.24613
520.62        69.16996
521.06        69.14263
521.50        69.21411
521.93        69.35847
522.37        69.46387
522.81        69.51594
523.25        69.57478
523.69        69.60185
524.13        69.50912
524.57         69.3018
525.01        69.01505
525.45        68.74355
525.89        68.63789
526.32        68.72501
526.76        68.95192
527.20        69.23186
527.64        69.42346
528.08        69.48235
528.52        69.45705
528.96        69.36981
529.40        69.25813
529.83        69.13813
530.27        69.00974
530.71        68.91421
531.15        68.93687
531.59        69.08608
532.03        69.33766
532.46        69.59325
532.90        69.71201
533.34        69.66291
533.78        69.43756
534.22         69.1367
534.66        69.03641
535.09        69.10611
535.53        69.04919
535.97        68.85838
536.41         68.7713
536.85        68.78782
537.28        68.76977
537.72        68.71775
538.16         68.6926
538.60        68.69096
539.04        68.69137
539.47        68.68212
539.91        68.67654
540.35        68.66166
540.79        68.68721
541.22        68.73106
541.66        68.63996
542.10        68.58669
542.54        68.45827
542.97        68.34368
543.41        68.32928
543.85        68.41488
544.29        68.57067
544.72        68.73225
545.16        68.83773
545.60        68.85147
546.04        68.79076
546.47        68.68176
546.91        68.58046
547.35        68.51508
547.79        68.45705
548.22        68.36069
548.66          68.301
549.10        68.27511
549.53        67.96542
549.97        68.00175
550.41        67.99834
550.84        68.13631
551.28        68.39469
551.72        68.69037
552.15        68.81987
552.59        68.78615
553.03         68.7293
553.46        68.67342
553.90        68.69603
554.34         68.8121
554.77        68.88034
555.21        68.80909
555.65        69.20438
556.08        68.74637
556.52        68.56458
556.96        68.31456
557.39        68.11749
557.83        68.01438
558.27        67.91855
558.70        67.83932
559.14        68.03782
559.57        67.93283
560.01        68.29247
560.45        68.73978
560.88        68.72261
561.32        68.34678
561.75         67.9138
562.19        67.62997
562.63        67.85817
563.06        68.41832
563.50         68.3045
563.93        67.63985
564.37        67.58178
564.80        68.06451
565.24        68.42319
565.68        68.35762
566.11        68.30843
566.55        68.27766
566.98        68.20512
567.42        68.16503
567.85        68.27972
568.29        68.53222
568.72        68.56352
569.16        68.49739
569.60         68.6516
570.03        68.45695
570.47        68.54901
570.90         68.8315
571.34        68.08559
571.77        68.48885
572.21        68.40257
572.64        68.40971
573.08        68.37263
573.51        68.47812
573.95        69.11961
574.38        68.50053
574.82        68.60722
575.25        68.72296
575.69        68.71191
576.12        68.73417
576.56         68.0258
576.99        68.71175
577.42        69.09783
577.86        68.85262
578.29        68.98045
578.73        69.71162
579.16        68.58131
579.60        67.96243
580.03         68.1067
580.47        68.71606
580.90        67.92529
581.33        69.28651
581.77        69.34562
582.20        69.76306
582.64        69.49176
583.07        68.97334
583.51        68.42388
583.94        68.22264
584.37        68.60879
584.81        69.51109
585.24        69.27419
585.68        68.93656
586.11        69.00949
586.54        69.21962
586.98        68.18645
587.41        67.89217
587.85        68.74674
588.28        69.06013
588.71        67.69238
589.15        68.70338
589.58        68.04361
590.01        67.97623
590.45         68.0365
590.88        68.45637
591.31        68.42888
591.75        68.09078
592.18        68.03123
592.61        67.62733
593.05        68.06901
593.48         67.8182
593.91        68.56877
594.35        68.03997
594.78        68.00374
595.21        67.86938
595.65        68.36208
596.08        68.51521
596.51        68.29669
596.94        67.84227
597.38        67.60797
597.81        67.82558
598.24        67.35871
598.68        67.85478
599.11        67.37085
599.54        68.54586
599.97        68.45406
600.41        67.80683
600.84        68.34908
601.27        68.06207
601.70        68.55515
602.14        68.62665
602.57        68.27847
603.00        67.81619
603.43        67.52618
603.87        67.93876
604.30        68.28592
604.73        68.15628
605.16        67.53822
605.60        67.76856
606.03         67.9809
606.46        68.37145
606.89        68.16833
607.32        67.59483
607.76         67.3035
608.19        67.40975
608.62        67.81351
609.05        67.52839
609.48         67.8884
609.92        67.45891
610.35        67.15221
610.78        68.21535
611.21        68.73336
611.64        68.21181
612.07        68.24767
612.50         68.4971
612.94        68.01712
613.37        67.91232
613.80        67.79149
614.23         67.5704
614.66        67.92191
615.09        67.66127
615.52         67.6124
615.96        67.43024
616.39        67.94125
616.82        67.87567
617.25        68.05045
617.68        68.04776
618.11        67.86692
618.54        67.55589
618.97        67.28714
619.40        67.17873
619.84        67.07759
620.27        66.98579
620.70        67.42778
621.13         68.2776
621.56        67.57693
621.99        66.85656
622.42        67.21056
622.85         67.5228
623.28        67.58871
623.71        67.08456
624.14        67.87952
624.57        67.71603
625.00        67.87988
625.43        68.00526
625.86        67.53426
626.29        67.48751
626.72        67.26728
627.15        67.08519
627.58        66.89095
628.01        66.69345
628.44        66.80636
628.87        67.16565
629.30         67.0074
629.73        67.03912
630.16        67.01318
630.59        67.12468
631.02        67.21541
631.45        67.28306
631.88        67.09809
632.31         67.1013
632.74        67.05035
633.17        66.89101
633.60        66.84454
634.03        66.86054
634.46           66.93
634.89        67.01579
635.32        67.06814
635.75        67.07114
636.18        67.03719
636.61        66.98464
637.04        66.94362
637.47        66.92466
637.89        66.92112
638.32        66.90514
638.75         66.8811
639.18        66.84219
639.61        66.75098
640.04        66.73743
640.47        66.67273
640.90        66.58163
641.33        66.70902
641.76        66.59276
642.18        66.61986
642.61        66.65079
643.04        66.61947
643.47        66.50075
643.90        66.79218
644.33        66.71292
644.76        66.77774
645.18        66.78384
645.61        67.01647
646.04        67.36383
646.47        67.28749
646.90        66.86248
647.33        66.68523
647.75        66.79253
648.18        66.83286
648.61         66.8003
649.04        66.80157
649.47        66.79813
649.89        66.88094
650.32        66.97754
650.75        66.64463
651.18        66.07262
651.61        66.21307
652.03        66.97876
652.46        67.12184
652.89         66.5918
653.32        66.45794
653.74        66.94107
654.17        66.37513
654.60        66.70987
655.03        67.26463
655.46        66.34121
655.88        66.94803
656.31        74.56776
656.74        73.58891
657.16        67.28543
657.59        65.42556
658.02        66.65009
658.45        67.03632
658.87        67.07554
659.30        66.08741
659.73        65.92076
660.15        67.29951
660.58        66.28056
661.01        66.35377
661.44        66.23447
661.86        66.22304
662.29         66.3027
662.72         66.4262
663.14        66.62643
663.57        66.84391
664.00        67.03579
664.42        67.11652
664.85         67.0742
665.27        66.90215
665.70        66.67466
666.13        66.53545
666.55        66.52777
666.98        66.59452
667.41        66.71245
667.83        66.84651
668.26        66.95911
668.69        67.06497
669.11        67.14907
669.54        67.20878
669.96        67.23309
670.39        67.15448
670.82        67.02582
671.24        66.98406
671.67        67.04629
672.09        67.14147
672.52        67.23061
672.94        67.22115
673.37         67.1025
673.80         66.9093
674.22        66.69902
674.65        66.53149
675.07        66.45274
675.50        66.43111
675.92        66.47178
676.35        66.57111
676.77         66.7184
677.20        66.90309
677.62        67.08662
678.05        67.19186
678.47        67.19688
678.90        67.12857
679.32        67.03377
679.75        66.94514
680.17        66.86596
680.60        66.91618
681.02        67.10988
681.45         66.7647
681.87        66.97755
682.30        66.87618
682.72        66.81997
683.15        66.79818
683.57         66.8317
684.00        66.89308
684.42        66.95199
684.85        67.00612
685.27        67.02879
685.70        67.03055
686.12        66.99853
686.54        66.92702
686.97        66.81417
687.39        66.72924
687.82        66.65103
688.24        66.51563
688.66        66.21499
689.09        66.33253
689.51        66.76122
689.94        66.99291
690.36        66.99242
690.78        67.03384
691.21        67.16451
691.63        67.29476
692.06        67.45457
692.48        67.77129
692.90        68.14247
693.33        68.28645
693.75        68.17188
694.17         67.8652
694.60        67.51408
695.02         67.3261
695.44        67.28036
695.87        67.29262
696.29        67.36313
696.71        66.86235
697.14        66.84772
697.56        67.02505
697.98        67.57665
698.41        67.85928
698.83        67.84049
699.25        67.89963
699.68        68.02474
700.10        68.08028
700.52        68.05753
700.94        67.97032
701.37        67.84615
701.79        67.83623
702.21        67.88432
702.64        67.81021
703.06        67.63155
703.48        67.44091
703.90        67.23518
704.33        67.39613
704.75        67.10818
705.17        67.17459
705.59        67.35085
706.01        67.60855
706.44        67.88731
706.86        68.13142
707.28        68.30017
707.70        68.39848
708.12        68.43153
708.55        68.39846
708.97        68.30705
709.39        68.17262
709.81        68.02554
710.23        67.92397
710.66        67.88864
711.08        67.92287
711.50        68.00264
711.92        68.10026
712.34        68.19984
712.76        68.30188
713.19        68.37625
713.61        68.42381
714.03        68.42028
714.45        68.37001
714.87        68.29637
715.29        68.23641
715.71        68.20228
716.13        68.19077
716.56        68.17475
716.98        68.19411
717.40        68.21947
717.82        68.24844
718.24        68.29067
718.66        68.36191
719.08        68.45695
719.50        68.56305
719.92        68.64289
720.34        68.64026
720.76        68.54761
721.19        68.38808
721.61        68.20936
722.03        68.07875
722.45        68.02493
722.87        68.04028
723.29        68.10795
723.71        68.19753
724.13        68.28877
724.55         68.3707
724.97        68.45802
725.39        68.57462
725.81        68.71576
726.23         68.8764
726.65        68.97524
727.07        68.88643
727.49        68.60521
727.91        68.18207
728.33        67.77628
728.75        67.63921
729.17        67.81831
729.59        68.23104
730.01        68.71629
730.43        68.99313
730.85        68.98119
731.27        68.77953
731.69        68.48212
732.10        68.23518
732.52        68.09788
732.94        68.01463
733.36        68.01405
733.78        68.13702
734.20        68.36347
734.62        68.72144
735.04        69.10561
735.46        69.21569
735.88        69.08273
736.30        69.05232
736.72        69.11405
737.13        69.05825
737.55        68.88083
737.97         68.6147
738.39         68.3959
738.81        68.67623
739.23        69.33424
739.65        69.57513
740.06         69.3211
740.48        69.23092
740.90         69.2788
741.32        69.09196
741.74        68.70893
742.16        68.44084
742.57        68.34608
742.99        68.29954
743.41        68.33425
743.83        68.55633
744.25        68.91241
744.67        69.23846
745.08        69.45764
745.50        69.50793
745.92        69.38172
746.34        69.04496
746.75        68.61336
747.17        68.35233
747.59        68.30065
748.01         68.3927
748.42        68.57487
748.84        68.71505
749.26        68.78104
749.68        68.81512
750.09        68.81583
750.51        68.79517
750.93        68.75738
751.35        68.69296
751.76         68.6425
752.18        68.67088
752.60        68.79203
753.01        69.00333
753.43        69.22823
753.85        69.37947
754.27        69.43554
754.68         69.4274
755.10        69.40359
755.52        69.43681
755.93        69.53407
756.35        69.65333
756.77        69.76564
757.18        69.82442
757.60        69.82166
758.02        69.84521
758.43        69.78615
758.85        69.70663
759.26        68.88363
759.68        68.98703
760.10        69.62325
760.51        69.91444
760.93        69.81513
761.34        69.16861
761.76        69.43597
762.18         69.3241
762.59        69.29639
763.01        69.37869
763.42        69.58696
763.84        69.71227
764.26        69.73421
764.67        69.68414
765.09        69.60841
765.50         69.5002
765.92        69.40791
766.33        69.18664
766.75        69.05939
767.16        69.07998
767.58        69.30713
768.00         69.5267
768.41        69.76654
768.83        70.41859
769.24        71.27494
769.66        71.42924
770.07        70.95372
770.49        70.75726
770.90        70.88483
771.32        70.79247
771.73        70.49654
772.15        70.28809
772.56        70.20659
772.97        70.16896
773.39        70.16574
773.80        70.24722
774.22          70.371
774.63        70.57268
775.05        70.76966
775.46        70.89725
775.88        70.90397
776.29        70.83199
776.70        70.72891
777.12        70.69936
777.53        70.78728
777.95          70.942
778.36        71.10636
778.77        71.16273
779.19        71.09061
779.60        70.92994
780.02        70.74236
780.43         70.6674
780.84        70.74522
781.26        70.80836
781.67        70.83503
782.09        71.05768
782.50        71.32285
782.91        70.98759
783.33        70.25124
783.74         70.0546
784.15        70.48965
784.57        71.03553
784.98        71.56387
785.39        72.02416
785.81        72.33527
786.22        72.28464
786.63        72.34039
787.04        72.24629
787.46        72.19267
787.87        72.10835
788.28        72.04576
788.70        72.06031
789.11        72.12773
789.52        72.25486
789.93        72.39082
790.35        72.44022
790.76          72.409
791.17        72.31224
791.58        72.16389
792.00        72.03119
792.41        71.95874
792.82        71.75391
793.23        71.48417
793.65        71.72505
794.06        72.29403
794.47        72.10368
794.88        71.36707
795.29        71.23302
795.71        71.67685
796.12        72.18159
796.53        72.56005
796.94        72.77045
797.35        72.72014
797.76        72.43381
798.18        72.07137
798.59        71.84697
799.00        71.83353
799.41        71.96578
799.82        72.19291
800.23        72.42281
800.64        72.60809
801.06        72.76001
801.47        72.87466
801.88        72.83545
802.29        72.63957
802.70         72.3204
803.11        71.98443
803.52        71.81103
803.93        71.85296
804.34        72.05646
804.75        72.36917
805.17        72.72022
805.58        73.10314
805.99         73.3627
806.40        73.45636
806.81        73.66771
807.22        73.83667
807.63         73.2019
808.04        72.04195
808.45        71.53591
808.86        71.82511
809.27        72.33953
809.68        72.84353
810.09         73.1443
810.50        73.12459
810.91        72.86303
811.32        72.47119
811.73        72.13339
812.14        71.93372
812.55         71.8159
812.96        71.83334
813.37        72.07591
813.78        72.52704
814.19        73.15026
814.60         73.7887
815.01        74.19946
815.42        74.32583
815.83        74.21558
816.24         73.9595
816.65        73.75459
817.05        73.68317
817.46        73.66814
817.87        73.69827
818.28        73.70718
818.69        73.67017
819.10        73.61781
819.51        73.55431
819.92        73.47603
820.33        73.38636
820.74        73.28062
821.14        73.15566
821.55        73.03703
821.96        72.92345
822.37        72.83949
822.78        72.79684
823.19        72.80892
823.60        72.88839
824.00        73.04582
824.41        73.27254
824.82        73.66497
825.23        74.20356
825.64        74.82499
826.04        75.41286
826.45        75.69979
826.86        75.64732
827.27        75.33006
827.68        74.82465
828.08        74.29055
828.49        73.77238
828.90        73.25551
829.31        72.84178
829.72        72.67165
830.12        72.79962
830.53        73.18697
830.94        73.64058
831.35        73.74852
831.75        73.43765
832.16        72.77116
832.57        72.13563
832.97         72.1217
833.38        72.81386
833.79        74.00782
834.20        75.28368
834.60        75.92539
835.01        75.70546
835.42        74.88595
835.82        73.79656
836.23        72.94146
836.64        72.49687
837.04        72.33556
837.45        72.37608
837.86        72.54617
838.26        72.79612
838.67        73.12803
839.08        73.47967
839.48        73.69682
839.89         73.7289
840.29        73.60379
840.70        73.38432
841.11        73.15661
841.51        72.97965
841.92        72.81241
842.33        72.73785
842.73        72.89298
843.14        73.24162
843.54        73.80061
843.95        74.38332
844.35        74.74564
844.76        74.78204
845.17        74.54728
845.57        74.20699
845.98        74.02225
846.38        74.07802
846.79        74.28406
847.19        74.50095
847.60        74.40628
848.00        73.96622
848.41        73.28858
848.81        72.61164
849.22        72.26485
849.62        72.34095
850.03        72.71017
850.43        73.21307
850.84        73.42615
851.24        73.30222
851.65        72.93304
852.05        72.54166
852.46        72.45045
852.86        72.71071
853.27        73.17972
853.67        73.69512
854.07        74.23874
854.48        74.71217
854.88        75.24861
855.29        75.55589
855.69        75.37525
856.10        74.56469
856.50        73.32465
856.90        72.07809
857.31        71.44019
857.71        71.52849
858.12        72.13731
858.52        73.02759
858.92        73.51004
859.33        73.34672
859.73        72.78966
860.13         72.0221
860.54        71.36412
860.94        70.94207
861.34        70.63971
861.75        70.49323
862.15         70.6315
862.55        71.02234
862.96        71.61788
863.36        72.25408
863.76        72.56269
864.17          72.451
864.57        72.02448
864.97          71.438
865.38        70.96871
865.78        70.74004
866.18        70.66125
866.58        70.67223
866.99        70.66866
867.39        70.64217
867.79        70.62494
868.19        70.60394
868.60        70.51371
869.00        70.34417
869.40        70.11452
869.80        69.89714
870.21        69.83647
870.61        70.01815
871.01        70.32895
871.41        70.65646
871.81        70.83655
872.22        70.81237
872.62        70.63374
873.02        70.33586
873.42        69.97312
873.82        69.60558
874.22        69.26701
874.63         68.9989
875.03        68.86044
875.43        68.87169
875.83        69.00253
876.23        69.30078
876.63        69.83517
877.03        70.56818
877.44        71.42955
877.84        72.20991
878.24        72.51213
878.64        72.26213
879.04        71.59509
879.44        70.79091
879.84        70.28276
880.24        70.18174
880.64        70.36459
881.04        70.70206
881.44        70.97077
881.84        71.09367
882.24        71.15443
882.65         71.1267
883.05        71.06817
883.45        70.96379
883.85        70.79362
884.25        70.65118
884.65        70.68669
885.05         70.9295
885.45        71.36001
885.85        71.84782
886.25        72.15882
886.65        72.21693
887.05        72.05327
887.45        71.83613
887.85        71.83908
888.25        72.11133
888.65        72.57385
889.04        72.97642
889.44        72.89767
889.84        72.28821
890.24        71.30373
890.64        70.29848
891.04        69.77116
891.44        69.82744
891.84        70.34568
892.24        71.00279
892.64        71.24366
893.04        70.93267
893.44        70.23801
893.83        69.53419
894.23        69.40536
894.63        69.93679
895.03        70.93594
895.43        71.99863
895.83        72.40386
896.23        71.97196
896.63        70.99265
897.02        69.83952
897.42        69.14767
897.82        69.00643
898.22          69.275
898.62        69.78591
899.01        70.28378
899.41        70.60887
899.81        70.85306
900.21        71.13372
900.61        71.63515
901.00        72.36495
901.40        73.19172
901.80        73.87048
902.20        74.05369
902.59        73.69789
902.99        72.93965
903.39        72.06196
903.79        71.51936
904.18         71.4221
904.58         71.6466
904.98        72.02167
905.38        72.28777
905.77        72.35675
906.17        72.34837
906.57        72.23226
906.96        71.96954
907.36        71.57141
907.76        71.04655
908.15        70.61033
908.55        70.57272
908.95        71.00667
909.34        71.84291
909.74        72.75623
910.14        73.28248
910.53        73.28227
910.93        72.86667
911.33        72.30424
911.72        72.02977
912.12         72.1664
912.52        72.57298
912.91        72.97474
913.31        72.91777
913.70        72.32675
914.10        71.39549
914.49        70.45837
914.89        69.99452
915.29        70.12778
915.68        70.69821
916.08        71.48292
916.47        72.12123
916.87         72.4706
917.26        72.63081
917.66        72.66272
918.05        72.66307
918.45        72.65946
918.84        72.62401
919.24        72.55782
919.64        72.56445
920.03        72.67719
920.42        72.87633
920.82         73.0807
921.21        73.17075
921.61        73.09098
922.00        72.87698
922.40        72.60139
922.79        72.47907
923.19        72.53465
923.58        72.69337
923.98        72.79675
924.37          72.558
924.77        71.97833
925.16        71.15811
925.55        70.31043
925.95        69.77422
926.34        69.69498
926.74        69.93781
927.13        70.48147
927.52        71.18128
927.92        71.93106
928.31        72.76273
928.70        73.51115
929.10        73.93284
929.49        73.99539
929.89        73.73049
930.28        73.31047
930.67        73.00819
931.07        72.89728
931.46        72.89243
931.85        72.96282
932.24        73.04601
932.64        73.10926
933.03        73.25655
933.42        73.31584
933.82        73.02375
934.21        72.37414
934.60        71.42041
934.99        70.60108
935.39        70.56871
935.78        71.45908
936.17        73.11622
936.56        74.88992
936.96        75.56418
937.35        74.85781
937.74        73.12686
938.13        71.18446
938.53        70.11633
938.92        70.10957
939.31        70.89452
939.70        71.99998
940.09        72.56399
940.49        72.32696
940.88        71.59937
941.27         70.7979
941.66         70.5361
942.05        70.96003
942.44        71.84924
942.84        72.87203
943.23         73.5375
943.62        73.60756
944.01        73.26415
944.40        72.72636
944.79        72.33593
945.18        72.20094
945.57        72.18689
945.97        72.22514
946.36        72.31379
946.75        72.39246
947.14         72.5142
947.53        72.58517
947.92        72.41557
948.31        71.99781
948.70        71.41233
949.09        70.88033
949.48        70.73437
949.87        71.05388
950.26        71.75813
950.65        72.66954
951.04        73.46179
951.43         73.9798
951.82         74.2342
952.21        74.33322
952.60        74.47876
952.99        74.68904
953.38        74.87914
953.77        74.83346
954.16        74.19689
954.55        72.98308
954.94        71.46062
955.33        69.97128
955.72        68.99818
956.11        68.66485
956.50        68.77184
956.89        69.28893
957.28        70.16335
957.66        71.31995
958.05        72.65461
958.44        73.70485
958.83        73.59792
959.22        72.22544
959.61        69.95898
960.00        67.59489
960.39        66.26049
960.78        66.20486
961.16        67.15534
961.55        68.67601
961.94        70.10973
962.33         71.1637
962.72        71.99725
963.11        72.57489
963.49        72.85433
963.88        72.79159
964.27        72.36529
964.66        71.71523
965.04        71.08503
965.43        70.53076
965.82        70.02606
966.21        69.57552
966.60         69.1553
966.98        68.79573
967.37        68.54194
967.76        68.37157
968.15        68.19808
968.53        68.00903
968.92        67.78613
969.31        67.64928
969.69        67.80922
970.08        68.25029
970.47        68.91008
970.86        69.53235
971.24        69.68109
971.63        69.19612
972.02        68.25656
972.40        67.17316
972.79        66.45408
973.17        66.24342
973.56        66.39707
973.95        66.72816
974.33        66.94789
974.72        66.91728
975.11        66.69721
975.49          66.493
975.88        66.64931
976.26        67.31402
976.65        68.30266
977.04        69.20033
977.42        69.32616
977.81        68.55241
978.19        67.07546
978.58        65.75697
978.96        65.65977
979.35        66.97311
979.74        69.47034
980.12        72.47506
980.51        74.03425
980.89        73.72266
981.28        71.94649
981.66        69.70818
982.05        68.73124
982.43        69.42333
982.82        71.22374
983.20        73.63345
983.59        75.60095
983.97        76.81962
984.35        77.56583
984.74        77.67831
985.12        77.04015
985.51        75.71201
985.89        73.65623
986.28        71.59821
986.66        70.56963
987.04        70.90498
987.43        72.37242
987.81        74.16255
988.20        74.64197
988.58        73.44461
988.96         70.8914
989.35        68.12889
989.73        66.96754
990.12        67.78475
990.50        70.13046
990.88        72.64584
991.27        73.12302
991.65        71.18267
992.03        67.59427
992.42        63.94604
992.80         62.4161
993.18        63.61504
993.56        66.79553
993.95        70.68016
994.33        73.32999
994.71         73.8197
995.10        72.73768
995.48        70.72431
995.86        68.85102
996.24        67.61903
996.63        66.74953
997.01         66.1516
997.39        65.70372
997.77        65.35538
998.15        65.22768
998.54        65.47328
998.92        66.26968
999.30        67.59125
999.68        69.30031
1000.06        70.94319
1000.45        71.75197
1000.83        71.65263
1001.21        70.76179
1001.59        69.51505
1001.97        68.74639
1002.35        68.71561
1002.73        69.12452
1003.12         69.8372
1003.50        70.53798
1003.88         71.0777
1004.26        71.63084
1004.64        71.82509
1005.02         71.0508
1005.40        69.31256
1005.78        66.76962
1006.16        64.26812
1006.54        63.37712
1006.92        64.46342
1007.30        66.99946
1007.69        69.92706
1008.07        71.69426
1008.45        71.74102
1008.83        70.63855
1009.21        68.79919
1009.59        66.92901
1009.97        65.43377
1010.35        64.09207
1010.73        63.41891
1011.11        64.34454
1011.49        67.03463
1011.86        71.50336
1012.24        76.52219
1012.62        80.07559
1013.00        81.31658
1013.38        80.45184
1013.76        78.33698
1014.14        76.84232
1014.52        76.65031
1014.90         77.2472
1015.28        78.06453
1015.66        78.07291
1016.04        77.07286
1016.41        75.69023
1016.79        74.30884
1017.17        73.01048
1017.55        71.65739
1017.93         69.8654
1018.31        67.71646
1018.69        66.16152
1019.06        65.88155
1019.44         66.7409
1019.82        67.65065
1020.20        67.50025
1020.58         66.2616
1020.95        63.99637
1021.33        61.74702
1021.71        62.03663
1022.09        65.91943
1022.46        72.34044
1022.84        78.99252
1023.22        83.05566
1023.60        83.83567
1023.97        82.15331
1024.35        78.51965
1024.73        74.14938
