SpectraSmart Spectrum 2.9.0.0
--------- Device Information -----------
Spectrum Name :  反射率_0
Saving Time :  2024/05/01 16:32:45
Spectro-Module Model Name : SE2030-DUVN
Spectro-Module Serial Number : OS361AC55029948
Wavelength Start : 200
Wavelength End : 1025
Wavelength Unit : Wavelength(nm)
Spectrum Unit : Reflectance(%)
-----------Spectrum Setting ------------
Integration Time : 20ms
Average : 10
Boxcar : 0
Background removal :  enabled
linearity correction :  enabled
SC :  disabled
Intensity correction :  disabled
DWT denoise :  enabled
savitzky-golay :  disabled
FFT :  disabled
Running average :  disabled
Kalman :  disabled
High pass :  disabled
---------------BEGIN--------------------
Wavelength(nm)             Reflectance(%)
200.29               0
200.75      -0.6243017
201.21        282.6165
201.67       -184.2439
202.13       -70.35524
202.58       -20.76654
203.04         13.1753
203.50        35.78434
203.96        46.82185
204.42        48.90208
204.88        39.25727
205.34       -280.8219
205.80        104.6326
206.26        80.38416
206.72        63.45712
207.18        13.35823
207.64        128.5348
208.10        78.83801
208.55        64.89147
209.01        58.35773
209.47        58.74427
209.93        63.81884
210.39        69.95387
210.85         79.3205
211.31        100.3232
211.77        175.5033
212.23       -436.6364
212.69       -60.52139
213.14       -20.04281
213.60        17.52321
214.06        -266.313
214.52       -61.12701
214.98        -42.4569
215.44       -29.16423
215.90        1.647433
216.36        446.9391
216.81       -239.2311
217.27       -290.2526
217.73        436.2866
218.19        43.29902
218.65        6.280879
219.11       -3.486901
219.57       -3.314116
220.02        31.36812
220.48        36.21334
220.94        16.23696
221.40         10.5189
221.86        9.530523
222.32        11.63072
222.77        16.52271
223.23        24.47599
223.69        34.86773
224.15        39.99651
224.61        36.56548
225.06        30.03676
225.52        25.21336
225.98         23.6565
226.44        24.81167
226.90        28.03708
227.36        32.61977
227.81         35.0551
228.27        33.75811
228.73        30.98913
229.19        28.54036
229.65        27.22839
230.10        26.85113
230.56        27.19216
231.02         28.0178
231.48        28.80202
231.93        29.19704
232.39        29.46905
232.85        29.96008
233.31         31.0804
233.77        32.72348
234.22        34.63986
234.68        36.46535
235.14        37.99707
235.60         39.3632
236.05        40.91733
236.51        42.99098
236.97        45.84089
237.43        49.02101
237.88        51.66775
238.34        53.39273
238.80        55.24825
239.26        57.96304
239.71        62.58735
240.17        68.05254
240.63        68.45786
241.08        60.00783
241.54        46.54539
242.00        37.14618
242.46         38.8301
242.91        53.87104
243.37        87.04314
243.83        143.3019
244.28        183.5388
244.74        167.6696
245.20        130.0585
245.66        99.63145
246.11        83.35435
246.57        76.29704
247.03        73.39961
247.48        70.58421
247.94        58.51213
248.40        34.66968
248.85          8.1114
249.31       -5.151955
249.77          3.7331
250.22        24.66982
250.68        47.10575
251.14        64.51599
251.59        74.42722
252.05        78.98776
252.51        80.14233
252.96        79.29651
253.42        89.81458
253.88        115.9788
254.33        124.2097
254.79        120.2948
255.25        112.7215
255.70        104.1192
256.16        97.37804
256.62        91.85307
257.07        87.38383
257.53        84.69579
257.99        82.78445
258.44        81.69704
258.90        82.26855
259.35        83.62672
259.81        85.66516
260.27        87.21646
260.72        86.82343
261.18        84.94146
261.63        81.99464
262.09        79.17017
262.55        77.13169
263.00        75.75575
263.46         74.8784
263.91        73.99516
264.37        72.97318
264.83        71.67455
265.28        70.23343
265.74        68.79606
266.19         67.1723
266.65        65.51895
267.11        63.75903
267.56        62.12226
268.02        61.10234
268.47        60.69515
268.93        60.72329
269.38        60.77914
269.84        60.15147
270.30        58.71729
270.75        56.70885
271.21        54.53456
271.66        52.66864
272.12        51.31364
272.57        50.23892
273.03        49.39451
273.48        48.62411
273.94        47.90428
274.39        47.26691
274.85        46.64648
275.31        45.83678
275.76        44.81192
276.22        43.67903
276.67        42.56797
277.13        41.81945
277.58        41.37764
278.04         41.1737
278.49        40.94364
278.95         40.4365
279.40        39.55908
279.86        38.50027
280.31        37.37736
280.77        36.46999
281.22        35.77329
281.68        35.27069
282.13        34.83385
282.59        34.39426
283.04        33.89621
283.50        33.43915
283.95        33.04674
284.41         32.8176
284.86        32.74559
285.32        32.79793
285.77        32.94086
286.22        33.19363
286.68        33.53349
287.13        33.91727
287.59         34.2533
288.04        34.34591
288.50        34.19586
288.95        33.82509
289.41        33.41686
289.86        33.13668
290.32        33.06894
290.77        33.16556
291.22        33.35209
291.68        33.49088
292.13        33.56662
292.59        33.68396
293.04        33.94841
293.50        34.56999
293.95        35.56463
294.40        36.85796
294.86        38.33297
295.31        39.81581
295.77        41.22629
296.22        42.57341
296.68        43.87058
297.13        45.12578
297.58        46.38182
298.04        47.66667
298.49        48.97819
298.95        50.35944
299.40        51.79155
299.85        53.26036
300.31        54.84478
300.76         56.6382
301.21        58.66182
301.67        60.89721
302.12        63.11442
302.58        64.97935
303.03        66.38065
303.48        67.44815
303.94        68.51239
304.39        69.95399
304.84        71.91276
305.30         74.2509
305.75        76.70538
306.20        78.89548
306.66        80.71777
307.11        82.23951
307.57        83.63146
308.02        85.02812
308.47        86.52195
308.93        88.05679
309.38        89.55249
309.83        90.99096
310.29        92.37169
310.74        93.70251
311.19        94.98666
311.65        96.19472
312.10        97.30374
312.55        98.31709
313.00        99.31148
313.46        100.4172
313.91         101.635
314.36        102.9183
314.82        104.0978
315.27        104.9161
315.72        105.3013
316.18        105.3697
316.63        105.2675
317.08        105.2951
317.53        105.5447
317.99         105.951
318.44        106.4341
318.89        106.8278
319.35         107.088
319.80         107.292
320.25        107.5092
320.70        107.8486
321.16        108.3164
321.61        108.8695
322.06        109.4493
322.51         109.991
322.97        110.4312
323.42        110.8218
323.87        111.1019
324.32        111.2033
324.78        111.1236
325.23        110.9374
325.68        110.7257
326.13        110.6426
326.59        110.7213
327.04        110.9844
327.49        111.3955
327.94        111.9092
328.39        112.4808
328.85        113.0521
329.30        113.6541
329.75        114.1706
330.20        114.5697
330.66        114.8398
331.11        115.0185
331.56        115.0417
332.01        114.9468
332.46        114.7702
332.92        114.6643
333.37        114.9936
333.82        115.7982
334.27        117.0112
334.72        118.4007
335.17         119.537
335.63        120.2336
336.08        120.6217
336.53        120.8298
336.98        121.1626
337.43        121.7159
337.88        122.4039
338.34        123.0626
338.79        123.5232
339.24        123.7005
339.69        123.6794
340.14        123.6514
340.59        123.8982
341.05        124.4724
341.50        125.3078
341.95        126.1812
342.40        126.7349
342.85        126.8946
343.30         126.786
343.75         126.656
344.20        126.8865
344.66        127.5562
345.11        128.5241
345.56        129.5923
346.01         130.424
346.46        130.9051
346.91        131.1479
347.36         131.239
347.81        131.3087
348.26        131.4198
348.72        131.5392
349.17        131.6703
349.62        131.9009
350.07        132.2089
350.52        132.5369
350.97         132.805
351.42        132.8662
351.87        132.6928
352.32        132.3808
352.77        131.8816
353.22         131.129
353.67        130.1692
354.13        129.0548
354.58        128.0586
355.03        127.7191
355.48         128.101
355.93        129.0807
356.38        130.1099
356.83        130.2617
357.28        129.3482
357.73        127.6617
358.18        125.8845
358.63        125.0357
359.08        125.2963
359.53        126.3175
359.98        127.4851
360.43          127.78
360.88        126.9262
361.33        125.2835
361.78        123.3468
362.23        121.8127
362.68        120.8708
363.13         120.311
363.58        119.8862
364.03        119.2306
364.48        118.2412
364.93        117.0434
365.38        115.8592
365.83         114.988
366.28        114.4753
366.73        114.2204
367.18        113.9121
367.63        113.0771
368.08        111.6615
368.53        109.8587
368.98        108.1007
369.43        107.0072
369.88        106.6839
370.33        106.9285
370.78         107.358
371.23        107.3021
371.68        106.5699
372.13        105.3953
372.58        104.0747
373.03        103.0437
373.48         102.412
373.93        102.0033
374.38        101.7188
374.83        101.4216
375.28        101.0396
375.72        100.6184
376.17        100.1196
376.62        99.40022
377.07        98.46621
377.52        97.36469
377.97        96.25989
378.42        95.42266
378.87        94.91486
379.32        94.65794
379.77        94.52318
380.22         94.2986
380.67        93.92433
381.11        93.47539
381.56        92.99045
382.01        92.55809
382.46        92.21209
382.91        91.90363
383.36        91.64267
383.81        91.45444
384.26        91.32084
384.71        91.23235
385.15        91.09081
385.60        90.79229
386.05        90.30789
386.50        89.68527
386.95        89.02875
387.40        88.50807
387.85        88.16186
388.29        87.88245
388.74        87.69811
389.19        87.44135
389.64         87.0788
390.09        86.64714
390.54         86.1746
390.98        85.69997
391.43        85.30492
391.88        84.92213
392.33        84.56223
392.78        84.32275
393.23        84.16225
393.67        83.85916
394.12        83.50193
394.57        83.27673
395.02        83.14233
395.47        82.80788
395.91        82.36418
396.36        82.16199
396.81        82.23372
397.26        82.44518
397.71         82.6123
398.15        82.50735
398.60        82.18983
399.05        81.55687
399.50        80.88068
399.95        80.82288
400.39        81.31918
400.84        81.54014
401.29        81.34155
401.74        81.10999
402.18        80.81924
402.63        80.14268
403.08        79.29666
403.53        78.76535
403.97         78.6125
404.42        78.70801
404.87         78.8907
405.32        78.92108
405.76        78.73504
406.21        78.43788
406.66         78.1053
407.11        77.92966
407.55        77.97934
408.00        77.94672
408.45        77.82634
408.90        78.09081
409.34        78.47158
409.79        77.91502
410.24         76.6786
410.68        76.05315
411.13        76.13986
411.58        76.24738
412.03        76.26714
412.47        76.33075
412.92        76.36096
413.37        76.34126
413.81        76.28099
414.26         76.2511
414.71         76.2413
415.15        76.25239
415.60        76.23181
416.05         76.1567
416.49        76.02806
416.94        75.85394
417.39        75.68352
417.83         75.5729
418.28        75.54096
418.73        75.58168
419.17        75.63746
419.62        75.61944
420.07        75.49891
420.51         75.2837
420.96        75.09883
421.41        74.99212
421.85        74.95049
422.30        75.18237
422.74        75.51025
423.19        75.33561
423.64        74.79414
424.08        74.89968
424.53        75.56182
424.98        75.75604
425.42        75.39217
425.87        75.28132
426.31        75.42329
426.76        74.88238
427.21        73.99857
427.65         74.3801
428.10        75.66853
428.54        76.08617
428.99        75.58598
429.44         74.6712
429.88        73.76765
430.33        74.26099
430.77        75.62714
431.22        75.58747
431.66        74.31547
432.11        73.76228
432.56        73.98668
433.00        74.49413
433.45        75.21133
433.89        74.23179
434.34        73.57579
434.78        75.36323
435.23        75.17619
435.67        75.21107
436.12        74.36486
436.57        74.70866
437.01           75.95
437.46        77.00992
437.90          76.254
438.35        75.67493
438.79        75.74277
439.24        75.27783
439.68        74.67776
440.13        74.60367
440.57        75.01728
441.02        75.28497
441.46        75.31284
441.91         75.5145
442.35        75.75092
442.80        75.87449
443.24        75.86633
443.69        75.86492
444.13          75.867
444.58         75.8812
445.02        75.88092
445.47        75.90803
445.91        76.02838
446.36        76.19592
446.80        76.36214
447.24        76.99507
447.69        77.48079
448.13         77.1995
448.58        76.80812
449.02        76.52799
449.47        76.62858
449.91        76.58083
450.36        76.43156
450.80        76.48925
451.25        76.68714
451.69         76.7111
452.13        76.53303
452.58        76.25275
453.02         75.9494
453.47        75.76662
453.91        75.72171
454.36        75.81089
454.80        75.95065
455.24        75.80927
455.69        75.68962
456.13        75.32565
456.58        75.02329
457.02        74.60323
457.46        74.79354
457.91        75.11911
458.35        75.53246
458.79         75.4892
459.24        74.95648
459.68        74.27233
460.13        73.75793
460.57        72.83704
461.01        73.07374
461.46        73.23957
461.90         73.5408
462.34         73.7709
462.79         73.1164
463.23         73.2532
463.68        73.80104
464.12        73.97282
464.56        73.72868
465.01        73.28466
465.45        73.32901
465.89        73.20886
466.34        72.97411
466.78         73.2628
467.22        72.22079
467.67        72.01691
468.11        71.89008
468.55        72.05981
468.99        72.31901
469.44        72.44043
469.88        72.40634
470.32        72.34118
470.77        72.28183
471.21        72.23227
471.65        72.19016
472.10        72.15698
472.54         72.1215
472.98        72.06767
473.42        71.98155
473.87        71.99952
474.31        72.04742
474.75        71.76284
475.20        71.26399
475.64        71.27987
476.08        71.76739
476.52        71.58505
476.97        71.39588
477.41        71.59373
477.85        70.87614
478.29        71.39577
478.74        71.65559
479.18        71.48663
479.62        70.71808
480.06        70.45816
480.50        70.78336
480.95        70.11554
481.39        70.88758
481.83           70.05
482.27        70.50019
482.72        70.54308
483.16          70.507
483.60        70.62276
484.04        71.03748
484.48        71.00803
484.93        70.79086
485.37        71.84637
485.81        71.17104
486.25        71.89323
486.69        71.36571
487.14        69.11294
487.58        68.46266
488.02        70.85155
488.46        70.01295
488.90         69.5235
489.34        70.72002
489.79        70.44492
490.23        70.16829
490.67        69.87537
491.11        69.85272
491.55        69.93898
491.99        70.05077
492.43        70.07677
492.88        69.98267
493.32        69.89472
493.76        69.84804
494.20        69.83929
494.64        69.86343
495.08         69.9537
495.52        70.08794
495.96         70.0263
496.41        69.76153
496.85        69.88772
497.29        69.97456
497.73        69.53358
498.17        69.49017
498.61        69.18256
499.05         68.9181
499.49        69.07526
499.93        69.53727
500.37        69.80949
500.82        69.83438
501.26        69.93204
501.70        70.07573
502.14        70.14664
502.58        69.95194
503.02        69.80409
503.46         69.6703
503.90        69.51171
504.34        69.38768
504.78        69.38853
505.22        69.50232
505.66        69.77155
506.10        70.11161
506.54        70.13924
506.98        69.76478
507.42        69.99004
507.86        69.29667
508.30        69.13181
508.74        69.06512
509.18        69.09837
509.62        69.18423
510.06        69.27795
510.50        69.36845
510.94        69.44838
511.38         69.5278
511.82        69.61925
512.26        69.71507
512.70        69.78857
513.14        69.79938
513.58        69.71336
514.02        69.53378
514.46        69.20733
514.90        68.93508
515.34        68.68852
515.78        68.54542
516.22        68.48819
516.66        68.50429
517.10        68.56212
517.54        68.64338
517.98        68.75409
518.42         68.8776
518.86        68.98571
519.30        69.06676
519.74        69.11535
520.18        69.13593
520.62        69.14597
521.06        69.14819
521.50        69.13345
521.93          69.104
522.37        69.05252
522.81        68.98718
523.25        68.92353
523.69        68.85319
524.13        68.75713
524.57        68.64334
525.01        68.52352
525.45        68.44357
525.89        68.47523
526.32        68.62142
526.76        68.84575
527.20         69.0834
527.64        69.23349
528.08        69.26606
528.52        69.21741
528.96        69.10541
529.40        68.96105
529.83        68.80128
530.27        68.63704
530.71         68.5124
531.15        68.51332
531.59        68.64729
532.03         68.8831
532.46        69.12875
532.90        69.25468
533.34        69.22746
533.78        69.03577
534.22        68.75195
534.66        68.60841
535.09         68.5731
535.53        68.37014
535.97         68.0406
536.41        67.89095
536.85        67.93252
537.28        68.02222
537.72        68.12546
538.16        68.19283
538.60        68.19083
539.04        68.32147
539.47        68.23267
539.91        68.26548
540.35        68.30367
540.79        68.36714
541.22        68.43164
541.66        68.37005
542.10         68.3559
542.54        68.26421
542.97         68.1693
543.41        68.13799
543.85        68.16891
544.29        68.24079
544.72        68.31989
545.16        68.38634
545.60        68.41405
546.04        68.42345
546.47        68.40859
546.91        68.34074
547.35        68.25144
547.79        68.19126
548.22        68.12369
548.66         68.0974
549.10         68.1018
549.53        67.79913
549.97        67.81391
550.41        67.79859
550.84        67.92805
551.28        68.13476
551.72        68.36943
552.15        68.51008
552.59          68.504
553.03        68.59781
553.46         68.2559
553.90        68.19956
554.34        68.28796
554.77        68.25763
555.21        68.04974
555.65        68.44571
556.08        68.11705
556.52        67.99816
556.96        67.74978
557.39        67.59224
557.83        67.55502
558.27        67.61121
558.70        67.46012
559.14        67.72405
559.57        67.70457
560.01         67.9436
560.45        68.11957
560.88        68.07195
561.32        67.87912
561.75        67.37917
562.19        66.85368
562.63        67.21394
563.06        68.19292
563.50        68.17577
563.93        67.27913
564.37        67.06625
564.80        67.53945
565.24         67.8501
565.68        67.88856
566.11        67.89657
566.55         67.8844
566.98        67.72159
567.42        67.53616
567.85         67.5494
568.29        67.76333
568.72        67.91436
569.16        68.03004
569.60        68.05146
570.03        67.89846
570.47        67.93046
570.90        68.18145
571.34         67.2993
571.77         67.7838
572.21        67.83887
572.64        68.22972
573.08        67.79899
573.51        67.88796
573.95        68.51922
574.38        67.73878
574.82        67.79741
575.25        68.33772
575.69        68.44756
576.12        68.31717
576.56        67.80184
576.99        68.42902
577.42        68.21245
577.86        68.27135
578.29        68.30761
578.73        69.15902
579.16         67.8558
579.60        67.63079
580.03        67.44274
580.47         67.8431
580.90        67.52499
581.33        68.30377
581.77        68.76353
582.20        68.53789
582.64        68.45944
583.07        68.27458
583.51         67.8716
583.94        67.54323
584.37        67.72244
584.81        68.40311
585.24        68.61919
585.68        68.30165
586.11        68.46525
586.54        68.43008
586.98        67.80962
587.41        67.45163
587.85        68.33075
588.28        68.44498
588.71         67.0958
589.15        68.14897
589.58         67.2602
590.01        67.27941
590.45        67.28299
590.88        67.67804
591.31        67.89903
591.75        67.82239
592.18        67.51183
592.61        67.09189
593.05        67.31245
593.48        67.61632
593.91        67.71025
594.35        67.35591
594.78        67.00008
595.21        66.99758
595.65        67.66983
596.08        67.74885
596.51        67.24297
596.94        67.17953
597.38         67.0344
597.81        67.34264
598.24        66.77987
598.68        67.34436
599.11        66.94698
599.54         68.2891
599.97        67.98249
600.41        67.12488
600.84        67.62057
601.27        67.36856
601.70        67.94183
602.14        68.06094
602.57        67.79852
603.00        67.50833
603.43        67.14941
603.87        67.31765
604.30        67.68947
604.73        67.26937
605.16        66.87895
605.60        66.96651
606.03         67.1322
606.46        67.32995
606.89        67.59186
607.32        66.76721
607.76        66.66812
608.19        67.02987
608.62        67.31197
609.05        67.28316
609.48        67.68382
609.92        66.82399
610.35        66.31315
610.78        67.95486
611.21        68.08755
611.64        67.34541
612.07        67.83287
612.50        67.80117
612.94        67.76546
613.37        67.28262
613.80        67.46362
614.23        67.02959
614.66        67.41607
615.09        67.20352
615.52         67.2449
615.96        67.16675
616.39        67.58434
616.82        67.67603
617.25        67.46755
617.68        67.81996
618.11        67.61128
618.54        67.20859
618.97        67.06026
619.40        66.78455
619.84        66.69874
620.27        66.65476
620.70        67.01825
621.13          67.672
621.56        67.35316
621.99        66.51601
622.42        67.18135
622.85        67.11155
623.28        67.07955
623.71        66.80347
624.14        67.42597
624.57        67.32933
625.00        67.55779
625.43        67.61977
625.86        67.31573
626.29        67.43074
626.72        67.03646
627.15        67.01254
627.58         66.7776
628.01        66.56344
628.44        66.59399
628.87        66.78304
629.30        66.72299
629.73        66.86387
630.16        66.90948
630.59        66.98812
631.02        67.00986
631.45        66.97161
631.88        66.90361
632.31        66.81039
632.74        66.69028
633.17        66.57936
633.60        66.53763
634.03        66.57677
634.46        66.68195
634.89         66.8141
635.32        66.90302
635.75        66.92702
636.18        66.90405
636.61        66.85052
637.04        66.80339
637.47        66.78147
637.89        66.74792
638.32        66.68204
638.75        66.68641
639.18        66.76337
639.61        66.56701
640.04        66.60373
640.47        66.53114
640.90        66.50362
641.33        66.46252
641.76        66.40198
642.18        66.42149
642.61        66.52286
643.04         66.5374
643.47        66.39061
643.90        66.90447
644.33         66.6283
644.76        66.62901
645.18        66.54123
645.61        66.71671
646.04        67.05626
646.47        67.01775
646.90        66.66431
647.33        66.54742
647.75        66.68962
648.18        66.76022
648.61        66.75925
649.04        66.76115
649.47        66.74397
649.89        66.89954
650.32         67.1191
650.75        66.77002
651.18        66.07265
651.61        66.17211
652.03        66.98058
652.46        67.19595
652.89        66.73547
653.32        66.54906
653.74        66.86874
654.17        66.54287
654.60        66.66348
655.03        67.53201
655.46        66.55492
655.88         66.5514
656.31         73.9445
656.74        71.89546
657.16        65.69547
657.59        64.55988
658.02        66.34454
658.45        67.02295
658.87        66.90503
659.30        65.75712
659.73        66.13223
660.15        67.32776
660.58        66.38186
661.01        66.30262
661.44         66.1024
661.86        66.08523
662.29        66.21941
662.72        66.30626
663.14        66.38158
663.57        66.57026
664.00        66.82782
664.42        66.93611
664.85        66.87895
665.27        66.71909
665.70        66.52861
666.13        66.41579
666.55        66.42175
666.98        66.49949
667.41        66.62587
667.83        66.76639
668.26         66.8848
668.69        66.99339
669.11        67.08317
669.54        67.16217
669.96        67.22002
670.39        67.18616
670.82        67.10024
671.24        67.07751
671.67        67.13184
672.09        67.19999
672.52        67.25828
672.94        67.23873
673.37        67.13505
673.80        66.97015
674.22        66.79149
674.65        66.64262
675.07        66.56199
675.50        66.52406
675.92        66.52775
676.35        66.55885
676.77        66.61034
677.20        66.67908
677.62        66.75064
678.05        66.78646
678.47        66.77699
678.90        66.73599
679.32        66.67558
679.75        66.63544
680.17        66.61761
680.60        66.63065
681.02        66.66757
681.45         66.6518
681.87        66.61333
682.30        66.66673
682.72        66.78755
683.15         66.7989
683.57        66.69492
684.00        66.55135
684.42         66.4354
684.85        66.42203
685.27        66.50786
685.70        66.71337
686.12        66.91873
686.54        66.88391
686.97        66.63539
687.39        66.45406
687.82        66.30985
688.24        66.36048
688.66        65.77446
689.09         65.8531
689.51        66.28645
689.94        66.53346
690.36        66.54905
690.78        66.65955
691.21        66.89575
691.63        67.03709
692.06        67.14228
692.48        67.52686
692.90        68.05361
693.33        68.22762
693.75        68.00402
694.17        67.56258
694.60        67.10492
695.02        66.88007
695.44        66.88434
695.87        67.03748
696.29        67.25504
696.71        66.87989
697.14         66.5988
697.56        66.81916
697.98        67.57121
698.41        67.90202
698.83        67.75484
699.25        67.65456
699.68        67.62989
700.10        67.56965
700.52        67.48823
700.94        67.37235
701.37        67.26741
701.79        67.36826
702.21        67.60986
702.64        67.78521
703.06        67.84214
703.48        67.76823
703.90        67.53675
704.33        67.56073
704.75        67.07733
705.17        66.98559
705.59        67.07027
706.01        67.28006
706.44        67.54437
706.86        67.76554
707.28        67.88958
707.70        68.00146
708.12        68.08656
708.55        67.96674
708.97        67.71221
709.39        67.65772
709.81        67.79199
710.23         67.8124
710.66        67.70628
711.08         67.6765
711.50        67.72107
711.92        67.75648
712.34         67.7785
712.76        67.80971
713.19        67.82153
713.61        67.81729
714.03        67.77679
714.45        67.70079
714.87        67.62777
715.29        67.61797
715.71        67.68146
716.13        67.80605
716.56        67.92012
716.98        67.98753
717.40        67.96271
717.82        67.86643
718.24        67.76762
718.66        67.77803
719.08        67.91553
719.50        68.13706
719.92        68.36153
720.34        68.45872
720.76        68.39651
721.19        68.22195
721.61        67.99964
722.03         67.8229
722.45        67.73269
722.87        67.71307
723.29        67.75471
723.71          67.835
724.13        67.92429
724.55        68.04867
724.97        68.22368
725.39        68.34628
725.81        68.37602
726.23        68.81498
726.65        68.70915
727.07        68.64507
727.49        68.35981
727.91         67.9271
728.33        67.48969
728.75        67.28973
729.17        67.38585
729.59        67.69602
730.01        68.09398
730.43        68.35358
730.85        68.40263
731.27        68.31779
731.69        68.15267
732.10        67.99078
732.52        67.87299
732.94        67.76432
733.36        67.70747
733.78        67.75657
734.20        67.90334
734.62        68.20903
735.04        68.58305
735.46         68.6544
735.88        68.49844
736.30        68.66676
736.72        69.06381
737.13        69.14108
737.55        68.85371
737.97        68.38926
738.39        67.96106
738.81        68.10738
739.23          68.731
739.65        68.96841
740.06        68.73376
740.48        68.72025
740.90        68.89246
741.32        68.84456
741.74        68.59612
742.16        68.44339
742.57        68.42826
742.99        68.41827
743.41        68.43774
743.83        68.58871
744.25        68.82344
744.67        68.98274
745.08        69.02758
745.50        68.96015
745.92        68.79285
746.34        68.48286
746.75        68.10677
747.17        67.86213
747.59        67.77498
748.01        67.80305
748.42        67.92735
748.84        68.07711
749.26        68.23527
749.68        68.40356
750.09        68.54989
750.51        68.68004
750.93        68.76033
751.35        68.70018
751.76        68.56444
752.18        68.53754
752.60        68.65016
753.01        68.84317
753.43        69.02425
753.85        69.10824
754.27         69.0743
754.68        68.95699
755.10        68.84505
755.52        68.86914
755.93        69.04266
756.35        69.31081
756.77        69.59505
757.18        69.71628
757.60        69.64104
758.02        69.57169
758.43        69.49376
758.85         69.1262
759.26        68.64502
759.68        68.71645
760.10        69.31533
760.51        69.57824
760.93        69.43284
761.34        69.14447
761.76        69.25599
762.18        68.95008
762.59        68.55641
763.01         68.7211
763.42        69.38435
763.84        69.64514
764.26        69.43952
764.67        69.17289
765.09        68.98985
765.50        68.90514
765.92        68.93546
766.33        68.88066
766.75        68.70336
767.16         68.7515
767.58        68.99027
768.00        69.19273
768.41        69.42081
768.83        69.91255
769.24        70.57816
769.66        71.13882
770.07        71.43968
770.49        71.26627
770.90        70.73824
771.32        70.41317
771.73        70.36275
772.15        70.17675
772.56        69.89945
772.97        69.86153
773.39        70.02067
773.80        70.16608
774.22        70.22977
774.63        70.32027
775.05        70.40248
775.46        70.49089
775.88        70.55289
776.29         70.5891
776.70        70.60218
777.12        70.63161
777.53        70.70399
777.95        70.79864
778.36        70.87534
778.77         70.8427
779.19        70.68808
779.60        70.43571
780.02        70.18306
780.43        70.08493
780.84        70.17369
781.26        70.40752
781.67        70.67119
782.09        70.72037
782.50        70.53295
782.91        70.22673
783.33        69.94304
783.74        69.91093
784.15        70.18822
784.57        70.65807
784.98        71.25935
785.39        71.84934
785.81        72.35161
786.22        72.57413
786.63        72.88361
787.04         72.8672
787.46        72.69259
787.87        72.32933
788.28        71.95985
788.70        71.84055
789.11        71.98972
789.52        72.36253
789.93        72.77746
790.35         72.9174
790.76        72.73364
791.17        72.31332
791.58        71.82262
792.00        71.53783
792.41        71.54816
792.82        71.67128
793.23         71.8246
793.65        72.12359
794.06         72.4158
794.47        72.16702
794.88        71.57474
795.29        71.37776
795.71         71.5583
796.12        71.83256
796.53        72.07079
796.94        72.21188
797.35        72.18832
797.76        72.03947
798.18        71.86255
798.59        71.76758
799.00        71.79893
799.41        71.90815
799.82        72.07449
800.23        72.26633
800.64        72.45543
801.06        72.63319
801.47        72.77679
801.88        72.73976
802.29        72.51384
802.70        72.15147
803.11        71.77858
803.52        71.59816
803.93        71.66396
804.34        71.91113
804.75        72.27763
805.17        72.63972
805.58        72.97016
805.99        73.23572
806.40        73.37939
806.81        73.37897
807.22        73.20859
807.63        72.75665
808.04        72.16611
808.45        71.81334
808.86        71.77463
809.27        71.90951
809.68        72.14125
810.09        72.35984
810.50        72.50778
810.91        72.62661
811.32         72.6959
811.73        72.68164
812.14         72.5928
812.55          72.424
812.96         72.2754
813.37        72.33005
813.78        72.61803
814.19        73.07737
814.60        73.56754
815.01        73.87255
815.42        73.93947
815.83        73.82533
816.24        73.60971
816.65        73.45129
817.05        73.41779
817.46        73.43706
817.87        73.49876
818.28        73.54614
818.69        73.55511
819.10        73.54319
819.51        73.51834
819.92        73.48502
820.33        73.44625
820.74        73.40247
821.14        73.32299
821.55        73.19139
821.96        73.00134
822.37        72.78004
822.78        72.60078
823.19        72.58797
823.60        72.77626
824.00        73.14421
824.41        73.57109
824.82        73.96753
825.23        74.26822
825.64        74.46241
826.04        74.56445
826.45        74.52834
826.86         74.3926
827.27        74.19312
827.68        73.90249
828.08        73.49906
828.49         72.9794
828.90        72.37694
829.31        71.91238
829.72        71.91808
830.12        72.47958
830.53        73.48082
830.94        74.55193
831.35        74.97574
831.75        74.58488
832.16        73.53362
832.57        72.38057
832.97        71.98033
833.38        72.49947
833.79        73.67323
834.20        75.00765
834.60        75.65397
835.01        75.34729
835.42        74.40645
835.82        73.21984
836.23        72.37093
836.64         72.0473
837.04        72.07481
837.45        72.31054
837.86        72.59061
838.26        72.83414
838.67        73.07185
839.08        73.27332
839.48        73.33849
839.89        73.24467
840.29        73.01146
840.70        72.71446
841.11         72.4563
841.51        72.29797
841.92        72.20119
842.33        72.22664
842.73         72.4706
843.14        72.88035
843.54        73.46851
843.95        74.06725
844.35        74.46843
844.76        74.57308
845.17        74.42922
845.57        74.15617
845.98        73.94356
846.38         73.8704
846.79        73.87112
847.19        73.89509
847.60        73.77193
848.00        73.49773
848.41        73.12425
848.81         72.7794
849.22        72.62669
849.62        72.71696
850.03         72.9664
850.43        73.28112
850.84        73.35526
851.24        73.18845
851.65        72.84167
852.05        72.51208
852.46          72.478
852.86        72.77178
853.27        73.26626
853.67        73.81323
854.07        74.41068
854.48        74.96532
854.88        75.60882
855.29        76.01798
855.69        75.87531
856.10        75.01999
856.50        73.66656
856.90        72.30575
857.31        71.65038
857.71         71.8344
858.12        72.63013
858.52        73.71571
858.92        74.24483
859.33        73.93342
859.73        73.07833
860.13        71.97205
860.54        71.10356
860.94        70.63455
861.34        70.39793
861.75        70.33616
862.15        70.41615
862.55        70.57306
862.96        70.83582
863.36        71.12558
863.76        71.20362
864.17        71.02436
864.57        70.64869
864.97        70.22552
865.38        70.02692
865.78        70.14896
866.18        70.49395
866.58        70.92123
866.99        71.17167
867.39        71.19764
867.79         71.0803
868.19        70.88264
868.60        70.66749
869.00        70.46136
869.40        70.22879
869.80        70.07749
870.21        70.20414
870.61        70.67467
871.01        71.37033
871.41        72.00207
871.81        72.12996
872.22        71.67892
872.62         70.7997
873.02        69.79548
873.42        69.17311
873.82        69.09531
874.22        69.43148
874.63        69.99462
875.03         70.4754
875.43        70.76699
875.83        70.94557
876.23        71.09615
876.63        71.35305
877.03        71.72875
877.44        72.12096
877.84        72.42952
878.24         72.4544
878.64        72.16846
879.04        71.67915
879.44          71.122
879.84        70.68864
880.24        70.43793
880.64         70.3111
881.04        70.31487
881.44        70.44535
881.84        70.68546
882.24        71.06457
882.65        71.41846
883.05        71.56116
883.45        71.40799
883.85        71.00704
884.25        70.62759
884.65        70.67996
885.05        71.23112
885.45        72.16775
885.85        73.16222
886.25        73.64531
886.65        73.45876
887.05        72.76012
887.45        71.91283
887.85        71.49026
888.25        71.63335
888.65        72.17361
889.04        72.78212
889.44        72.90762
889.84        72.43853
890.24        71.56454
890.64        70.63255
891.04        70.12206
891.44        70.14638
891.84        70.59277
892.24        71.14807
892.64        71.28754
893.04        70.90065
893.44        70.15372
893.83         69.4736
894.23        69.52314
894.63        70.38265
895.03        71.81933
895.43        73.31445
895.83        73.93358
896.23        73.43742
896.63        72.20038
897.02        70.68692
897.42        69.65369
897.82        69.23991
898.22        69.28471
898.62        69.67078
899.01        70.22725
899.41         70.8041
899.81        71.46752
900.21        72.24359
900.61        73.15121
901.00        74.12384
901.40        75.03555
901.80        75.66402
902.20        75.72011
902.59        75.19049
902.99         74.2114
903.39        73.06818
903.79        72.22224
904.18        71.81086
904.58        71.73923
904.98        71.90417
905.38        72.13224
905.77        72.34206
906.17        72.62261
906.57        72.84793
906.96        72.82048
907.36        72.50397
907.76        71.93745
908.15        71.40594
908.55        71.34748
908.95           71.86
909.34        72.81553
909.74        73.83289
910.14        74.36013
910.53        74.23904
910.93        73.63965
911.33        72.83962
911.72        72.27814
912.12        72.10415
912.52        72.17667
912.91        72.32932
913.31        72.28235
913.70        71.98335
914.10        71.57425
914.49        71.19958
914.89        71.04318
915.29        71.15659
915.68        71.43979
916.08         71.8542
916.47        72.36161
916.87        72.89509
917.26        73.45436
917.66        73.89253
918.05        73.98818
918.45        73.71304
918.84        73.16006
919.24        72.53848
919.64         72.3121
920.03        72.61372
920.42        73.28323
920.82        74.07316
921.21        74.62832
921.61        74.81525
922.00          74.745
922.40        74.48499
922.79        74.24365
923.19        74.08226
923.58        73.93784
923.98        73.75751
924.37        73.40857
924.77        72.91489
925.16        72.33524
925.55        71.80588
925.95        71.51152
926.34        71.53291
926.74        71.76692
927.13        72.19976
927.52        72.70621
927.92        73.20215
928.31        73.71694
928.70        74.13405
929.10        74.29469
929.49        74.19662
929.89        73.87086
930.28        73.46524
930.67        73.19255
931.07        73.11281
931.46        73.16284
931.85        73.32005
932.24        73.54158
932.64        73.77968
933.03        74.08375
933.42         74.2842
933.82        74.13322
934.21        73.61269
934.60        72.78872
934.99        71.99818
935.39        71.72513
935.78        72.10093
936.17        73.02853
936.56        74.09699
936.96        74.54558
937.35        74.20334
937.74        73.24364
938.13        72.18753
938.53        71.73252
938.92        71.96889
939.31        72.73833
939.70        73.61332
940.09        73.82763
940.49        73.20241
940.88        72.03174
941.27        70.82976
941.66        70.35254
942.05        70.77198
942.44        71.86552
942.84         73.2166
943.23        74.13809
943.62         74.3195
944.01        73.98152
944.40         73.4147
944.79        73.08915
945.18        73.14242
945.57        73.38406
945.97        73.68774
946.36        73.97173
946.75        74.15493
947.14        74.32143
947.53        74.40195
947.92        74.25001
948.31        73.85829
948.70        73.26107
949.09        72.67975
949.48         72.4486
949.87        72.64518
950.26        73.22686
950.65         73.9354
951.04        74.30647
951.43        74.20974
951.82        73.73103
952.21        73.23106
952.60        73.28268
952.99        73.95437
953.38        75.03783
953.77        76.02628
954.16        76.03629
954.55        74.90636
954.94        73.05533
955.33        71.03074
955.72        69.64467
956.11        69.14589
956.50        69.25847
956.89        69.91515
957.28        71.01125
957.66        72.43976
958.05        74.10515
958.44         75.5648
958.83        75.94165
959.22        75.06825
959.61        73.26444
960.00        71.16017
960.39        69.67384
960.78        69.04456
961.16        69.06744
961.55        69.55412
961.94        70.27349
962.33        71.07028
962.72        72.03859
963.11        72.93398
963.49        73.29487
963.88        72.97803
964.27        72.13283
964.66        71.12274
965.04        70.50021
965.43        70.36774
965.82         70.5489
966.21         70.9157
966.60        71.20105
966.98        71.30022
967.37        71.32118
967.76        71.17402
968.15        70.67645
968.53        69.85885
968.92        68.75063
969.31        67.73719
969.69        67.43678
970.08         67.9229
970.47        69.05379
970.86        70.34136
971.24         70.8797
971.63        70.35516
972.02        69.09708
972.40        67.60114
972.79        66.66399
973.17        66.51052
973.56        66.87915
973.95         67.5293
974.33        68.11752
974.72        68.46731
975.11        68.66035
975.49        68.84467
975.88        69.22594
976.26        69.90044
976.65        70.69978
977.04        71.26698
977.42        71.03084
977.81         69.9315
978.19        68.18356
978.58        66.67618
978.96        66.49226
979.35        67.82986
979.74        70.46924
980.12        73.76587
980.51        75.78765
980.89        76.07537
981.28         74.9757
981.66        73.36125
982.05         72.7896
982.43        73.61918
982.82        75.28435
983.20        77.37033
983.59        78.99838
983.97        79.91613
984.35        80.36654
984.74        80.12407
985.12        78.93895
985.51        76.89591
985.89        74.11133
986.28        71.40458
986.66        69.92869
987.04        70.07776
987.43        71.54393
987.81        73.66456
988.20        75.05376
988.58        75.28069
988.96        74.49695
989.35        73.32139
989.73        72.75446
990.12        73.01163
990.50        73.90829
990.88        74.57978
991.27        73.67794
991.65        71.13916
992.03        67.52909
992.42        64.28092
992.80         63.3064
993.18        65.08607
993.56         68.9567
993.95        73.53683
994.33        76.66749
994.71         77.3375
995.10         76.1204
995.48        73.70768
995.86        71.33889
996.24        69.58802
996.63        68.14091
997.01        66.99689
997.39        66.13058
997.77        65.51315
998.15        65.32918
998.54        65.54916
998.92        66.00393
999.30         66.6179
999.68        67.31834
1000.06        68.12258
1000.45        69.08813
1000.83        70.29495
1001.21        71.59975
1001.59        72.69817
1001.97        73.12547
1002.35        72.79696
1002.73        71.86465
1003.12        70.81271
1003.50        70.38043
1003.88        70.77855
1004.26        71.78709
1004.64        72.96559
1005.02        73.65427
1005.40        73.68781
1005.78        73.22872
1006.16        72.55938
1006.54        72.18156
1006.92        72.21578
1007.30        72.46267
1007.69        72.54427
1008.07        72.09486
1008.45        70.97324
1008.83        69.46757
1009.21        67.90002
1009.59        66.75362
1009.97        66.23842
1010.35        66.22687
1010.73        66.82216
1011.11        68.17704
1011.49        70.27871
1011.86        73.27601
1012.24          76.438
1012.62        78.85782
1013.00        80.12238
1013.38         80.1583
1013.76        79.62115
1014.14        79.91924
1014.52        81.41464
1014.90         83.7427
1015.28        85.71459
1015.66        85.23856
1016.04        82.24184
1016.41        78.01572
1016.79        74.04825
1017.17        71.45449
1017.55        70.13449
1017.93        69.45634
1018.31        69.28307
1018.69        69.34274
1019.06        69.39576
1019.44        69.75534
1019.82        69.70354
1020.20        68.35022
1020.58        65.62723
1020.95        61.29703
1021.33        56.53736
1021.71        54.78557
1022.09        57.81161
1022.46        64.62303
1022.84        72.37394
1023.22        77.19173
1023.60        78.11486
1023.97        76.22492
1024.35        72.49339
1024.73        68.88522
