SpectraSmart Spectrum 2.9.0.0
--------- Device Information -----------
Spectrum Name :  反射率_0
Saving Time :  2024/05/01 16:08:30
Spectro-Module Model Name : SE2030-DUVN
Spectro-Module Serial Number : OS361AC55029948
Wavelength Start : 200
Wavelength End : 1025
Wavelength Unit : Wavelength(nm)
Spectrum Unit : Reflectance(%)
-----------Spectrum Setting ------------
Integration Time : 20ms
Average : 10
Boxcar : 0
Background removal :  enabled
linearity correction :  enabled
SC :  disabled
Intensity correction :  disabled
DWT denoise :  enabled
savitzky-golay :  disabled
FFT :  disabled
Running average :  disabled
Kalman :  disabled
High pass :  disabled
---------------BEGIN--------------------
Wavelength(nm)             Reflectance(%)
200.29               0
200.75        61.82485
201.21        568.9059
201.67       -313.2831
202.13       -122.4393
202.58       -48.95942
203.04       -1.186822
203.50        29.81741
203.96        44.39624
204.42        46.21703
204.88        30.10571
205.34        -474.198
205.80        130.7642
206.26         90.4701
206.72        59.77118
207.18       -47.98164
207.64        240.0121
208.10        132.3903
208.55        104.6801
209.01        87.95962
209.47        73.43698
209.93        58.86131
210.39         41.3651
210.85        22.32769
211.31         1.57419
211.77       -43.64237
212.23        256.0793
212.69        73.08926
213.14        72.49545
213.60        131.9305
214.06       -574.3905
214.52       -87.83614
214.98       -56.61566
215.44       -50.89996
215.90       -61.36182
216.36        -278.968
216.81        40.26611
217.27        8.628455
217.73        15.77826
218.19        1.677588
218.65       -3.962638
219.11       -12.76291
219.57       -38.30455
220.02       -149.0255
220.48       -87.60726
220.94       -28.88636
221.40       -12.51069
221.86       -5.427493
222.32      -0.2987372
222.77        5.529239
223.23         13.5425
223.69        23.64296
224.15        29.01229
224.61        26.40134
225.06        20.62123
225.52        16.00288
225.98        14.00223
226.44        14.06993
226.90        15.48821
227.36         17.8237
227.81        19.18072
228.27        18.60212
228.73        17.28705
229.19        16.08051
229.65        15.27455
230.10         14.8113
230.56        14.80893
231.02        15.16519
231.48        15.74077
231.93        16.38503
232.39        16.93477
232.85        17.99123
233.31        20.30602
233.77        23.55982
234.22        27.30416
234.68        30.50351
235.14        32.11923
235.60        32.05537
236.05        30.40104
236.51        27.64273
236.97        26.21638
237.43        28.07256
237.88        32.86882
238.34        38.29623
238.80        41.83847
239.26        43.02692
239.71        42.32279
240.17        39.37669
240.63        35.41227
241.08         33.1917
241.54        33.38037
242.00        35.95302
242.46        41.35392
242.91        51.19006
243.37        68.01344
243.83        95.91393
244.28        120.4406
244.74        119.5655
245.20        105.9994
245.66        92.26711
246.11        81.16584
246.57        70.19707
247.03        54.82696
247.48        31.23372
247.94        4.440025
248.40       -11.99978
248.85        -15.0442
249.31       -3.978168
249.77        13.81644
250.22        30.71202
250.68        44.74718
251.14        54.18426
251.59          58.664
252.05        59.29518
252.51        55.28936
252.96        43.19025
253.42        31.25849
253.88        46.04543
254.33        68.03817
254.79        77.71337
255.25        78.93428
255.70        76.61712
256.16        74.03125
256.62        71.97928
257.07        71.03647
257.53         71.3717
257.99        72.00554
258.44        72.27595
258.90        72.21596
259.35        71.48586
259.81        70.59747
260.27        69.62142
260.72        68.75863
261.18        68.31923
261.63        67.83073
262.09        67.35335
262.55        66.50286
263.00        65.16977
263.46        63.66761
263.91        61.99205
264.37        60.51297
264.83        59.19651
265.28        57.98032
265.74        56.80327
266.19        55.27724
266.65        53.51676
267.11        51.57031
267.56        49.80433
268.02        48.88532
268.47        48.84293
268.93        49.40382
269.38        50.04437
269.84        49.87252
270.30        48.70154
270.75        46.81751
271.21        44.66222
271.66        42.77356
272.12        41.39306
272.57        40.30005
273.03        39.47147
273.48        38.81234
273.94        38.28849
274.39        37.90263
274.85        37.57417
275.31        37.09361
275.76        36.41447
276.22        35.63205
276.67        34.79081
277.13        34.08322
277.58        33.48162
278.04        32.98013
278.49         32.4992
278.95        32.04611
279.40        31.56444
279.86        31.10835
280.31         30.6411
280.77        30.20714
281.22         29.7585
281.68         29.3444
282.13        28.89813
282.59        28.41643
283.04        27.88474
283.50        27.37958
283.95        26.94995
284.41        26.72631
284.86        26.71422
285.32        26.87281
285.77        27.15699
286.22        27.55022
286.68        28.02184
287.13        28.53835
287.59        29.00541
288.04        29.22463
288.50        29.19253
288.95        28.93471
289.41        28.63502
289.86        28.47767
290.32        28.54561
290.77        28.78818
291.22        29.13157
291.68        29.44085
292.13        29.69838
292.59        30.00594
293.04        30.45058
293.50         31.2088
293.95        32.29601
294.40        33.65237
294.86        35.18859
295.31        36.77685
295.77        38.34519
296.22        39.88357
296.68        41.39205
297.13         42.8613
297.58        44.32518
298.04        45.82116
298.49        47.32418
298.95        48.83999
299.40        50.34631
299.85        51.83403
300.31        53.43923
300.76        55.34413
301.21        57.58616
301.67        60.13195
302.12        62.67019
302.58        64.73066
303.03        66.18252
303.48        67.20403
303.94        68.24119
304.39        69.84335
304.84        72.17231
305.30        75.02416
305.75        78.01504
306.20        80.57598
306.66        82.55233
307.11         84.0648
307.57        85.37482
308.02        86.75126
308.47        88.32289
308.93         89.9957
309.38         91.6261
309.83        93.10073
310.29        94.40662
310.74        95.59624
311.19        96.74887
311.65        97.94572
312.10        99.18268
312.55        100.4165
313.00        101.6527
313.46         102.914
313.91        104.1675
314.36        105.3975
314.82        106.4681
315.27         107.176
315.72        107.4783
316.18        107.4886
316.63        107.3463
317.08        107.3463
317.53        107.5762
317.99        107.9628
318.44        108.4569
318.89        108.9368
319.35        109.3528
319.80        109.7666
320.25        110.1454
320.70         110.439
321.16        110.6344
321.61        110.7448
322.06        110.8638
322.51        111.1796
322.97        111.6923
323.42        112.3785
323.87        113.0469
324.32        113.4043
324.78         113.373
325.23        113.0932
325.68        112.7038
326.13        112.4551
326.59         112.418
327.04        112.5802
327.49        112.9103
327.94        113.3781
328.39        113.9431
328.85         114.565
329.30        115.2506
329.75        115.8273
330.20        116.2459
330.66        116.4903
331.11        116.6453
331.56        116.7322
332.01        116.7961
332.46        116.8406
332.92        116.9175
333.37         117.229
333.82        117.7816
334.27        118.5661
334.72        119.4718
335.17        120.2834
335.63        120.8909
336.08        121.3736
336.53        121.7897
336.98        122.3219
337.43        123.0154
337.88        123.8137
338.34        124.5483
338.79        125.0452
339.24        125.2173
339.69        125.1324
340.14        124.9971
340.59        125.1292
341.05        125.5957
341.50         126.337
341.95        127.1218
342.40        127.5705
342.85        127.6128
343.30        127.3893
343.75        127.1759
344.20        127.3977
344.66        128.1315
345.11         129.205
345.56        130.3828
346.01        131.2702
346.46         131.732
346.91        131.9035
347.36        131.8647
347.81        131.7351
348.26        131.5972
348.72         131.437
349.17        131.3295
349.62        131.4745
350.07        131.8717
350.52         132.426
350.97        132.9874
351.42        133.2905
351.87        133.2577
352.32        133.0009
352.77        132.4855
353.22        131.6728
353.67        130.6281
354.13        129.4071
354.58        128.2826
355.03        127.7953
355.48        128.0203
355.93        128.8387
356.38        129.7551
356.83        129.9246
357.28        129.1583
357.73        127.7073
358.18        126.1506
358.63        125.3555
359.08        125.4752
359.53        126.2131
359.98        127.0314
360.43        127.0502
360.88        126.0473
361.33        124.3417
361.78        122.4149
362.23        120.9406
362.68        120.0852
363.13        119.6449
363.58        119.3247
364.03        118.6742
364.48         117.578
364.93        116.1886
365.38        114.7872
365.83        113.7699
366.28        113.2111
366.73        112.9835
367.18        112.7559
367.63        112.0185
368.08        110.6934
368.53         108.976
368.98        107.2839
369.43        106.2144
369.88        105.8696
370.33        106.0517
370.78         106.377
371.23        106.1857
371.68        105.2993
372.13        103.9515
372.58        102.4776
373.03        101.3654
373.48        100.7301
373.93        100.3907
374.38        100.1802
374.83        99.84541
375.28        99.29738
375.72        98.62182
376.17        97.88314
376.62        97.09808
377.07        96.29774
377.52        95.46851
377.97        94.67079
378.42        94.01446
378.87        93.51994
379.32        93.16068
379.77         92.8712
380.22        92.53751
380.67        92.12621
381.11         91.6736
381.56        91.19704
382.01        90.75314
382.46         90.3654
382.91        90.01028
383.36        89.68887
383.81         89.4052
384.26        89.14598
384.71        88.90639
385.15        88.63694
385.60        88.31136
386.05        87.90842
386.50        87.44538
386.95        86.95792
387.40        86.50818
387.85        86.11581
388.29        85.71661
388.74        85.38889
389.19        85.04161
389.64        84.65857
390.09        84.24644
390.54         83.8252
390.98        83.41202
391.43        83.07312
391.88         82.7774
392.33        82.50005
392.78        82.23527
393.23        81.98096
393.67        81.62667
394.12        81.26006
394.57        81.07935
395.02        80.97894
395.47        80.43967
395.91        79.63607
396.36        79.29031
396.81        79.46144
397.26        79.80521
397.71        80.09059
398.15        80.08595
398.60        79.82203
399.05        79.23955
399.50        78.59383
399.95        78.43649
400.39        78.74644
400.84        78.90453
401.29        78.77967
401.74        78.58549
402.18        78.29018
402.63        77.68439
403.08        76.95617
403.53        76.48429
403.97        76.32121
404.42        76.36619
404.87        76.48155
405.32        76.46492
405.76        76.26047
406.21           75.96
406.66        75.63287
407.11        75.43613
407.55        75.42899
408.00        75.39806
408.45         75.3327
408.90        75.49597
409.34        75.71488
409.79        75.36946
410.24        74.61195
410.68        74.21436
411.13        74.24046
411.58        74.26261
412.03        74.22858
412.47        74.24741
412.92        74.26859
413.37        74.28925
413.81         74.2709
414.26        74.21036
414.71        74.09007
415.15        73.93134
415.60        73.76385
416.05         73.7005
416.49        73.76579
416.94        73.91745
417.39         74.0863
417.83        74.14667
418.28        74.07293
418.73        73.91047
419.17        73.70748
419.62        73.54685
420.07        73.45074
420.51        73.37752
420.96         73.3711
421.41        73.37853
421.85        73.36316
422.30        73.51056
422.74        73.72208
423.19         73.6509
423.64         73.3912
424.08        73.60404
424.53        74.18644
424.98        74.41835
425.42        74.22475
425.87        74.14211
426.31        74.18564
426.76        73.77273
427.21        73.13206
427.65        73.29455
428.10        74.03594
428.54        74.25069
428.99        73.93803
429.44        73.36264
429.88        72.77014
430.33        73.20246
430.77        74.23374
431.22         74.0684
431.66        72.94774
432.11        72.66028
432.56        73.19577
433.00          73.846
433.45        74.50016
433.89        73.40968
434.34        73.13596
434.78        74.35269
435.23        73.85406
435.67        73.88591
436.12         73.5015
436.57        74.07396
437.01        75.36701
437.46        75.91392
437.90        75.61171
438.35        75.32871
438.79        75.16032
439.24        74.75827
439.68        74.27203
440.13        74.30012
440.57         74.8024
441.02        75.06955
441.46         74.9836
441.91        75.26509
442.35        75.73929
442.80        75.16222
443.24        74.89745
443.69        74.72916
444.13        75.01382
444.58        75.11951
445.02        74.99843
445.47        75.08265
445.91        75.39699
446.36        75.56258
446.80        75.48683
447.24        76.32035
447.69        76.28814
448.13        76.23273
448.58        75.81438
449.02        75.81746
449.47        76.19719
449.91        76.25295
450.36        76.00455
450.80          75.825
451.25        75.77483
451.69        75.70901
452.13        75.64169
452.58         75.6204
453.02        75.59573
453.47        75.53071
453.91        75.40292
454.36        75.23119
454.80        75.04527
455.24        74.90934
455.69        74.83121
456.13        74.78649
456.58        74.80463
457.02        74.65447
457.46         74.4523
457.91        74.72395
458.35         75.2075
458.79        75.17801
459.24        74.58917
459.68        73.99664
460.13        73.70107
460.57        72.72611
461.01        72.97199
461.46        73.05704
461.90        73.37542
462.34        73.29705
462.79         72.8978
463.23        73.12897
463.68        73.78192
464.12        73.92305
464.56        73.51563
465.01        72.87534
465.45          72.517
465.89        72.54424
466.34        72.85973
466.78        73.19711
467.22        72.26997
467.67        72.21954
468.11        72.39742
468.55         72.5138
468.99        72.43256
469.44        72.38486
469.88        72.39093
470.32        72.36904
470.77        72.33435
471.21        72.33043
471.65        72.33872
472.10        72.36034
472.54        72.36241
472.98        72.27796
473.42        72.09019
473.87        71.97844
474.31        71.89537
474.75        71.49088
475.20        70.92259
475.64          71.009
476.08        71.64457
476.52        71.71163
476.97        71.16496
477.41        71.63466
477.85        70.72644
478.29        71.16729
478.74        71.52225
479.18        71.50106
479.62        70.97593
480.06         70.7902
480.50        70.99644
480.95        70.25685
481.39        71.09672
481.83        69.76276
482.27         70.5526
482.72         70.5274
483.16        70.68685
483.60        70.89207
484.04        71.08256
484.48        70.97845
484.93        70.90236
485.37         71.3706
485.81        71.41512
486.25        72.17813
486.69        71.45786
487.14        69.20344
487.58        68.66615
488.02        70.67826
488.46        70.76569
488.90        69.80137
489.34        70.37411
489.79        70.36164
490.23         70.1929
490.67        69.90193
491.11        69.49166
491.55        69.76323
491.99        70.49939
492.43        70.73173
492.88        70.37012
493.32        69.95874
493.76         69.6572
494.20         69.5071
494.64        69.55357
495.08        69.75531
495.52        70.02693
495.96        70.18876
496.41        70.19137
496.85        70.21352
497.29        70.19408
497.73        69.87646
498.17        69.36344
498.61        69.02818
499.05        68.96387
499.49        69.07227
499.93        69.27988
500.37         69.4297
500.82         69.4912
501.26        69.60628
501.70        69.75093
502.14        69.77792
502.58        69.68625
503.02          69.579
503.46        69.47521
503.90        69.33671
504.34        69.21608
504.78        69.20371
505.22        69.30033
505.66        69.50894
506.10        69.75198
506.54        69.80488
506.98        69.58926
507.42        69.58778
507.86        69.02428
508.30        68.89065
508.74        68.96744
509.18        69.16768
509.62        69.39845
510.06         69.5505
510.50        69.58828
510.94         69.5369
511.38         69.4425
511.82        69.37903
512.26        69.36579
512.70        69.36182
513.14         69.3414
513.58        69.29004
514.02        69.20443
514.46        69.02454
514.90        68.90137
515.34        68.71925
515.78        68.53768
516.22        68.36292
516.66         68.2344
517.10        68.20653
517.54        68.28546
517.98         68.4538
518.42        68.66644
518.86         68.8464
519.30        68.96548
519.74        69.03397
520.18        69.06773
520.62        69.10148
521.06        69.13985
521.50          69.159
521.93        69.15238
522.37        69.10237
522.81        69.01471
523.25        68.91474
523.69        68.79182
524.13        68.62151
524.57        68.41768
525.01        68.19731
525.45        68.03387
525.89         68.0404
526.32        68.22572
526.76        68.54127
527.20        68.88533
527.64         69.0958
528.08        69.12714
528.52        69.03204
528.96        68.86103
529.40        68.69805
529.83        68.57193
530.27        68.47444
530.71        68.42393
531.15        68.46697
531.59        68.60106
532.03        68.81038
532.46        69.02017
532.90        69.12658
533.34        69.10517
533.78         68.9367
534.22        68.68609
534.66        68.57546
535.09         68.5692
535.53        68.39371
535.97        68.09164
536.41        67.97491
536.85        68.05815
537.28        68.17702
537.72        68.28417
538.16        68.36483
538.60        68.39348
539.04        68.36739
539.47        68.30154
539.91        68.26071
540.35        68.24084
540.79        68.25564
541.22        68.28181
541.66        68.18676
542.10        68.14169
542.54        68.02305
542.97        67.90907
543.41        67.90405
543.85        68.01159
544.29        68.14143
544.72        68.21758
545.16        68.46087
545.60        68.35772
546.04        68.30865
546.47         68.1999
546.91        68.10258
547.35        68.04244
547.79         67.9958
548.22        67.91788
548.66        67.87146
549.10        67.85388
549.53        67.55136
549.97        67.59608
550.41        67.61169
550.84        67.76119
551.28        68.05199
551.72        68.41212
552.15         68.5175
552.59        68.32476
553.03        68.59428
553.46        68.18704
553.90        68.20498
554.34         68.3313
554.77        68.34111
555.21        68.17163
555.65        68.67577
556.08         68.4724
556.52        68.28049
556.96        67.80978
557.39        67.55184
557.83         67.5546
558.27        67.61731
558.70        67.47514
559.14        67.74371
559.57        67.73104
560.01        67.97839
560.45        68.17125
560.88         68.1218
561.32        67.92387
561.75        67.49844
562.19        67.08302
562.63        67.43934
563.06        68.30166
563.50         68.1572
563.93        67.16074
564.37        66.89675
564.80        67.35929
565.24        67.63453
565.68        67.62225
566.11        67.63468
566.55        67.67977
566.98        67.58868
567.42        67.46711
567.85        67.50615
568.29         67.7064
568.72        67.84721
569.16        67.98168
569.60        67.99559
570.03        67.80403
570.47        67.91804
570.90        68.31463
571.34        67.16902
571.77        67.76529
572.21        67.66538
572.64        67.92596
573.08        67.49188
573.51         67.6817
573.95        68.40544
574.38        67.79141
574.82        67.77237
575.25        68.10322
575.69        68.57231
576.12        68.18253
576.56         67.5266
576.99        68.20779
577.42        67.93625
577.86        67.90768
578.29        68.04612
578.73        68.96308
579.16        67.93734
579.60        67.21626
580.03        67.11372
580.47        67.87634
580.90        67.09341
581.33        67.93597
581.77        67.92685
582.20        68.34917
582.64        68.21788
583.07        68.03483
583.51        67.62568
583.94        67.39388
584.37        67.64524
584.81        68.34373
585.24        68.45105
585.68        67.96297
586.11        68.08428
586.54        68.05563
586.98        67.10731
587.41        66.79501
587.85          67.911
588.28        68.09702
588.71        66.84744
589.15        67.96008
589.58        67.37354
590.01        67.24617
590.45        67.27919
590.88        67.67136
591.31        67.77065
591.75        67.53212
592.18        67.26509
592.61        66.98673
593.05        67.49586
593.48        67.40248
593.91        67.38036
594.35        67.15163
594.78        67.03854
595.21        66.89353
595.65        67.92324
596.08        67.32886
596.51        67.16177
596.94        67.29707
597.38        66.92431
597.81        67.02814
598.24        66.91658
598.68        67.19086
599.11        66.68124
599.54        67.87064
599.97        67.57925
600.41        67.03864
600.84        67.52282
601.27        67.28205
601.70        67.80121
602.14        67.92905
602.57        67.66579
603.00        67.37552
603.43        67.01878
603.87        67.23113
604.30        67.38404
604.73        67.09235
605.16         66.8196
605.60        66.82385
606.03        67.02476
606.46        67.25703
606.89        67.40972
607.32        66.64965
607.76        66.44861
608.19        66.58769
608.62        67.16547
609.05        67.22906
609.48        67.16082
609.92        66.95466
610.35        66.56232
610.78        67.86893
611.21        68.01855
611.64        67.43104
612.07        67.55349
612.50        68.04395
612.94         67.3241
613.37        67.21908
613.80        67.30277
614.23        66.86385
614.66        67.22987
615.09        66.95671
615.52        67.04112
615.96        67.10123
616.39        67.23088
616.82        67.20615
617.25        67.21766
617.68        67.32409
618.11        67.25229
618.54        67.06426
618.97        66.88847
619.40        66.81355
619.84        66.76963
620.27        66.76019
620.70        67.11085
621.13        67.78701
621.56        67.17288
621.99        67.05573
622.42        67.12268
622.85        67.20317
623.28        66.70203
623.71        66.55875
624.14        67.14429
624.57        66.96391
625.00        67.15546
625.43        67.17623
625.86        67.15627
626.29        67.21629
626.72        66.89184
627.15        67.06076
627.58         66.5465
628.01         66.2056
628.44        66.56361
628.87        66.85246
629.30        66.87434
629.73        66.63905
630.16        66.89162
630.59        66.81446
631.02        66.86703
631.45        66.81735
631.88        66.72427
632.31        66.56543
632.74        66.86013
633.17        66.65823
633.60        66.70824
634.03        66.72411
634.46        66.74255
634.89        66.75471
635.32        66.75946
635.75        66.76338
636.18        66.75248
636.61        66.73298
637.04         66.7192
637.47        66.71815
637.89        66.71516
638.32        66.66936
638.75        66.62081
639.18         66.5836
639.61        66.28433
640.04        66.25762
640.47         66.1573
640.90        66.14691
641.33        66.19046
641.76         66.2488
642.18        66.34628
642.61        66.46715
643.04        66.46143
643.47        66.28493
643.90        66.80926
644.33        66.59586
644.76        66.68739
645.18        66.68748
645.61        66.90315
646.04        67.22266
646.47        67.11675
646.90        66.67107
647.33        66.48138
647.75        66.58743
648.18        66.62534
648.61        66.58755
649.04        66.60944
649.47        66.63789
649.89        66.69254
650.32        66.71708
650.75        66.37135
651.18         65.8448
651.61        66.01038
652.03        66.78445
652.46         66.9555
652.89         66.4885
653.32        66.43287
653.74         66.9267
654.17        66.31842
654.60        66.83507
655.03        66.72047
655.46        65.87474
655.88        66.32441
656.31        72.76366
656.74        70.96912
657.16        65.52269
657.59        64.13035
658.02        66.09439
658.45        66.69216
658.87        66.49453
659.30        65.42721
659.73        66.36244
660.15        67.09863
660.58        66.69487
661.01        66.44275
661.44        66.04383
661.86         66.0284
662.29        66.36224
662.72        66.62553
663.14        66.74873
663.57        66.78735
664.00        66.75244
664.42        66.68336
664.85        66.59366
665.27        66.38773
665.70        66.13094
666.13        66.00129
666.55        66.03645
666.98        66.16537
667.41         66.3556
667.83        66.55853
668.26         66.7263
668.69        66.86945
669.11        66.97221
669.54        67.02731
669.96        67.02406
670.39        66.92149
670.82         66.7707
671.24        66.65011
671.67        66.60982
672.09        66.70896
672.52        66.89107
672.94        66.93089
673.37        66.80675
673.80        66.61676
674.22        66.43545
674.65        66.31725
675.07        66.30449
675.50        66.37043
675.92        66.47427
676.35        66.52374
676.77        66.49907
677.20        66.48934
677.62        66.41205
678.05        66.41469
678.47        66.47023
678.90        66.56125
679.32        66.65122
679.75        66.71205
680.17         66.7265
680.60        66.70751
681.02        66.66395
681.45         66.5941
681.87        66.51936
682.30        66.43356
682.72        66.36357
683.15        66.31952
683.57        66.31266
684.00        66.33163
684.42        66.37336
684.85        66.43526
685.27        66.48981
685.70        66.56469
686.12        66.60885
686.54        66.49883
686.97        66.25188
687.39        66.08248
687.82        65.99011
688.24        65.79628
688.66        65.52174
689.09        65.58124
689.51        66.11286
689.94         66.3658
690.36        66.35969
690.78        66.41131
691.21        66.56818
691.63        66.66121
692.06        66.75722
692.48        67.15723
692.90        67.72607
693.33        67.95919
693.75        67.80142
694.17        67.45339
694.60         67.0825
695.02        66.80148
695.44        66.79705
695.87        66.77339
696.29        66.73834
696.71         66.4416
697.14        66.06122
697.56        66.34605
697.98        67.13618
698.41        67.49033
698.83        67.33473
699.25         67.1778
699.68        67.09657
700.10        67.06055
700.52        67.09611
700.94        67.16026
701.37        67.22251
701.79        67.35909
702.21        67.48215
702.64        67.42617
703.06        67.22945
703.48        67.02068
703.90        66.80878
704.33        66.96095
704.75        66.65231
705.17        66.66095
705.59        66.73951
706.01        66.87184
706.44        67.03051
706.86        67.18684
707.28        67.30859
707.70        67.45865
708.12        67.59439
708.55        67.49146
708.97        67.21392
709.39        67.12978
709.81         67.2447
710.23        67.26331
710.66        67.17973
711.08        67.19975
711.50        67.30284
711.92        67.37275
712.34        67.39941
712.76        67.41475
713.19        67.41331
713.61        67.43593
714.03        67.46867
714.45        67.49627
714.87        67.52677
715.29        67.57672
715.71        67.64478
716.13        67.72878
716.56        67.77893
716.98        67.79825
717.40         67.7532
717.82        67.65418
718.24        67.54945
718.66        67.51717
719.08        67.57034
719.50         67.6828
719.92        67.79838
720.34        67.82529
720.76        67.74267
721.19        67.58437
721.61        67.40084
722.03        67.26246
722.45        67.20119
722.87        67.20765
723.29        67.26723
723.71        67.35615
724.13         67.4566
724.55        67.55499
724.97        67.66974
725.39         67.8308
725.81        68.02799
726.23         68.2468
726.65        68.38862
727.07        68.30074
727.49         67.9739
727.91        67.47326
728.33        66.96605
728.75        66.71542
729.17        66.78136
729.59        67.08311
730.01        67.48853
730.43        67.76413
730.85        67.83174
731.27        67.76691
731.69           67.62
732.10        67.47044
732.52        67.36225
732.94        67.26109
733.36        67.20357
733.78        67.26725
734.20        67.45089
734.62        67.71788
735.04         68.0055
735.46        68.20982
735.88        68.31087
736.30        68.34908
736.72        68.30526
737.13        68.23871
737.55        68.15643
737.97        67.85282
738.39        67.48486
738.81        67.80177
739.23          68.616
739.65        68.68208
740.06        68.02688
740.48         67.8226
740.90        68.06905
741.32        68.13091
741.74        67.97159
742.16         67.8833
742.57          67.881
742.99        67.85789
743.41        67.85456
743.83        67.95921
744.25        68.14961
744.67        68.33376
745.08        68.46651
745.50        68.46898
745.92        68.34097
746.34        68.08531
746.75        67.76203
747.17        67.52062
747.59        67.38331
748.01        67.32266
748.42        67.33998
748.84        67.39872
749.26        67.49564
749.68        67.63819
750.09        67.79282
750.51        67.92516
750.93        68.01617
751.35        68.06185
751.76        68.09438
752.18        68.16513
752.60        68.28659
753.01        68.45863
753.43        68.60688
753.85        68.65597
754.27        68.59418
754.68        68.45088
755.10        68.30905
755.52        68.29594
755.93        68.43418
756.35        68.65743
756.77        68.86355
757.18        69.00092
757.60        69.07913
758.02        68.87074
758.43         68.5086
758.85        68.78953
759.26        68.37225
759.68        68.14447
760.10        68.35349
760.51        68.61809
760.93        69.04387
761.34        68.41134
761.76        68.41617
762.18        68.12505
762.59        68.11319
763.01        68.23251
763.42        68.47472
763.84        68.63174
764.26        68.68074
764.67        68.62324
765.09        68.52718
765.50           68.62
765.92        68.86113
766.33        68.63955
766.75        67.94556
767.16        68.23157
767.58        68.25715
768.00        68.61295
768.41        68.90514
768.83        69.39986
769.24        69.95484
769.66        70.23471
770.07        70.20704
770.49        69.87997
770.90        69.42549
771.32        69.34282
771.73        69.61087
772.15        69.65508
772.56        69.47086
772.97        69.44625
773.39        69.57188
773.80        69.68007
774.22        69.72263
774.63        69.78899
775.05        69.83758
775.46        69.87543
775.88        69.87418
776.29        69.85493
776.70         69.8241
777.12        69.82274
777.53        69.87544
777.95        69.94382
778.36        70.01561
778.77        70.04884
779.19        70.03644
779.60        69.99014
780.02        69.90858
780.43        69.84249
780.84        69.81823
781.26        69.67788
781.67        69.46885
782.09        69.61414
782.50         69.9573
782.91        69.64696
783.33        68.89083
783.74         68.7945
784.15        69.44078
784.57        70.20542
784.98        70.90662
785.39        71.44923
785.81        71.73308
786.22        71.56343
786.63        71.45028
787.04        71.21912
787.46         71.0859
787.87        70.96078
788.28        70.90152
788.70        70.96707
789.11        71.12583
789.52        71.38907
789.93        71.66062
790.35        71.76475
790.76        71.69215
791.17         71.4767
791.58        71.19751
792.00        71.03329
792.41        71.05135
792.82        71.01479
793.23        70.92612
793.65        71.27154
794.06        71.82478
794.47        71.48898
794.88        70.54263
795.29        70.24902
795.71        70.60165
796.12        71.04288
796.53        71.37354
796.94        71.54471
797.35        71.46011
797.76        71.14981
798.18        70.79317
798.59        70.62844
799.00        70.72742
799.41        71.01524
799.82        71.38914
800.23        71.67308
800.64         71.7999
801.06        71.79924
801.47         71.7404
801.88         71.6373
802.29        71.51877
802.70        71.37951
803.11        71.24016
803.52        71.14056
803.93        71.10007
804.34        71.11098
804.75        71.19005
805.17        71.38841
805.58        71.73845
805.99        72.04121
806.40         72.2212
806.81        72.51095
807.22        72.72916
807.63        72.13831
808.04        71.00129
808.45        70.47159
808.86        70.69501
809.27        71.09959
809.68        71.51907
810.09        71.88786
810.50        72.10755
810.91        72.20891
811.32        72.19445
811.73        72.06854
812.14        71.86031
812.55        71.56049
812.96        71.28571
813.37        71.24529
813.78        71.47969
814.19        71.93158
814.60        72.44516
815.01        72.77092
815.42        72.84643
815.83         72.7356
816.24         72.5228
816.65        72.37865
817.05        72.37116
817.46        72.41509
817.87        72.49818
818.28         72.5653
818.69        72.59225
819.10        72.60188
819.51        72.58369
819.92        72.51136
820.33        72.38342
820.74        72.20522
821.14        71.99819
821.55        71.82078
821.96        71.68251
822.37        71.60677
822.78        71.58817
823.19        71.60629
823.60        71.66635
824.00        71.78674
824.41        71.98907
824.82         72.4206
825.23         73.0646
825.64        73.82761
826.04        74.54628
826.45        74.87785
826.86        74.76329
827.27        74.31269
827.68        73.62049
828.08        72.87428
828.49        72.15153
828.90        71.44323
829.31        70.91186
829.72        70.79227
830.12        71.14734
830.53        71.90379
830.94         72.7817
831.35        73.20528
831.75        73.03308
832.16        72.36104
832.57        71.60211
832.97        71.40013
833.38        71.87405
833.79        72.81232
834.20        73.84869
834.60         74.3606
835.01        74.14745
835.42        73.45671
835.82        72.56045
836.23        71.86177
836.64        71.50244
837.04        71.36872
837.45        71.40041
837.86        71.56734
838.26        71.83005
838.67        72.17374
839.08        72.50888
839.48        72.64279
839.89        72.52608
840.29        72.21342
840.70        71.81671
841.11        71.49316
841.51        71.31561
841.92        71.21667
842.33        71.24263
842.73        71.46838
843.14        71.83611
843.54        72.38201
843.95        72.91872
844.35        73.20142
844.76        73.13667
845.17          72.779
845.57         72.3362
845.98         72.1372
846.38        72.27714
846.79        72.64998
847.19         73.0616
847.60        73.08911
848.00        72.66924
848.41        71.94061
848.81         71.1825
849.22        70.79217
849.62        70.87777
850.03        71.27531
850.43        71.81684
850.84         72.0705
851.24        71.97349
851.65        71.62943
852.05        71.21091
852.46        70.95708
852.86        70.93173
853.27        71.04703
853.67        71.24455
854.07        71.62955
854.48        72.12856
854.88        72.84279
855.29        73.44101
855.69        73.54828
856.10        72.95798
856.50         71.8778
856.90        70.74061
857.31        70.19772
857.71        70.37265
858.12        71.02432
858.52        71.89903
858.92        72.29679
859.33        71.98427
859.73        71.25046
860.13        70.26541
860.54        69.31333
860.94        68.52872
861.34        67.80798
861.75        67.30975
862.15        67.35781
862.55        67.95981
862.96        69.02051
863.36        70.17664
863.76         70.7346
864.17        70.52976
864.57        69.74999
864.97        68.77483
865.38        68.26128
865.78        68.41659
866.18        69.02537
866.58        69.79971
866.99        70.21692
867.39        70.14336
867.79        69.77272
868.19        69.25925
868.60         68.7786
869.00         68.3959
869.40        68.02866
869.80        67.79208
870.21        67.90803
870.61        68.43809
871.01        69.26713
871.41        70.04993
871.81         70.2563
872.22        69.78828
872.62        68.80246
873.02        67.66071
873.42        66.97571
873.82        66.93385
874.22        67.38009
874.63         68.0414
875.03        68.47106
875.43        68.54566
875.83         68.3986
876.23        68.24297
876.63        68.40686
877.03        68.95091
877.44        69.71957
877.84        70.48676
878.24        70.84426
878.64        70.68962
879.04        70.16299
879.44        69.50816
879.84         69.0856
880.24        68.98893
880.64        69.11875
881.04        69.33253
881.44        69.39137
881.84        69.24023
882.24         68.9794
882.65        68.69456
883.05         68.6356
883.45        68.81753
883.85        69.12991
884.25        69.52017
884.65        69.93369
885.05        70.33993
885.45        70.77155
885.85        71.10844
886.25        71.14589
886.65        70.85196
887.05        70.26877
887.45        69.65572
887.85        69.42434
888.25        69.65942
888.65        70.26381
889.04        70.92171
889.44         71.0844
889.84        70.65294
890.24        69.79996
890.64        68.90263
891.04         68.5043
891.44        68.71926
891.84          69.403
892.24        70.19606
892.64        70.48965
893.04        70.13876
893.44        69.33436
893.83        68.50655
894.23        68.31872
894.63        68.86951
895.03        69.93993
895.43        71.07668
895.83        71.46883
896.23        70.91944
896.63        69.76849
897.02        68.42547
897.42        67.56277
897.82        67.28615
898.22        67.43924
898.62        67.88694
899.01        68.43132
899.41        68.91665
899.81        69.41256
900.21        69.95565
900.61        70.59251
901.00        71.28789
901.40        71.93919
901.80        72.37247
902.20        72.35791
902.59        71.89221
902.99        71.09336
903.39        70.20399
903.79        69.61077
904.18        69.41383
904.58         69.5163
904.98        69.81113
905.38         70.1311
905.77        70.39517
906.17        70.68217
906.57        70.86801
906.96        70.76246
907.36        70.34241
907.76        69.66741
908.15        69.03427
908.55        68.89111
908.95         69.3492
909.34        70.28532
909.74        71.34585
910.14         72.0187
910.53        72.13558
910.93        71.82956
911.33        71.31949
911.72         70.9575
912.12        70.86646
912.52        70.93213
912.91         70.9922
913.31        70.78272
913.70        70.27632
914.10        69.61835
914.49        69.02677
914.89         68.7944
915.29        68.99012
915.68        69.49025
916.08        70.15419
916.47        70.76559
916.87        71.20763
917.26        71.52019
917.66        71.66447
918.05        71.58599
918.45        71.29903
918.84        70.86329
919.24        70.38017
919.64        70.12337
920.03        70.19237
920.42        70.49773
920.82        70.96456
921.21        71.49409
921.61         71.9926
922.00        72.47853
922.40        72.82742
922.79        72.89326
923.19        72.63716
923.58        72.13019
923.98        71.48081
924.37        70.78429
924.77        70.12916
925.16        69.49895
925.55           69.03
925.95        68.90859
926.34        69.18743
926.74         69.7762
927.13        70.56067
927.52        71.24426
927.92        71.71507
928.31        72.04195
928.70        72.22985
929.10           72.34
929.49        72.41776
929.89        72.40884
930.28        72.36872
930.67        72.35734
931.07         72.3761
931.46        72.42057
931.85        72.44971
932.24        72.38861
932.64        72.22796
933.03        72.04951
933.42        71.82779
933.82        71.53948
934.21        71.20018
934.60        70.79593
934.99        70.52197
935.39        70.63824
935.78        71.20499
936.17        72.18174
936.56        73.17819
936.96        73.48907
937.35        72.98541
937.74        71.82217
938.13        70.58102
938.53        70.04635
938.92        70.31544
939.31        71.21797
939.70        72.25379
940.09        72.50995
940.49        71.76803
940.88        70.37019
941.27        68.91018
941.66        68.25748
942.05        68.61922
942.44        69.75191
942.84        71.20142
943.23        72.20655
943.62        72.42359
944.01        72.06925
944.40        71.49026
944.79        71.24645
945.18        71.47729
945.57        71.96084
945.97        72.42389
946.36        72.55984
946.75        72.25759
947.14        71.67742
947.53        70.98717
947.92        70.45123
948.31        70.19484
948.70        70.16302
949.09        70.32089
949.48        70.61006
949.87        70.99855
950.26        71.50491
950.65        72.09583
951.04         72.6991
951.43        73.23988
951.82        73.64365
952.21        73.88664
952.60        73.98166
952.99        73.91119
953.38        73.66345
953.77        73.17732
954.16        72.35538
954.55        71.27837
954.94        70.12628
955.33        69.07201
955.72        68.33852
956.11        67.98987
956.50        67.91537
956.89        68.19668
957.28        68.96622
957.66        70.20044
958.05        71.71546
958.44        73.01179
958.83        73.14839
959.22         71.9675
959.61        69.87405
960.00        67.58454
960.39         66.1055
960.78        65.68832
961.16        66.08611
961.55        67.04438
961.94        68.22318
962.33        69.41005
962.72        70.69463
963.11        71.81683
963.49        72.30462
963.88        72.00042
964.27        71.03802
964.66          69.792
965.04        68.82574
965.43        68.25842
965.82        67.94951
966.21        67.80142
966.60        67.60645
966.98        67.31603
967.37        67.05019
967.76         66.7935
968.15         66.4642
968.53        66.07977
968.92        65.61408
969.31         65.2748
969.69        65.42113
970.08        66.05825
970.47        67.08012
970.86        68.11935
971.24        68.51742
971.63        68.03922
972.02        66.93953
972.40        65.59948
972.79        64.63183
973.17        64.24706
973.56        64.29334
973.95        64.62766
974.33         65.0371
974.72        65.38235
975.11        65.67336
975.49        66.07056
975.88        66.80762
976.26        67.92326
976.65        69.21884
977.04        70.12426
977.42        69.74831
977.81        68.01331
978.19        65.27512
978.58        62.70667
978.96         61.7991
979.35        62.85318
979.74        65.54655
980.12        69.11325
980.51        71.38233
980.89        71.76118
981.28        70.66185
981.66        68.98151
982.05        68.31784
982.43        69.06209
982.82        70.65993
983.20        72.67181
983.59        74.20581
983.97        75.03325
984.35        75.40392
984.74        75.26503
985.12        74.64098
985.51        73.59677
985.89        72.08409
986.28        70.56952
986.66         69.6506
987.04        69.57955
987.43        70.23042
987.81        71.15764
988.20        71.37296
988.58        70.67636
988.96        69.20124
989.35        67.67559
989.73        67.24049
990.12        68.08175
990.50        69.91502
990.88        71.70929
991.27        71.81087
991.65        69.98015
992.03        66.80054
992.42        63.54589
992.80        61.91555
993.18        62.42489
993.56        64.51678
993.95        67.22571
994.33        69.14772
994.71        69.55906
995.10        68.89364
995.48        67.59108
995.86        66.38348
996.24         65.6069
996.63        65.03961
997.01        64.59956
997.39        64.18121
997.77        63.75756
998.15        63.43933
998.54        63.37078
998.92        63.74829
999.30        64.58512
999.68        65.75614
1000.06        66.96021
1000.45         67.6657
1000.83        67.83149
1001.21        67.52509
1001.59        66.90545
1001.97        66.30838
1002.35        65.87554
1002.73        65.47226
1003.12        65.25523
1003.50        65.41127
1003.88        65.93066
1004.26        66.79091
1004.64        67.49872
1005.02        67.27692
1005.40        66.04923
1005.78        64.05739
1006.16        61.99414
1006.54        61.12891
1006.92        61.80191
1007.30        63.57507
1007.69        65.72499
1008.07        67.28266
1008.45         67.7958
1008.83        67.58605
1009.21        66.78217
1009.59        65.61739
1009.97         64.2784
1010.35        62.67361
1010.73        61.20168
1011.11        60.57397
1011.49         61.0508
1011.86        62.82249
1012.24        65.15957
1012.62        66.98409
1013.00        67.85881
1013.38        67.79395
1013.76        67.65131
1014.14        69.14005
1014.52        72.56996
1014.90        77.34032
1015.28        81.52161
1015.66        81.75478
1016.04        77.82875
1016.41        71.74225
1016.79         65.8542
1017.17        62.12883
1017.55        60.58079
1017.93        60.38801
1018.31         61.5326
1018.69        63.49849
1019.06          65.358
1019.44        67.13293
1019.82        67.96915
1020.20          67.076
1020.58        64.53722
1020.95        60.09179
1021.33         54.8778
1021.71        52.38246
1022.09        54.52925
1022.46         60.4705
1022.84        67.63708
1023.22        72.41624
1023.60        73.85594
1023.97        72.94533
1024.35        70.38527
1024.73        67.61895
