SpectraSmart Spectrum 2.9.0.0
--------- Device Information -----------
Spectrum Name :  反射率_0
Saving Time :  2024/05/01 16:40:09
Spectro-Module Model Name : SE2030-DUVN
Spectro-Module Serial Number : OS361AC55029948
Wavelength Start : 200
Wavelength End : 1025
Wavelength Unit : Wavelength(nm)
Spectrum Unit : Reflectance(%)
-----------Spectrum Setting ------------
Integration Time : 20ms
Average : 10
Boxcar : 0
Background removal :  enabled
linearity correction :  enabled
SC :  disabled
Intensity correction :  disabled
DWT denoise :  enabled
savitzky-golay :  disabled
FFT :  disabled
Running average :  disabled
Kalman :  disabled
High pass :  disabled
---------------BEGIN--------------------
Wavelength(nm)             Reflectance(%)
200.29               0
200.75         49.8855
201.21        417.7614
201.67       -233.6918
202.13        -89.5759
202.58       -31.56446
203.04        6.690909
203.50        31.28131
203.96        41.72898
204.42        39.97734
204.88         16.6936
205.34       -627.5223
205.80        140.7039
206.26        85.01662
206.72        29.95602
207.18       -190.0275
207.64        401.6983
208.10        180.0623
208.55         119.035
209.01        87.34354
209.47        73.72109
209.93        71.11332
210.39        72.67889
210.85        76.89233
211.31        83.30963
211.77        99.14217
212.23       -32.89326
212.69        53.87415
213.14        79.32214
213.60        150.6592
214.06       -604.0289
214.52       -78.58692
214.98       -41.15455
215.44       -27.64942
215.90          -14.97
216.36        110.6909
216.81       -88.81352
217.27       -126.7726
217.73        224.9794
218.19        26.30241
218.65       -2.838022
219.11       -31.97002
219.57       -107.1961
220.02       -400.9854
220.48       -199.1909
220.94       -44.84122
221.40       -4.849947
221.86        10.31103
222.32        18.31218
222.77        25.00842
223.23        33.20514
223.69        42.43329
224.15        45.58403
224.61         40.8807
225.06        33.65067
225.52        29.21166
225.98        29.72443
226.44        34.78769
226.90        44.25701
227.36        56.81425
227.81        63.85956
228.27        61.29718
228.73        54.54343
229.19        48.29788
229.65        44.92624
230.10         43.9731
230.56        44.50531
231.02        46.22585
231.48        48.29215
231.93        49.80525
232.39        51.18269
232.85        52.27426
233.31        53.00813
233.77        53.52759
234.22        53.82195
234.68        54.18864
235.14        55.16297
235.60        57.00044
236.05        60.09466
236.51        64.51645
236.97        69.13126
237.43        72.15662
237.88        72.85397
238.34        71.74098
238.80        71.27895
239.26        72.36108
239.71        75.40868
240.17        79.25949
240.63        78.90659
241.08        71.29916
241.54        60.33428
242.00        52.56721
242.46         52.3496
242.91        60.79375
243.37        79.51665
243.83        112.4179
244.28        139.5571
244.74        135.2514
245.20        117.3338
245.66        100.3756
246.11        87.11557
246.57        74.31573
247.03        56.13106
247.48        29.32965
247.94        3.172152
248.40       -5.890196
248.85        3.386583
249.31         23.5193
249.77        39.43783
250.22        47.80288
250.68        52.03119
251.14        54.52842
251.59        57.82025
252.05        63.63399
252.51        74.72832
252.96        100.3163
253.42         146.321
253.88        161.2364
254.33        133.3301
254.79        110.3937
255.25        98.19965
255.70        91.13692
256.16        86.96357
256.62         84.5125
257.07          83.334
257.53        83.52522
257.99        84.24026
258.44        84.76942
258.90        85.20868
259.35        85.10953
259.81        84.94994
260.27        84.65529
260.72        84.25038
261.18        84.06048
261.63        83.60287
262.09        83.11118
262.55        82.27656
263.00        80.98254
263.46        79.58692
263.91         77.9652
264.37        76.45056
264.83        74.99891
265.28        73.57245
265.74         72.2579
266.19         70.7917
266.65        69.30732
267.11        67.76759
267.56        66.38808
268.02        65.62276
268.47        65.44897
268.93        65.67712
269.38        65.89251
269.84         65.3908
270.30        64.04594
270.75        62.08279
271.21        59.91481
271.66        58.01833
272.12         56.6109
272.57        55.47586
273.03        54.57386
273.48        53.75419
273.94        53.00027
274.39        52.32535
274.85        51.69435
275.31        50.92917
275.76        49.99211
276.22        48.98854
276.67        47.96645
277.13        47.17053
277.58        46.54026
278.04        46.05865
278.49        45.56851
278.95        44.99407
279.40        44.25589
279.86        43.46963
280.31        42.63598
280.77         41.8927
281.22        41.19439
281.68        40.58483
282.13        39.97277
282.59         39.3579
283.04        38.69877
283.50         38.0789
283.95        37.52053
284.41        37.13493
284.86        36.91801
285.32        36.85162
285.77        36.88735
286.22        37.02409
286.68        37.23353
287.13        37.47313
287.59        37.67368
288.04        37.67641
288.50        37.49136
288.95        37.12675
289.41        36.73477
289.86        36.42659
290.32        36.28598
290.77        36.28302
291.22        36.38273
291.68        36.50706
292.13        36.64683
292.59        36.87784
293.04        37.27429
293.50        38.00142
293.95        39.05715
294.40        40.38296
294.86        41.85413
295.31        43.28498
295.77         44.6047
296.22        45.82811
296.68        47.01521
297.13        48.24044
297.58        49.56135
298.04        50.99293
298.49        52.48225
298.95        53.99012
299.40        55.47602
299.85        56.94648
300.31        58.53362
300.76        60.40879
301.21        62.60639
301.67        65.07719
302.12        67.52546
302.58        69.51879
303.03        70.92258
303.48        71.90414
303.94         72.8634
304.39        74.26888
304.84        76.28392
305.30        78.74461
305.75        81.33178
306.20        83.58404
306.66        85.37511
307.11        86.78242
307.57        88.03529
308.02        89.34911
308.47        90.82448
308.93        92.37662
309.38        93.83431
309.83        95.04255
310.29        95.99503
310.74        96.76917
311.19        97.49117
311.65        98.31839
312.10        99.27028
312.55         100.282
313.00        101.3613
313.46        102.5271
313.91        103.7326
314.36        104.9654
314.82        106.0315
315.27        106.6332
315.72        106.7177
316.18        106.4288
316.63        105.9961
317.08        105.8523
317.53        106.1094
317.99        106.6485
318.44        107.3405
318.89        107.9306
319.35        108.3273
319.80        108.6298
320.25         108.852
320.70        109.0195
321.16        109.1425
321.61        109.2057
322.06        109.2841
322.51        109.5378
322.97        109.9609
323.42         110.551
323.87        111.1228
324.32        111.3872
324.78        111.2725
325.23        110.9123
325.68        110.4651
326.13        110.2136
326.59        110.2291
327.04        110.4863
327.49        110.9056
327.94        111.3767
328.39        111.8383
328.85        112.2705
329.30        112.7331
329.75        113.1517
330.20        113.5109
330.66        113.7782
331.11        113.9949
331.56        114.1071
332.01        114.1408
332.46        114.1265
332.92        114.1605
333.37        114.5148
333.82        115.2105
334.27        116.2038
334.72        117.3366
335.17        118.3153
335.63        118.9976
336.08        119.4813
336.53        119.8361
336.98        120.2658
337.43        120.8329
337.88        121.4789
338.34        122.0673
338.79         122.475
339.24        122.6311
339.69           122.6
340.14        122.5548
340.59        122.7522
341.05        123.2428
341.50        123.9796
341.95        124.7579
342.40        125.2455
342.85        125.3765
343.30        125.2648
343.75        125.1575
344.20        125.4382
344.66        126.1776
345.11        127.2318
345.56        128.3739
346.01        129.2185
346.46        129.6484
346.91        129.7991
347.36        129.7967
347.81        129.8329
348.26        129.9862
348.72        130.2009
349.17        130.4694
349.62        130.8607
350.07        131.3344
350.52        131.8307
350.97        132.2358
351.42        132.3495
351.87         132.136
352.32        131.7098
352.77        131.0613
353.22        130.1887
353.67        129.1587
354.13        128.0086
354.58        127.0034
355.03        126.6642
355.48        127.0476
355.93        128.0383
356.38        129.0753
356.83        129.2085
357.28        128.2466
357.73        126.4857
358.18         124.631
358.63        123.7386
359.08        123.9942
359.53        125.0366
359.98        126.2269
360.43        126.5035
360.88        125.5824
361.33        123.8435
361.78        121.8024
362.23        120.1851
362.68        119.1879
363.13        118.5847
363.58        118.1322
364.03        117.4713
364.48        116.4957
364.93        115.3349
365.38        114.1767
365.83        113.2635
366.28        112.6402
366.73        112.2298
367.18        111.7873
367.63        110.9488
368.08        109.6792
368.53        108.1252
368.98        106.6542
369.43        105.7917
369.88        105.6139
370.33         105.942
370.78        106.3952
371.23        106.3118
371.68          105.51
372.13        104.2146
372.58        102.7548
373.03        101.6185
373.48        100.9255
373.93        100.4973
374.38        100.1965
374.83        99.81364
375.28        99.27185
375.72         98.6543
376.17        97.97987
376.62        97.19212
377.07        96.31165
377.52        95.34453
377.97         94.4185
378.42        93.75047
378.87        93.37201
379.32        93.21058
379.77         93.1135
380.22        92.83562
380.67        92.31709
381.11        91.64285
381.56        90.89901
382.01        90.25474
382.46        89.77673
382.91        89.41483
383.36        89.14671
383.81        88.93943
384.26        88.75988
384.71        88.60702
385.15        88.43219
385.60        88.20647
386.05        87.90224
386.50        87.53176
386.95        87.09698
387.40         86.6179
387.85        86.11541
388.29        85.54131
388.74        85.04723
389.19        84.64709
389.64         84.3439
390.09        84.11664
390.54        83.89254
390.98        83.56971
391.43        83.19244
391.88        82.68228
392.33        82.13495
392.78        81.91454
393.23        81.92379
393.67        81.56828
394.12        80.97523
394.57        80.68612
395.02        80.65224
395.47         80.3396
395.91        79.82323
396.36        79.56447
396.81        79.59972
397.26         79.7433
397.71        79.81058
398.15        79.64513
398.60        79.30342
399.05        78.54321
399.50        77.69734
399.95        77.73731
400.39        78.53134
400.84        78.76823
401.29        78.32277
401.74        78.09866
402.18        78.04329
402.63        77.36213
403.08        76.29243
403.53         75.6637
403.97        75.55578
404.42        75.68309
404.87         75.8619
405.32        75.87273
405.76        75.64307
406.21        75.27847
406.66         74.8869
407.11        74.68199
407.55        74.73645
408.00        74.81135
408.45        74.85025
408.90        75.06567
409.34        75.24917
409.79         74.7388
410.24        73.75672
410.68        73.23801
411.13        73.27224
411.58        73.36681
412.03         73.4312
412.47        73.52795
412.92        73.58283
413.37        73.60072
413.81        73.57569
414.26         73.5538
414.71        73.52372
415.15        73.48814
415.60        73.42525
416.05        73.36389
416.49        73.31454
416.94         73.2691
417.39        73.22869
417.83        73.17811
418.28         73.1177
418.73        73.05432
419.17         72.9873
419.62        72.92319
420.07        72.85957
420.51        72.77385
420.96        72.71676
421.41        72.67654
421.85        72.62779
422.30        72.67126
422.74        72.74616
423.19        72.71223
423.64        72.60979
424.08        72.78879
424.53        73.19791
424.98        73.41697
425.42        73.37206
425.87        73.56446
426.31        73.89258
426.76        73.28629
427.21        72.12315
427.65        72.36823
428.10        73.69836
428.54        73.98227
428.99        73.27991
429.44        72.55161
429.88        72.07407
430.33         72.7738
430.77        74.10378
431.22        73.64429
431.66        72.20467
432.11        71.53191
432.56        71.93481
433.00        72.52258
433.45        73.08851
433.89        72.88206
434.34        72.18794
434.78        73.63062
435.23        73.78294
435.67         73.7143
436.12        72.72086
436.57        72.92555
437.01        74.17314
437.46        74.67208
437.90        74.36961
438.35        73.91387
438.79          74.187
439.24        73.85213
439.68        73.28566
440.13        73.15685
440.57        73.50309
441.02        73.71453
441.46        73.69036
441.91        74.12345
442.35        74.78131
442.80        74.30176
443.24        74.42789
443.69        74.29662
444.13        74.40545
444.58        74.38345
445.02        74.22659
445.47        74.14893
445.91         74.1842
446.36        74.30593
446.80        74.49101
447.24        74.81845
447.69        75.19764
448.13        75.22301
448.58         75.1396
449.02        75.04096
449.47        75.03992
449.91        74.96678
450.36        74.85751
450.80         74.7959
451.25         74.7915
451.69        74.73643
452.13        74.62839
452.58        74.55083
453.02        74.48804
453.47        74.25626
453.91         74.2252
454.36        74.01379
454.80        73.75785
455.24        73.76874
455.69        73.94526
456.13        73.65287
456.58        73.08915
457.02         72.9325
457.46        73.24294
457.91        73.71152
458.35        74.11855
458.79        74.11646
459.24        73.69143
459.68        73.10615
460.13        72.64986
460.57        71.60488
461.01        72.15582
461.46        71.58112
461.90         72.0833
462.34        72.17049
462.79        71.86773
463.23        71.93989
463.68        72.17555
464.12        72.20882
464.56        71.99184
465.01        71.82247
465.45        71.69429
465.89        71.65667
466.34        71.58064
466.78        71.79138
467.22        70.90688
467.67        70.78329
468.11        70.75565
468.55        70.79216
468.99        70.75225
469.44        70.72087
469.88        70.70345
470.32        70.65685
470.77        70.60326
471.21        70.59152
471.65        70.61223
472.10        70.66432
472.54         70.6886
472.98        70.61698
473.42        70.43801
473.87        70.23271
474.31        70.02691
474.75        69.81358
475.20        69.64681
475.64        69.78965
476.08        70.16362
476.52        70.16438
476.97        69.67505
477.41        70.09766
477.85        69.23817
478.29        69.43912
478.74         69.6988
479.18        70.00571
479.62        69.39341
480.06        69.35395
480.50        69.67046
480.95        68.92181
481.39        69.57121
481.83        68.64387
482.27        69.33038
482.72        69.23233
483.16        69.11031
483.60        69.11103
484.04          69.424
484.48        69.40301
484.93        69.50471
485.37        70.15286
485.81        69.65644
486.25        71.36055
486.69        71.94993
487.14        68.66494
487.58        67.58674
488.02         69.7747
488.46        68.68283
488.90        68.22607
489.34        69.36215
489.79        68.65791
490.23         68.7502
490.67        68.36433
491.11        68.19688
491.55         68.3313
491.99        68.66827
492.43         68.8036
492.88        68.67786
493.32        68.60572
493.76        68.59721
494.20        68.56633
494.64        68.52281
495.08        68.41546
495.52        68.29774
495.96        68.37585
496.41        68.58225
496.85        68.64858
497.29        68.50902
497.73        68.23241
498.17        67.93063
498.61        67.66995
499.05        67.46792
499.49        67.56033
499.93        67.84879
500.37        68.03281
500.82        68.08386
501.26        68.21532
501.70        68.40354
502.14        68.50933
502.58        68.45358
503.02        68.35634
503.46        68.21386
503.90        67.99965
504.34        67.79362
504.78        67.73303
505.22        67.83926
505.66        68.08173
506.10        68.34274
506.54        68.40901
506.98        68.23617
507.42        67.93819
507.86        67.57368
508.30        67.36277
508.74        67.33193
509.18        67.46126
509.62        67.70303
510.06        67.78129
510.50         67.9718
510.94        68.04314
511.38        68.08321
511.82        68.07257
512.26        68.01371
512.70        67.89674
513.14        67.74111
513.58         67.5937
514.02         67.4705
514.46        67.37424
514.90        67.29289
515.34        67.20011
515.78        67.09625
516.22        66.99622
516.66        66.93045
517.10        66.94194
517.54        67.03333
517.98         67.1828
518.42        67.34848
518.86        67.46033
519.30        67.49678
519.74         67.4837
520.18        67.44211
520.62         67.3875
521.06        67.34146
521.50        67.33745
521.93          67.364
522.37        67.34684
522.81        67.28445
523.25        67.22623
523.69        67.16232
524.13        67.05839
524.57        66.92144
525.01        66.76373
525.45        66.63928
525.89        66.63306
526.32        66.75356
526.76        66.96764
527.20         67.1974
527.64        67.32166
528.08        67.30885
528.52        67.19469
528.96        67.03287
529.40        66.91901
529.83        66.87098
530.27        66.85995
530.71        66.87518
531.15        66.93649
531.59        67.03626
532.03        67.15637
532.46         67.2748
532.90        67.38165
533.34        67.46517
533.78        67.47095
534.22        67.39719
534.66        67.36406
535.09        67.31562
535.53        67.01767
535.97         66.5596
536.41        66.31994
536.85        66.33814
537.28         66.4358
537.72        66.55129
538.16        66.64448
538.60        66.68189
539.04        66.67146
539.47        66.63382
539.91         66.6389
540.35        66.68005
540.79        66.75885
541.22        66.84021
541.66        66.77842
542.10        66.73519
542.54        66.59834
542.97        66.45515
543.41        66.39293
543.85        66.41823
544.29          66.508
544.72        66.61275
545.16        66.69196
545.60        66.71561
546.04        66.69285
546.47        66.64685
546.91        66.62672
547.35         66.6499
547.79        66.68366
548.22         66.6639
548.66        66.63718
549.10        66.60104
549.53        66.25478
549.97        66.23245
550.41        66.20865
550.84        66.37116
551.28        66.63655
551.72        66.92155
552.15        67.12933
552.59        67.20543
553.03        67.05949
553.46        66.75372
553.90        66.63058
554.34        66.72817
554.77        66.74232
555.21        66.59589
555.65        67.02222
556.08        66.70975
556.52        66.57774
556.96        66.30389
557.39        66.15392
557.83        66.16477
558.27        66.14751
558.70         66.0938
559.14        66.30433
559.57        66.20213
560.01        66.46371
560.45        66.74403
560.88        66.65762
561.32        66.31446
561.75         65.8152
562.19        65.42912
562.63        65.84499
563.06        66.80505
563.50        66.87469
563.93        66.12961
564.37        65.96262
564.80        66.36938
565.24        66.57309
565.68        66.50866
566.11        66.46819
566.55        66.48297
566.98        66.40633
567.42        66.34011
567.85        66.48154
568.29        66.79977
568.72        67.01649
569.16        67.18775
569.60        67.29388
570.03        67.19402
570.47         67.5435
570.90        67.37242
571.34        66.63697
571.77        66.99973
572.21        66.99208
572.64        67.25815
573.08        66.90364
573.51        67.24668
573.95        67.95515
574.38        67.37012
574.82        67.48338
575.25        67.79011
575.69        68.13273
576.12        67.70058
576.56        67.05892
576.99        67.53218
577.42        67.85153
577.86        67.45003
578.29        68.01997
578.73        68.78444
579.16        67.49435
579.60        66.73121
580.03        66.89184
580.47        67.65488
580.90        67.03217
581.33        67.99929
581.77        68.01136
582.20        68.44936
582.64         68.6214
583.07         68.0239
583.51        67.33782
583.94        66.75263
584.37        66.89285
584.81        67.73013
585.24        68.01616
585.68        67.66166
586.11        67.75815
586.54        67.97895
586.98        67.23356
587.41        66.54987
587.85         67.5865
588.28        67.85387
588.71        66.39626
589.15        67.52087
589.58        66.72223
590.01        66.59904
590.45        66.54282
590.88        66.85703
591.31        66.99245
591.75        66.83753
592.18        66.61928
592.61        66.19016
593.05        66.70778
593.48         66.7536
593.91        67.13628
594.35        66.83386
594.78        66.60944
595.21        66.23259
595.65        66.84113
596.08         66.6689
596.51        66.61933
596.94        66.38885
597.38        66.25421
597.81        66.49129
598.24        66.20934
598.68        66.86473
599.11        66.09701
599.54        67.66151
599.97        67.17973
600.41        66.47534
600.84        66.98518
601.27         66.6897
601.70        67.28177
602.14        67.47936
602.57        67.16695
603.00        66.91106
603.43        66.59899
603.87        66.75656
604.30        67.10117
604.73        66.74404
605.16         66.2733
605.60        66.26369
606.03        66.51773
606.46        67.01972
606.89        66.90568
607.32        66.40404
607.76        66.18069
608.19        66.31784
608.62        66.81258
609.05          66.736
609.48        66.70972
609.92        66.17197
610.35        66.01431
610.78        67.05976
611.21        67.09228
611.64        66.37962
612.07        66.88917
612.50        67.21101
612.94        66.94199
613.37         66.5909
613.80        66.86134
614.23         66.3336
614.66        66.73766
615.09        66.54216
615.52        66.59297
615.96        66.50758
616.39        66.97337
616.82        66.97762
617.25        66.91826
617.68        66.75855
618.11        66.61234
618.54         66.5538
618.97        66.38951
619.40        66.21641
619.84        66.06649
620.27        65.92181
620.70        66.25377
621.13        67.07857
621.56        65.94755
621.99        65.87003
622.42        66.25491
622.85        66.38241
623.28        66.16536
623.71        66.19057
624.14        66.42847
624.57        66.68194
625.00        66.53539
625.43        66.65421
625.86        66.48227
626.29        66.26106
626.72        66.21365
627.15         66.0526
627.58        65.94248
628.01        65.81557
628.44        65.91834
628.87        66.18043
629.30        66.13033
629.73        65.98657
630.16        65.92558
630.59        65.97215
631.02        65.97004
631.45         65.9073
631.88        65.85265
632.31         65.8037
632.74        65.83781
633.17        65.79304
633.60        65.82764
634.03        65.88837
634.46        65.97742
634.89        66.05878
635.32        66.07459
635.75        66.01469
636.18        65.89306
636.61        65.75349
637.04        65.67023
637.47        65.66724
637.89         65.7132
638.32        65.74428
638.75        65.75892
639.18        65.75554
639.61        65.47704
640.04        65.45383
640.47        65.35839
640.90        65.35403
641.33        65.39758
641.76        65.44658
642.18         65.5225
642.61        65.60955
643.04        65.56339
643.47        65.34522
643.90        65.81888
644.33        65.57039
644.76        65.63036
645.18        65.60771
645.61        65.80074
646.04        66.10087
646.47        65.99178
646.90        65.56451
647.33        65.41213
647.75        65.56918
648.18         65.6754
648.61        65.71529
649.04        65.77897
649.47        65.82105
649.89        65.94833
650.32        66.06643
650.75        65.68612
651.18        65.02313
651.61        65.05978
652.03        65.76872
652.46        66.00977
652.89        65.64196
653.32        65.57928
653.74        66.16624
654.17        65.18803
654.60        65.81046
655.03        66.72124
655.46        65.80393
655.88        66.09267
656.31        74.67355
656.74        74.55715
657.16        67.93739
657.59        65.83741
658.02        66.27519
658.45        66.18617
658.87        66.01872
659.30        64.62608
659.73        65.32632
660.15        66.37508
660.58        65.89779
661.01        65.69733
661.44         65.1546
661.86        65.20406
662.29        65.74812
662.72        65.96806
663.14        65.85136
663.57        65.89663
664.00        66.09779
664.42        66.13161
664.85        65.99334
665.27        65.76672
665.70        65.53223
666.13        65.42011
666.55        65.47004
666.98        65.61654
667.41        65.81654
667.83        66.01016
668.26        66.15102
668.69        66.25491
669.11        66.32105
669.54        66.37521
669.96        66.41445
670.39        66.36352
670.82        66.26788
671.24        66.25231
671.67        66.33057
672.09        66.43628
672.52        66.53214
672.94        66.53254
673.37        66.42479
673.80        66.22791
674.22        66.00549
674.65        65.83934
675.07        65.77637
675.50        65.77626
675.92        65.82826
676.35        65.90623
676.77        65.99724
677.20        66.10104
677.62        66.20478
678.05        66.27235
678.47        66.29607
678.90        66.28796
679.32        66.25794
679.75         66.2506
680.17        66.26895
680.60        66.29947
681.02        66.34218
681.45        66.38062
681.87        66.42245
682.30        66.46906
682.72        66.50849
683.15        66.48548
683.57        66.40267
684.00        66.26677
684.42        66.14249
684.85        66.13056
685.27        66.22498
685.70         66.4437
686.12        66.67095
686.54        66.62012
686.97        66.30368
687.39        66.10278
687.82        66.03703
688.24        65.78273
688.66        65.44945
689.09        65.51632
689.51        66.01125
689.94         66.2629
690.36        66.24762
690.78        66.29429
691.21        66.44343
691.63        66.51678
692.06        66.58238
692.48        66.94386
692.90        67.46784
693.33        67.66754
693.75        67.49619
694.17        67.13218
694.60        66.76051
695.02        66.59696
695.44        66.62807
695.87        66.77545
696.29        66.98737
696.71        66.55331
697.14        66.44575
697.56        66.59706
697.98        67.15977
698.41        67.39915
698.83        67.27496
699.25        67.18294
699.68        67.14993
700.10        67.12621
700.52        67.12227
700.94        67.10706
701.37        67.09424
701.79        67.22804
702.21        67.43361
702.64        67.51987
703.06        67.47581
703.48         67.3526
703.90        67.13763
704.33        67.23344
704.75        66.86898
705.17        66.81839
705.59        66.83337
706.01         67.0715
706.44        67.53941
706.86        67.27067
707.28        67.80125
707.70         67.9158
708.12        68.04022
708.55        67.95349
708.97        67.70881
709.39          67.555
709.81        67.51368
710.23        67.45953
710.66         67.4034
711.08        67.47589
711.50        67.62739
711.92        67.72168
712.34         67.7365
712.76        67.71005
713.19        67.65487
713.61        67.64282
714.03        67.66847
714.45        67.70577
714.87        67.74981
715.29        67.79744
715.71         67.8431
716.13        67.89445
716.56        67.90981
716.98        67.90453
717.40         67.8514
717.82        67.75745
718.24        67.67259
718.66        67.67778
719.08        67.78387
719.50        67.96202
719.92        68.14653
720.34        68.22968
720.76        68.18484
721.19        68.04745
721.61        67.87225
722.03        67.73881
722.45        67.68049
722.87        67.68665
723.29        67.74985
723.71        67.82401
724.13        67.88715
724.55        67.99795
724.97        68.18762
725.39        68.17529
725.81        68.47462
726.23        68.65346
726.65        68.79093
727.07        68.75707
727.49        68.54702
727.91         68.2039
728.33         67.8476
728.75        67.68282
729.17        67.75208
729.59        67.99041
730.01        68.30029
730.43        68.50687
730.85        68.55399
731.27        68.50772
731.69        68.39253
732.10         68.2459
732.52        68.09824
732.94        67.92538
733.36         67.8021
733.78        67.84097
734.20         68.0469
734.62        68.44652
735.04        68.90221
735.46        69.01602
735.88        68.82672
736.30         68.8041
736.72        68.94099
737.13        68.92055
737.55        68.73243
737.97        68.49439
738.39        68.32106
738.81        68.54859
739.23        69.07458
739.65        69.25198
740.06        69.01984
740.48        68.94045
740.90        68.98685
741.32        68.84998
741.74        68.54948
742.16         68.3084
742.57        68.16875
742.99        68.08195
743.41        68.09489
743.83        68.21121
744.25        68.44359
744.67        68.89813
745.08          69.431
745.50        69.60603
745.92        69.37052
746.34        68.88652
746.75         68.3344
747.17        67.96095
747.59        67.81886
748.01        67.93919
748.42        68.23866
748.84        68.19186
749.26        68.14725
749.68        68.21072
750.09        68.44788
750.51        68.55199
750.93        68.51166
751.35        68.47721
751.76        68.49845
752.18        68.58794
752.60        68.75827
753.01         69.0214
753.43        69.27566
753.85        69.39587
754.27        69.35847
754.68        69.20503
755.10        69.03648
755.52        69.01374
755.93         69.1665
756.35        69.41652
756.77         69.6602
757.18        69.85072
757.60        69.98684
758.02        69.90862
758.43        69.52023
758.85        69.97807
759.26        69.18248
759.68        69.06843
760.10        69.07561
760.51        69.25699
760.93        69.48586
761.34        69.62533
761.76        69.63858
762.18        69.39027
762.59        69.05208
763.01        68.99765
763.42        69.44936
763.84        69.59068
764.26        69.47198
764.67        69.41598
765.09        69.48038
765.50        69.54058
765.92        69.58579
766.33        69.48642
766.75        69.23289
767.16         69.1971
767.58        69.37045
768.00        69.51445
768.41        69.66713
768.83        70.09676
769.24        70.69209
769.66        71.01048
770.07        71.00325
770.49        70.86088
770.90        70.66473
771.32        70.53875
771.73        70.50487
772.15        70.39938
772.56        70.24977
772.97        70.20641
773.39        70.26965
773.80        70.39729
774.22        70.54366
774.63        70.77318
775.05        70.97784
775.46        71.05276
775.88        70.94397
776.29        70.70035
776.70        70.42912
777.12        70.33493
777.53        70.47989
777.95        70.78558
778.36        71.11637
778.77          71.219
779.19        71.04108
779.60         70.6836
780.02        70.28586
780.43        70.05775
780.84        70.09441
781.26        70.31522
781.67        70.61629
782.09        70.94505
782.50        71.18624
782.91        70.81863
783.33        70.47459
783.74        70.37477
784.15        70.72281
784.57        71.20264
784.98        71.74657
785.39        72.19165
785.81        72.43985
786.22        72.78034
786.63        72.78021
787.04        72.79454
787.46        72.74088
787.87        72.58253
788.28         72.4058
788.70        72.33218
789.11        72.36284
789.52        72.49184
789.93        72.62411
790.35        72.58853
790.76        72.38156
791.17        72.04902
791.58        71.70575
792.00        71.54196
792.41        71.61834
792.82        71.78859
793.23         71.9814
793.65        72.30658
794.06        72.62502
794.47        72.42979
794.88         71.9018
795.29        71.72916
795.71        71.89163
796.12        72.13895
796.53        72.33427
796.94        72.39005
797.35        72.24472
797.76        71.95267
798.18        71.65002
798.59        71.50005
799.00        71.55553
799.41        71.75554
799.82        72.03719
800.23        72.29398
800.64        72.47672
801.06        72.59501
801.47        72.66264
801.88        72.60291
802.29        72.42195
802.70        72.13678
803.11        71.84985
803.52        71.73096
803.93        71.82876
804.34        72.10268
804.75        72.46543
805.17        72.79401
805.58        73.07758
805.99        73.14859
806.40        73.05607
806.81        73.28528
807.22        73.67565
807.63        73.30495
808.04        72.35222
808.45        71.93924
808.86        72.17413
809.27        72.46996
809.68        72.70218
810.09        72.90852
810.50        73.02991
810.91        73.06982
811.32        73.04439
811.73        72.98233
812.14        72.90749
812.55        72.80274
812.96        72.74625
813.37        72.87194
813.78        73.19119
814.19        73.65952
814.60        74.12727
815.01        74.36308
815.42        74.31478
815.83        74.03541
816.24        73.64562
816.65        73.38792
817.05        73.35602
817.46        73.46349
817.87        73.63377
818.28        73.70273
818.69        73.62685
819.10        73.45617
819.51        73.26815
819.92        73.19745
820.33        73.27876
820.74        73.45311
821.14        73.62325
821.55        73.67935
821.96        73.58473
822.37        73.39934
822.78        73.18873
823.19        73.06422
823.60        73.07771
824.00        73.21767
824.41        73.43979
824.82        73.78162
825.23        74.20832
825.64        74.67931
826.04        75.12826
826.45        75.36358
826.86        75.36548
827.27        75.18989
827.68        74.84538
828.08        74.37775
828.49        73.81186
828.90        73.17348
829.31        72.64998
829.72        72.52335
830.12         72.8764
830.53        73.60873
830.94        74.45527
831.35        74.87273
831.75        74.72452
832.16        74.10822
832.57        73.39624
832.97        73.16039
833.38        73.50846
833.79        74.25042
834.20        75.07809
834.60        75.47186
835.01        75.25937
835.42        74.65794
835.82        73.88319
836.23        73.24873
836.64        72.87296
837.04        72.67087
837.45         72.6179
837.86        72.74537
838.26        73.03293
838.67        73.44118
839.08        73.86174
839.48        74.07287
839.89        74.01347
840.29        73.75169
840.70        73.39734
841.11        73.10188
841.51        72.94144
841.92        72.84693
842.33         72.8845
842.73        73.16502
843.14        73.63366
843.54        74.31425
843.95        74.98675
844.35        75.35094
844.76        75.29778
845.17        74.90337
845.57        74.39626
845.98        74.13926
846.38        74.24239
846.79        74.58589
847.19        74.99302
847.60        75.06728
848.00        74.74152
848.41        74.14324
848.81        73.50346
849.22        73.14381
849.62        73.16268
850.03        73.42401
850.43        73.80974
850.84        73.97243
851.24        73.88585
851.65        73.62991
852.05        73.37115
852.46        73.32668
852.86        73.52803
853.27        73.87376
853.67        74.26529
854.07        74.77396
854.48        75.31559
854.88        75.99184
855.29        76.47491
855.69        76.42727
856.10        75.66953
856.50        74.43674
856.90        73.15195
857.31        72.43365
857.71        72.40447
858.12         72.8317
858.52        73.55096
858.92        74.01382
859.33        74.00877
859.73        73.76159
860.13         73.2708
860.54        72.56628
860.94        71.72523
861.34        70.70772
861.75        69.81105
862.15        69.61189
862.55        70.19468
862.96        71.39085
863.36        72.74352
863.76        73.40068
864.17         73.1557
864.57        72.26808
864.97        71.16305
865.38        70.56237
865.78         70.6986
866.18        71.31369
866.58        72.14159
866.99        72.70248
867.39        72.85125
867.79        72.76794
868.19        72.49754
868.60        72.05205
869.00        71.47762
869.40        70.73435
869.80        70.08135
870.21        70.01599
870.61        70.67003
871.01        71.82169
871.41        72.96925
871.81         73.3448
872.22        72.78402
872.62        71.52954
873.02        69.98954
873.42        68.85133
873.82        68.36883
874.22        68.39164
874.63        68.73063
875.03        69.06921
875.43        69.30333
875.83        69.52496
876.23        69.86214
876.63        70.50157
877.03        71.43694
877.44        72.51498
877.84        73.48849
878.24        73.92587
878.64        73.73331
879.04        73.07324
879.44        72.21702
879.84        71.57296
880.24        71.26543
880.64        71.19161
881.04        71.28213
881.44        71.40553
881.84        71.51078
882.24         71.6647
882.65        71.79257
883.05        71.85985
883.45        71.80847
883.85        71.62363
884.25        71.43243
884.65        71.44081
885.05        71.68587
885.45        72.13259
885.85        72.58967
886.25        72.72566
886.65         72.4642
887.05        71.89267
887.45        71.30042
887.85        71.14043
888.25        71.50027
888.65        72.24121
889.04        73.01728
889.44        73.24506
889.84        72.81369
890.24        71.91695
890.64        70.93336
891.04        70.40205
891.44        70.45165
891.84        70.94842
892.24        71.58082
892.64        71.82368
893.04        71.54396
893.44        70.89422
893.83        70.25356
894.23        70.20882
894.63        70.83836
895.03        71.95983
895.43        73.10307
895.83        73.42842
896.23        72.76254
896.63        71.46355
897.02        70.04117
897.42        69.32231
897.82         69.4121
898.22        70.07749
898.62        71.06522
899.01        71.96352
899.41        72.53518
899.81        72.92764
900.21        73.18066
900.61        73.35767
901.00        73.49542
901.40        73.52097
901.80        73.46223
902.20        73.39597
902.59        73.35052
902.99        73.32648
903.39        73.33014
903.79        73.34457
904.18        73.34367
904.58        73.35226
904.98        73.33692
905.38        73.26138
905.77        73.11707
906.17        72.93483
906.57         72.7209
906.96        72.50314
907.36        72.29294
907.76        72.11968
908.15        72.04321
908.55        72.10653
908.95        72.32208
909.34        72.65266
909.74         73.0226
910.14         73.3884
910.53        73.69422
910.93         73.9455
911.33         74.0387
911.72        73.81687
912.12        73.30119
912.52        72.54282
912.91        71.74845
913.31        71.25766
913.70        71.17561
914.10        71.42677
914.49         71.8447
914.89        72.13302
915.29        72.21011
915.68        72.14552
916.08        72.05018
916.47        72.13248
916.87        72.42567
917.26        72.83698
917.66        73.21882
918.05        73.35878
918.45        73.21262
918.84        72.90458
919.24        72.55064
919.64        72.42719
920.03        72.63103
920.42        73.04447
920.82        73.57812
921.21        74.13169
921.61        74.61448
922.00        75.04984
922.40        75.33904
922.79        75.38554
923.19        75.15788
923.58        74.70884
923.98          74.113
924.37        73.40715
924.77        72.67462
925.16        71.92943
925.55        71.32592
925.95        71.08183
926.34        71.27505
926.74        71.80277
927.13        72.58556
927.52        73.38506
927.92        74.07545
928.31        74.68329
928.70        75.12568
929.10        75.31858
929.49        75.27453
929.89        75.00005
930.28        74.58492
930.67        74.15031
931.07        73.74851
931.46        73.36614
931.85         73.0882
932.24        73.03349
932.64        73.20653
933.03        73.62736
933.42        74.03736
933.82        74.04491
934.21        73.58903
934.60        72.75627
934.99        71.96363
935.39        71.83088
935.78         72.5037
936.17        73.82994
936.56         75.2513
936.96        75.73811
937.35        75.07177
937.74         73.5673
938.13        71.93275
938.53        71.09935
938.92        71.22172
939.31        72.07237
939.70        73.22459
940.09        73.89822
940.49        73.83775
940.88        73.28599
941.27        72.62475
941.66        72.42922
942.05        72.83681
942.44        73.67037
942.84        74.55127
943.23        74.91069
943.62        74.53432
944.01         73.6488
944.40        72.68673
944.79        72.31209
945.18        72.67085
945.57        73.51369
945.97        74.48773
946.36        75.14238
946.75        75.29958
947.14        75.12505
947.53        74.71137
947.92         74.2229
948.31        73.76113
948.70        73.27376
949.09        72.87842
949.48        72.74947
949.87        72.92285
950.26        73.42309
950.65        74.06244
951.04        74.47842
951.43        74.56825
951.82        74.37113
952.21        74.18019
952.60        74.48268
952.99        75.32554
953.38        76.51973
953.77        77.60272
954.16        77.76503
954.55        76.85164
954.94        75.23901
955.33        73.40401
955.72        72.06404
956.11         71.4395
956.50        71.27409
956.89        71.56628
957.28        72.30623
957.66        73.43484
958.05        74.88393
958.44        76.14391
958.83        76.22143
959.22        74.95231
959.61        72.68556
960.00        70.28462
960.39        68.99953
960.78        69.07687
961.16         70.1939
961.55         71.7437
961.94         72.7903
962.33        72.99085
962.72        72.60743
963.11        71.87796
963.49        71.26926
963.88        70.94136
964.27        70.77143
964.66        70.66702
965.04        70.52941
965.43        70.32078
965.82        70.08403
966.21        69.93064
966.60        70.01857
966.98        70.38144
967.37        70.93665
967.76        71.43774
968.15        71.47223
968.53        70.97628
968.92         70.0772
969.31        69.12886
969.69        68.69188
970.08        68.85574
970.47        69.45537
970.86        70.20545
971.24        70.59523
971.63        70.38541
972.02        69.78165
972.40        68.93079
972.79        68.07964
973.17        67.37934
973.56        66.80764
973.95        66.41574
974.33        66.29315
974.72        66.39217
975.11        66.64452
975.49        67.18939
975.88        68.19498
976.26        69.65921
976.65        71.42184
977.04        72.82639
977.42        72.84151
977.81        71.34763
978.19        68.66943
978.58        66.11071
978.96        65.39262
979.35        66.84789
979.74        70.11284
980.12        74.18437
980.51        76.39159
980.89        76.03455
981.28        73.71631
981.66        70.74131
982.05        69.32542
982.43        70.02293
982.82        72.08435
983.20        74.86502
983.59        77.09583
983.97         78.3591
984.35        78.99654
984.74        78.85891
985.12        77.81767
985.51        75.98129
985.89        73.38039
986.28        70.76079
986.66        69.18819
987.04        69.05183
987.43        70.12116
987.81        71.82658
988.20        72.91512
988.58        73.03895
988.96         72.3597
989.35        71.49023
989.73        71.42025
990.12        72.30495
990.50        73.85616
990.88        75.19897
991.27        74.96915
991.65        73.04173
992.03        70.00403
992.42        66.99721
992.80        65.48605
993.18        65.94633
993.56        67.86143
993.95        70.52369
994.33        72.98367
994.71        74.55717
995.10        75.46765
995.48        75.60289
995.86        74.80817
996.24        73.24517
996.63        71.03574
997.01        68.64947
997.39        66.77544
997.77        65.61095
998.15        65.07115
998.54        65.13735
998.92        65.69916
999.30        66.64237
999.68        67.96664
1000.06        69.39662
1000.45        70.41216
1000.83        70.96206
1001.21        71.01445
1001.59        70.68446
1001.97        70.29662
1002.35        69.98096
1002.73        69.63043
1003.12         69.3791
1003.50        69.36915
1003.88        69.63319
1004.26         70.2085
1004.64        70.74076
1005.02        70.65611
1005.40         69.8912
1005.78        68.58466
1006.16        67.30322
1006.54        67.07012
1006.92        68.11166
1007.30        70.06658
1007.69        72.12651
1008.07        73.21738
1008.45        72.92409
1008.83        71.59673
1009.21        69.75175
1009.59         68.2534
1009.97        67.45813
1010.35        67.20856
1010.73        67.39389
1011.11        67.78802
1011.49        68.36958
1011.86        69.47244
1012.24        71.02947
1012.62        73.30179
1013.00         76.2505
1013.38        79.51227
1013.76        82.83964
1014.14        85.98634
1014.52        88.63988
1014.90        90.73586
1015.28        91.37067
1015.66        89.23132
1016.04        84.78329
1016.41        79.24888
1016.79        74.30623
1017.17        71.15414
1017.55        69.64534
1017.93        69.27784
1018.31        69.87494
1018.69         70.7048
1019.06        71.14835
1019.44        71.47397
1019.82        71.34766
1020.20        70.36543
1020.58        68.51022
1020.95        65.51923
1021.33        62.09018
1021.71        60.34569
1022.09        61.47813
1022.46        64.99016
1022.84        69.30733
1023.22        72.27257
1023.60        73.32607
1023.97         73.1529
1024.35        72.01417
1024.73        70.50005
