SpectraSmart Spectrum 2.9.0.0
--------- Device Information -----------
Spectrum Name :  反射率_0
Saving Time :  2024/05/01 15:57:46
Spectro-Module Model Name : SE2030-DUVN
Spectro-Module Serial Number : OS361AC55029948
Wavelength Start : 200
Wavelength End : 1025
Wavelength Unit : Wavelength(nm)
Spectrum Unit : Reflectance(%)
-----------Spectrum Setting ------------
Integration Time : 20ms
Average : 10
Boxcar : 0
Background removal :  enabled
linearity correction :  enabled
SC :  disabled
Intensity correction :  disabled
DWT denoise :  enabled
savitzky-golay :  disabled
FFT :  disabled
Running average :  disabled
Kalman :  disabled
High pass :  disabled
---------------BEGIN--------------------
Wavelength(nm)             Reflectance(%)
200.29               0
200.75       -20.43188
201.21        124.9748
201.67       -94.58703
202.13       -31.82518
202.58      -0.8598524
203.04        21.55813
203.50        37.77144
203.96        48.42891
204.42        57.83332
204.88        78.78538
205.34        584.2716
205.80       -38.76059
206.26       -24.53613
206.72       -46.56606
207.18       -221.1467
207.64         350.447
208.10        176.7772
208.55        146.9946
209.01        134.8388
209.47        121.8459
209.93        105.5255
210.39        85.70068
210.85        66.92016
211.31        56.48871
211.77        63.18443
212.23       -72.79592
212.69        4.482374
213.14        14.44532
213.60        33.11025
214.06       -131.8621
214.52       -14.02092
214.98       -2.992654
215.44        5.864964
215.90        25.38635
216.36        317.7253
216.81       -150.3508
217.27       -226.7657
217.73        540.2953
218.19        118.8435
218.65        76.60941
219.11        59.86655
219.57        36.84543
220.02        -77.5396
220.48       -78.03799
220.94       -18.49964
221.40        1.598989
221.86        10.18994
222.32        14.43971
222.77        17.38727
223.23        20.55131
223.69        23.76557
224.15        24.29163
224.61        21.86006
225.06        18.63258
225.52         16.5744
225.98        16.31114
226.44        17.58386
226.90        20.15743
227.36        23.90865
227.81         26.8217
228.27        27.31451
228.73        26.44275
229.19        25.07967
229.65        23.56087
230.10        21.81253
230.56        19.76588
231.02        17.71709
231.48        17.00163
231.93         18.1355
232.39        20.34497
232.85        23.05136
233.31        25.88173
233.77        28.63622
234.22        31.35064
234.68        33.67464
235.14        35.41716
235.60        36.73939
236.05         37.8712
236.51        39.17904
236.97        41.33862
237.43         44.2914
237.88        47.26373
238.34         49.4239
238.80        50.93501
239.26        52.10211
239.71         53.5558
240.17        54.06359
240.63        49.93375
241.08        40.62799
241.54        30.04801
242.00        24.32837
242.46        27.80921
242.91        42.37239
243.37        72.45658
243.83        123.6737
244.28        163.8409
244.74        155.0769
245.20        125.2488
245.66        99.15019
246.11        82.88836
246.57        72.10625
247.03        60.84861
247.48        45.43623
247.94        26.25776
248.40        10.66988
248.85        3.839381
249.31        9.253621
249.77        22.82139
250.22        37.88876
250.68        51.22087
251.14        61.18555
251.59        68.28938
252.05        74.75336
252.51        83.62216
252.96        102.4345
253.42        140.6848
253.88        161.3925
254.33        142.6122
254.79        122.6442
255.25        108.9727
255.70        98.54852
256.16         90.9595
256.62        85.33537
257.07        81.52541
257.53        79.68068
257.99        78.68957
258.44        77.87963
258.90        77.31518
259.35        76.47148
259.81        75.75686
260.27        74.94719
260.72        73.89891
261.18        72.96232
261.63        71.79209
262.09        70.78622
262.55        69.89108
263.00        68.92618
263.46        68.03085
263.91        66.86472
264.37        65.41373
264.83        63.65395
265.28         61.7227
265.74        59.85787
266.19        58.05243
266.65        56.46969
267.11        54.99056
267.56         53.7805
268.02        53.20882
268.47        53.21703
268.93        53.63353
269.38         54.0122
269.84        53.58385
270.30        52.21868
270.75        50.16549
271.21        47.87348
271.66        45.89793
272.12        44.47295
272.57        43.36555
273.03        42.54519
273.48        41.88857
273.94        41.35106
274.39        40.94612
274.85        40.54964
275.31        39.88369
275.76        38.91971
276.22        37.79915
276.67        36.67382
277.13        35.89372
277.58        35.43355
278.04        35.21444
278.49        35.04559
278.95        34.76936
279.40        34.28486
279.86        33.71296
280.31        33.05328
280.77        32.41036
281.22        31.76247
281.68        31.14672
282.13        30.53165
282.59        29.97301
283.04        29.45165
283.50        29.02705
283.95         28.6877
284.41        28.46609
284.86        28.35473
285.32        28.35982
285.77        28.48207
286.22         28.7741
286.68        29.21984
287.13        29.74987
287.59        30.27363
288.04        30.59945
288.50        30.70305
288.95        30.59725
289.41        30.39953
289.86        30.19361
290.32         30.0642
290.77        30.00584
291.22        30.02831
291.68        30.12632
292.13        30.31282
292.59        30.64328
293.04        31.16809
293.50        32.00494
293.95         33.1391
294.40        34.52738
294.86        36.05091
295.31        37.53324
295.77        38.90702
296.22        40.18358
296.68        41.42438
297.13        42.71728
297.58        44.11615
298.04        45.62547
298.49        47.18791
298.95         48.7529
299.40        50.27528
299.85        51.76521
300.31        53.33992
300.76        55.15347
301.21        57.24626
301.67        59.58861
302.12        61.92674
302.58        63.88655
303.03        65.35217
303.48        66.46964
303.94        67.61015
304.39        69.21345
304.84        71.42295
305.30        74.07354
305.75        76.84257
306.20        79.25803
306.66        81.18848
307.11        82.71893
307.57        84.07042
308.02        85.45481
308.47        86.98361
308.93        88.58527
309.38        90.12907
309.83         91.5166
310.29        92.74557
310.74        93.86591
311.19        94.96248
311.65        96.12959
312.10        97.36143
312.55        98.60294
313.00        99.85878
313.46        101.1471
313.91        102.4311
314.36        103.7042
314.82        104.7958
315.27        105.4475
315.72        105.6183
316.18        105.4411
316.63        105.1424
317.08        105.1481
317.53        105.5614
317.99        106.2635
318.44         107.098
318.89        107.7631
319.35        108.1616
319.80        108.4132
320.25        108.5687
320.70        108.7156
321.16        108.8843
321.61        109.0428
322.06         109.262
322.51        109.6898
322.97        110.3102
323.42         111.128
323.87         111.922
324.32        112.3446
324.78        112.3066
325.23        111.9394
325.68        111.4611
326.13        111.2583
326.59        111.4227
327.04         111.909
327.49        112.5359
327.94        113.0215
328.39        113.2659
328.85         113.292
329.30        113.3142
329.75        113.5192
330.20         113.964
330.66        114.5561
331.11        115.1526
331.56        115.3849
332.01        115.1975
332.46        114.7086
332.92        114.2201
333.37        114.3463
333.82        115.2023
334.27         116.648
334.72        118.3194
335.17        119.5648
335.63        120.1323
336.08         120.225
336.53        120.1115
336.98        120.3134
337.43        120.9799
337.88        121.9559
338.34        122.9397
338.79        123.5354
339.24         123.598
339.69        123.2882
340.14        122.9293
340.59        123.0085
341.05        123.6336
341.50        124.6724
341.95        125.8052
342.40        126.5204
342.85        126.6994
343.30        126.5194
343.75        126.2901
344.20        126.4899
344.66        127.2175
345.11        128.2858
345.56        129.4556
346.01        130.3275
346.46        130.7736
346.91        130.9483
347.36        130.9441
347.81        130.8937
348.26        130.8753
348.72        130.8496
349.17        130.8869
349.62        131.1849
350.07         131.724
350.52        132.4009
350.97         133.009
351.42        133.1911
351.87        132.8801
352.32        132.2567
352.77         131.378
353.22        130.3455
353.67        129.2557
354.13        128.0934
354.58        127.1365
355.03         126.931
355.48        127.5147
355.93        128.7689
356.38        130.0155
356.83        130.1076
357.28        128.8324
357.73        126.5626
358.18        124.1853
358.63        123.0243
359.08        123.3249
359.53        124.6538
359.98        126.2434
360.43        126.8042
360.88        125.9744
361.33        124.1921
361.78        122.0606
362.23        120.4383
362.68        119.5526
363.13        119.1305
363.58        118.8452
364.03        118.2136
364.48        117.1033
364.93        115.6858
365.38         114.259
365.83        113.2303
366.28        112.6727
366.73        112.4556
367.18        112.2046
367.63        111.3436
368.08        109.7999
368.53        107.8097
368.98        105.8748
369.43        104.7152
369.88        104.4578
370.33        104.8641
370.78        105.4955
371.23        105.5858
371.68        104.9031
372.13        103.6998
372.58        102.3026
373.03        101.1948
373.48        100.5019
373.93        100.0373
374.38        99.67989
374.83        99.26014
375.28        98.70937
375.72        98.09648
376.17        97.43527
376.62        96.65764
377.07        95.77643
377.52        94.80705
377.97        93.85226
378.42        93.08619
378.87        92.54904
379.32         92.1974
379.77        91.93675
380.22         91.6104
380.67        91.17403
381.11        90.67388
381.56        90.16038
382.01        89.74202
382.46        89.44736
382.91        89.23029
383.36        89.03449
383.81        88.77979
384.26        88.43824
384.71         88.0337
385.15        87.58115
385.60        87.15423
386.05        86.75864
386.50        86.38451
386.95        86.01316
387.40        85.62516
387.85        85.21842
388.29        84.74841
388.74        84.34698
389.19        84.00403
389.64        83.71942
390.09        83.47224
390.54        83.20358
390.98        82.85176
391.43        82.47481
391.88        81.95654
392.33        81.38999
392.78        81.21748
393.23        81.30763
393.67        80.87125
394.12        80.08555
394.57        79.80508
395.02        79.93645
395.47        79.57349
395.91        78.82451
396.36        78.49724
396.81        78.63049
397.26        78.84617
397.71        78.97508
398.15        78.86944
398.60        78.57206
399.05        78.06357
399.50        77.53191
399.95        77.28808
400.39        77.36162
400.84        77.50089
401.29        77.56255
401.74        77.41967
402.18        77.02524
402.63        76.36639
403.08        75.66189
403.53        75.24475
403.97        75.16349
404.42        75.31956
404.87         75.5377
405.32        75.53798
405.76        75.24973
406.21         74.8449
406.66        74.41251
407.11        74.01254
407.55        73.78926
408.00        73.81051
408.45         74.0078
408.90        74.32329
409.34         74.5032
409.79        73.96188
410.24         72.9556
410.68        72.47659
411.13        72.61893
411.58        72.84033
412.03        73.00496
412.47        73.12754
412.92        73.12173
413.37        73.00919
413.81        72.84748
414.26        72.77875
414.71        72.81087
415.15          72.918
415.60        73.02744
416.05        73.07816
416.49         73.0517
416.94        72.96777
417.39        72.86195
417.83        72.77132
418.28        72.71595
418.73        72.69111
419.17        72.67773
419.62        72.65108
420.07         72.5967
420.51        72.50601
420.96         72.4549
421.41        72.42688
421.85        72.39454
422.30         72.5571
422.74        72.79438
423.19        72.64908
423.64        72.25654
424.08        72.48511
424.53        73.20855
424.98        73.50484
425.42        73.28538
425.87         73.1468
426.31        73.17236
426.76        72.94685
427.21        72.66278
427.65         73.0845
428.10        73.91695
428.54        74.20152
428.99        73.92416
429.44        73.14182
429.88        72.23438
430.33        72.68603
430.77        73.98487
431.22        73.85762
431.66        72.48778
432.11        71.97767
432.56        72.45478
433.00        73.06741
433.45        73.53756
433.89        73.62457
434.34        72.39437
434.78         73.8736
435.23         73.2459
435.67        73.40858
436.12        73.14926
436.57        73.65786
437.01        74.74707
437.46        75.18147
437.90        74.89501
438.35        74.59949
438.79        74.39257
439.24        74.00331
439.68        73.57971
440.13         73.6869
440.57        74.27596
441.02         74.6524
441.46        74.69105
441.91        75.04942
442.35        75.52845
442.80        75.10813
443.24        74.76651
443.69        74.53501
444.13        74.70724
444.58        74.78872
445.02        74.77255
445.47        74.98139
445.91         75.3578
446.36        75.68389
446.80        75.90984
447.24        76.09866
447.69        76.24059
448.13        76.30234
448.58        76.30483
449.02        76.22312
449.47        76.12296
449.91        76.06915
450.36        76.09695
450.80        76.16611
451.25        76.24421
451.69        76.22782
452.13        76.10689
452.58        75.92512
453.02        75.71857
453.47        75.54858
453.91        75.41312
454.36         75.3675
454.80        75.40227
455.24        75.12263
455.69        75.12981
456.13        74.91242
456.58         74.7646
457.02        74.40305
457.46        74.31765
457.91        74.63741
458.35        75.23119
458.79        75.26613
459.24        74.69897
459.68        74.06882
460.13        73.70499
460.57        72.71677
461.01        72.99588
461.46        73.06203
461.90        73.49207
462.34        73.27222
462.79         72.4757
463.23         72.5732
463.68        73.32944
464.12        73.49123
464.56        73.02512
465.01        72.50321
465.45        72.06496
465.89        72.30956
466.34        72.98139
466.78        72.79819
467.22        71.84526
467.67        71.45017
468.11        71.48164
468.55        71.71648
468.99        71.93472
469.44        72.01199
469.88        71.91156
470.32        71.76452
470.77        71.63581
471.21        71.55769
471.65        71.53908
472.10        71.59037
472.54        71.64187
472.98        71.59321
473.42        71.42133
473.87        71.24245
474.31        71.07584
474.75        70.82258
475.20        70.57435
475.64        70.74798
476.08         71.2365
476.52         71.1578
476.97        70.87707
477.41        70.92628
477.85        70.09081
478.29        70.42492
478.74        70.69002
479.18        70.87096
479.62        70.05535
480.06        69.96728
480.50        70.45044
480.95         69.7669
481.39        70.30794
481.83         69.8567
482.27        70.02882
482.72        70.03767
483.16        69.70573
483.60        69.78589
484.04        70.10175
484.48        70.13691
484.93        70.09711
485.37         71.0153
485.81        70.58687
486.25        71.50367
486.69        71.17471
487.14        68.90584
487.58        68.13034
488.02        70.04803
488.46        69.31541
488.90        69.03516
489.34        69.99536
489.79        69.68671
490.23        69.49114
490.67         69.2366
491.11        69.22013
491.55        69.24387
491.99        69.25154
492.43        69.20779
492.88        69.10085
493.32        69.03079
493.76        68.99937
494.20        68.99731
494.64        69.02357
495.08        69.00116
495.52        68.96573
495.96        69.08804
496.41        69.29755
496.85        69.36124
497.29        69.21142
497.73        68.90949
498.17        68.56234
498.61        68.29617
499.05        68.21096
499.49        68.46133
499.93        68.90906
500.37        69.03117
500.82        68.84538
501.26        68.87693
501.70        69.12783
502.14        69.24837
502.58        69.19437
503.02        69.08524
503.46        68.92924
503.90        68.69127
504.34         68.4575
504.78        68.37419
505.22        68.46143
505.66        68.69292
506.10        68.97643
506.54        69.07172
506.98         68.8906
507.42        68.77738
507.86        68.40999
508.30        67.98967
508.74        68.23103
509.18         68.3813
509.62        68.59387
510.06        68.74783
510.50        68.80765
510.94        68.79036
511.38        68.72017
511.82        68.65613
512.26        68.61182
512.70        68.56441
513.14        68.50056
513.58        68.40373
514.02        68.27402
514.46        68.13026
514.90        67.98888
515.34        67.87029
515.78        67.78607
516.22        67.73457
516.66        67.71789
517.10        67.73689
517.54        67.78605
517.98        67.85973
518.42        67.94585
518.86         68.0232
519.30        68.08482
519.74        68.13496
520.18        68.16904
520.62        68.18584
521.06        68.18472
521.50        68.15502
521.93         68.1229
522.37        68.12214
522.81        68.15923
523.25        68.22775
523.69        68.26592
524.13        68.17387
524.57        67.94762
525.01         67.6332
525.45        67.33047
525.89        67.19331
526.32         67.2541
526.76        67.45988
527.20        67.73154
527.64         67.9416
528.08        68.04491
528.52        68.07909
528.96        68.05887
529.40        68.01004
529.83        67.94178
530.27        67.85688
530.71        67.77909
531.15        67.76785
531.59        67.83163
532.03        67.95448
532.46         68.0799
532.90        68.13434
533.34         68.1005
533.78        67.95287
534.22        67.74329
534.66        67.66868
535.09        67.68545
535.53         67.5288
535.97        67.23566
536.41        67.10671
536.85        67.15859
537.28         67.2323
537.72        67.29697
538.16        67.36545
538.60        67.42223
539.04        67.44976
539.47        67.42871
539.91        67.46715
540.35        67.57003
540.79         67.5648
541.22        67.38842
541.66        67.78891
542.10        67.43563
542.54        67.40131
542.97        67.31498
543.41        67.27927
543.85        67.28562
544.29         67.3352
544.72        67.39604
545.16         67.4157
545.60        67.37185
546.04        67.27573
546.47        67.16483
546.91        67.11161
547.35         67.1383
547.79        67.20681
548.22        67.23141
548.66        67.22558
549.10        67.17629
549.53        66.78704
549.97        66.71717
550.41        66.65693
550.84        66.80145
551.28        67.10743
551.72        67.46267
552.15        67.61735
552.59        67.56101
553.03        67.45283
553.46        67.33661
553.90        67.30213
554.34        67.37118
554.77        67.41769
555.21        67.36999
555.65         67.6785
556.08         67.3651
556.52        67.15244
556.96        66.85775
557.39         66.6198
557.83         66.4549
558.27         66.8429
558.70        66.58387
559.14        66.89007
559.57        66.81214
560.01        67.05196
560.45        67.29453
560.88        67.18598
561.32        66.84635
561.75        66.48087
562.19        66.26229
562.63        66.44988
563.06        66.89785
563.50        66.85918
563.93        66.38712
564.37         66.2866
564.80        66.54184
565.24        66.71107
565.68        66.73795
566.11        66.75028
566.55        66.76638
566.98        66.72193
567.42        66.68132
567.85        66.70484
568.29          66.838
568.72          66.967
569.16        67.10248
569.60         67.3163
570.03        67.26231
570.47        67.18807
570.90        67.52493
571.34        66.89349
571.77        67.08087
572.21        66.97546
572.64        67.13431
573.08        66.65935
573.51         66.9384
573.95        67.33355
574.38         66.9022
574.82        67.17113
575.25        67.48624
575.69         67.5515
576.12        67.35424
576.56        67.05408
576.99        67.50576
577.42        67.17516
577.86        67.33416
578.29          67.453
578.73         68.3575
579.16        67.38782
579.60         66.9333
580.03        66.55447
580.47        67.22258
580.90        66.39819
581.33        67.38391
581.77        67.71478
582.20        68.17169
582.64        67.77224
583.07        67.61482
583.51        67.09236
583.94        66.83607
584.37        67.07754
584.81        67.77802
585.24        67.85391
585.68        67.25249
586.11        67.54167
586.54        67.51546
586.98        66.68401
587.41        66.25122
587.85        67.16026
588.28        67.64547
588.71        66.20013
589.15        67.30989
589.58        66.53228
590.01        66.19603
590.45        66.24563
590.88        66.85626
591.31        67.08931
591.75        66.75214
592.18        66.70885
592.61        66.04363
593.05        66.35104
593.48        66.44675
593.91          66.818
594.35        66.61165
594.78        66.35307
595.21        66.27897
595.65        66.72605
596.08        66.77099
596.51        66.29411
596.94        66.19913
597.38         65.9844
597.81        66.06601
598.24        65.99915
598.68        66.61236
599.11         65.8859
599.54         67.1748
599.97        66.75203
600.41        66.33978
600.84        66.75613
601.27        66.47794
601.70        66.92104
602.14        67.00584
602.57        66.74232
603.00         66.4985
603.43        66.15778
603.87        66.21859
604.30        66.16014
604.73        66.17162
605.16        65.68468
605.60        65.80089
606.03        66.05139
606.46        66.50983
606.89        66.36094
607.32        65.83263
607.76        65.62131
608.19        65.84692
608.62        66.28564
609.05        66.23849
609.48        66.39387
609.92        65.99452
610.35        65.32708
610.78        66.85271
611.21        66.90045
611.64        66.25459
612.07        66.45664
612.50        66.89051
612.94        66.38752
613.37         66.2026
613.80         66.2695
614.23        65.89429
614.66        66.17938
615.09        65.78477
615.52        65.81642
615.96        65.91238
616.39        66.03349
616.82         66.2001
617.25        66.03744
617.68        66.38445
618.11        66.33307
618.54        66.14426
618.97        65.91074
619.40        65.75959
619.84        65.64021
620.27        65.56116
620.70        65.97213
621.13        66.78069
621.56        65.86121
621.99        65.77229
622.42        65.60976
622.85        65.60422
623.28        65.78181
623.71        65.64676
624.14        66.09421
624.57        65.92994
625.00        66.00831
625.43        65.98858
625.86        65.92643
626.29        65.83755
626.72        65.40194
627.15        65.41542
627.58         65.1255
628.01        64.84447
628.44        64.98058
628.87        65.44431
629.30        65.46275
629.73        65.26062
630.16        65.31033
630.59         65.4688
631.02        65.57821
631.45        65.54523
631.88        65.47697
632.31         65.3737
632.74         65.2463
633.17        65.09239
633.60        65.03152
634.03        65.06473
634.46        65.17572
634.89        65.32162
635.32        65.42377
635.75        65.45628
636.18        65.44014
636.61        65.38621
637.04        65.31701
637.47        65.25126
637.89        65.17012
638.32        65.06414
638.75        65.02531
639.18        65.07395
639.61        64.92529
640.04        65.05549
640.47        65.04928
640.90        65.04536
641.33        65.02589
641.76        64.98277
642.18        64.99348
642.61        65.06176
643.04        65.02903
643.47        64.83629
643.90        65.30914
644.33        65.03742
644.76         65.0558
645.18        64.99875
645.61        65.19631
646.04        65.54325
646.47        65.50817
646.90        65.15205
647.33        65.01547
647.75        65.12542
648.18        65.16187
648.61        65.12074
649.04        65.09148
649.47        65.06435
649.89        65.15819
650.32        65.29434
650.75        65.08616
651.18          64.668
651.61        64.71627
652.03        65.20238
652.46        65.41139
652.89        65.28333
653.32        65.22012
653.74        65.35733
654.17         65.1613
654.60        65.39886
655.03        65.63779
655.46        64.40888
655.88        64.89906
656.31         71.6155
656.74        70.84255
657.16        65.60645
657.59        63.73577
658.02        65.08737
658.45        65.44551
658.87        65.52068
659.30        64.53825
659.73        64.57648
660.15        65.22421
660.58        64.96962
661.01        64.85089
661.44        64.39819
661.86        64.41898
662.29        64.85827
662.72        65.11816
663.14        65.16608
663.57        65.25209
664.00        65.36458
664.42        65.34978
664.85        65.21278
665.27         64.9677
665.70        64.69254
666.13        64.53596
666.55        64.54079
666.98        64.64538
667.41        64.81922
667.83        65.01623
668.26        65.19016
668.69        65.35024
669.11        65.47397
669.54        65.55134
669.96        65.57004
670.39        65.46616
670.82        65.29847
671.24        65.21263
671.67        65.23377
672.09        65.29692
672.52        65.36639
672.94        65.35361
673.37        65.24648
673.80        65.07211
674.22        64.89124
674.65        64.76965
675.07        64.74673
675.50        64.78697
675.92        64.86146
676.35         64.9146
676.77        64.93221
677.20        64.92543
677.62        64.91325
678.05        64.91138
678.47        64.92594
678.90        64.95543
679.32        64.98438
679.75        65.01443
680.17        65.03519
680.60        65.04527
681.02        65.05795
681.45        65.07327
681.87         65.1031
682.30         65.1565
682.72        65.21231
683.15        65.16166
683.57         65.0235
684.00         64.9042
684.42        64.84838
684.85        64.84354
685.27        64.89262
685.70         65.0523
686.12        65.21604
686.54        65.19773
686.97        65.07745
687.39        64.71695
687.82        65.03043
688.24        64.95943
688.66        64.62708
689.09        64.44032
689.51        64.96976
689.94        65.08553
690.36         64.9514
690.78        64.88637
691.21        64.95242
691.63        65.00453
692.06        65.09953
692.48         65.5058
692.90        66.07373
693.33        66.31445
693.75        66.17355
694.17        65.81911
694.60        65.41367
695.02        65.21093
695.44         65.2169
695.87        65.22206
696.29        65.19575
696.71        65.06934
697.14        64.94253
697.56        65.21633
697.98        65.77857
698.41        66.04716
698.83        65.97164
699.25        65.87205
699.68        65.77795
700.10        65.67116
700.52        65.57414
700.94        65.44526
701.37        65.34274
701.79        65.48083
702.21        65.79303
702.64        66.06882
703.06        66.22027
703.48        66.17422
703.90        65.89387
704.33        65.80495
704.75        65.19662
705.17        64.99723
705.59        65.01876
706.01        65.20016
706.44        65.47289
706.86        65.74199
707.28        65.94684
707.70        66.15675
708.12        66.33839
708.55        66.31307
708.97         66.1292
709.39        66.06193
709.81         66.1189
710.23        66.09099
710.66         65.9801
711.08        65.94578
711.50        65.97528
711.92        65.98307
712.34        65.96356
712.76        65.94693
713.19        65.91884
713.61        65.90191
714.03        65.88106
714.45        65.84791
714.87        65.83096
715.29        65.87626
715.71         65.9875
716.13        66.15453
716.56        66.29916
716.98        66.37392
717.40        66.33036
717.82        66.18739
718.24        66.02766
718.66        65.98566
719.08        66.08583
719.50        66.28632
719.92        66.48669
720.34        66.52281
720.76        66.36067
721.19        66.06068
721.61        65.72912
722.03        65.52434
722.45        65.49817
722.87        65.61198
723.29        65.80402
723.71        65.97036
724.13        66.07071
724.55        66.12226
724.97        66.16859
725.39        66.27965
725.81        66.46223
726.23        66.68448
726.65        66.85886
727.07        66.85342
727.49        66.65166
727.91        66.30732
728.33        65.94356
728.75        65.75281
729.17        65.77966
729.59        65.96409
730.01        66.21128
730.43        66.35381
730.85        66.34167
731.27         66.2404
731.69         66.0899
732.10        65.94896
732.52         65.8504
732.94        65.76551
733.36        65.73633
733.78        65.82939
734.20        66.03629
734.62        66.36383
735.04        66.71994
735.46         66.8449
735.88         66.7641
736.30        66.78599
736.72        66.87659
737.13        66.81497
737.55         66.5921
737.97         66.2296
738.39        65.89211
738.81        66.10349
739.23        66.74889
739.65        66.97799
740.06        66.72028
740.48        66.68058
740.90        66.83074
741.32        66.76357
741.74        66.49989
742.16        66.33334
742.57        66.30674
742.99        66.29977
743.41        66.33201
743.83        66.48264
744.25        66.70877
744.67        66.88044
745.08        66.96035
745.50        66.93136
745.92        66.80077
746.34        66.53329
746.75        66.20048
747.17         65.9791
747.59        65.88929
748.01        65.91505
748.42         66.0295
748.84        66.09077
749.26        66.10983
749.68        66.23827
750.09        66.42967
750.51        66.51705
750.93        66.48298
751.35        66.40397
751.76        66.33888
752.18        66.34624
752.60        66.44952
753.01        66.65063
753.43        66.85773
753.85        66.96242
754.27        66.93932
754.68        66.81804
755.10        66.69199
755.52        66.70406
755.93        66.87072
756.35        67.13663
756.77        67.39928
757.18        67.46108
757.60        67.29665
758.02        67.06982
758.43        66.82047
758.85        66.49754
759.26         66.2534
759.68        66.33505
760.10        66.65149
760.51        67.05983
760.93        67.48212
761.34        66.64949
761.76        66.96751
762.18         66.5171
762.59        66.17461
763.01        66.26521
763.42        66.78787
763.84        67.06829
764.26        67.02965
764.67         67.0284
765.09        67.10104
765.50        67.03957
765.92        66.89094
766.33        66.72932
766.75        66.53067
767.16        66.48415
767.58         66.5827
768.00        66.60534
768.41        66.66953
768.83        67.34286
769.24        68.39578
769.66        68.83987
770.07        68.62924
770.49        68.35901
770.90        68.16737
771.32        68.07918
771.73        68.09708
772.15        67.98895
772.56        67.77818
772.97        67.71478
773.39         67.7793
773.80        67.82967
774.22        67.81712
774.63          67.838
775.05        67.86191
775.46        67.90106
775.88        67.92716
776.29        67.95355
776.70        67.97575
777.12        68.01712
777.53        68.09398
777.95        68.17232
778.36        68.23434
778.77        68.23083
779.19        68.15961
779.60        68.03992
780.02        67.89236
780.43        67.80011
780.84         67.7962
781.26        67.71758
781.67        67.59748
782.09        67.81753
782.50        68.21691
782.91        67.98808
783.33           67.32
783.74         67.2578
784.15        67.88064
784.57        68.58886
784.98        69.24361
785.39        69.81073
785.81        70.20281
786.22        70.22208
786.63        70.30381
787.04        70.14809
787.46        69.95966
787.87        69.74012
788.28        69.59283
788.70        69.59284
789.11         69.7252
789.52        70.01654
789.93        70.32173
790.35        70.36751
790.76        70.12919
791.17        69.67913
791.58        69.16799
792.00        68.87208
792.41        68.88059
792.82        68.95471
793.23        69.03083
793.65        69.41424
794.06        69.87762
794.47        69.51025
794.88        68.60052
795.29        68.29974
795.71        68.60858
796.12        69.03527
796.53        69.37949
796.94        69.54814
797.35        69.44114
797.76        69.10643
798.18         68.7284
798.59        68.55011
799.00        68.64386
799.41        68.92976
799.82        69.30404
800.23        69.58977
800.64        69.72067
801.06        69.73254
801.47        69.68751
801.88         69.5913
802.29        69.47163
802.70        69.31979
803.11        69.18222
803.52        69.14139
803.93        69.22253
804.34        69.40697
804.75        69.65268
805.17        69.92067
805.58        70.21995
805.99        70.34448
806.40        70.30035
806.81        70.52704
807.22        70.83897
807.63        70.29665
808.04        69.12022
808.45        68.54034
808.86        68.69204
809.27        68.94075
809.68        69.16453
810.09        69.42081
810.50        69.63972
810.91        69.81361
811.32        69.91859
811.73        69.91532
812.14        69.81201
812.55        69.61375
812.96        69.42503
813.37        69.43237
813.78        69.67398
814.19        70.09223
814.60         70.5612
815.01        70.88435
815.42        71.00803
815.83        70.98042
816.24        70.85377
816.65        70.73354
817.05        70.66982
817.46        70.60956
817.87        70.56064
818.28        70.49385
818.69        70.39876
819.10        70.28828
819.51        70.19021
819.92        70.14593
820.33        70.16164
820.74        70.22047
821.14        70.26038
821.55        70.21395
821.96        70.06353
822.37        69.85694
822.78         69.6615
823.19        69.59631
823.60        69.70503
824.00         69.9606
824.41        70.31137
824.82        70.77679
825.23        71.30983
825.64        71.87504
826.04        72.36008
826.45        72.50665
826.86        72.29283
827.27         71.7976
827.68        71.14194
828.08        70.55627
828.49        70.10507
828.90        69.76025
829.31        69.57546
829.72        69.61164
830.12        69.89077
830.53        70.37565
830.94        70.89984
831.35        71.10575
831.75        70.92385
832.16        70.39636
832.57        69.83585
832.97         69.7246
833.38        70.14101
833.79        70.92872
834.20        71.79388
834.60        72.23164
835.01         72.0769
835.42        71.53018
835.82        70.80283
836.23        70.21219
836.64         69.8736
837.04         69.6966
837.45        69.65932
837.86        69.79118
838.26        70.07211
838.67        70.47363
839.08        70.86568
839.48        70.99383
839.89        70.79654
840.29        70.34678
840.70        69.82163
841.11        69.47578
841.51        69.40131
841.92        69.50854
842.33        69.75065
842.73        70.05106
843.14        70.31747
843.54        70.61896
843.95        70.89444
844.35        71.11428
844.76        71.23279
845.17        71.23411
845.57        71.16099
845.98        71.08419
846.38        71.04194
846.79        71.01139
847.19        70.95122
847.60        70.71026
848.00        70.30662
848.41        69.78857
848.81        69.32484
849.22        69.14265
849.62        69.30367
850.03        69.71429
850.43        70.23172
850.84          70.466
851.24        70.37508
851.65        70.02483
852.05        69.64005
852.46        69.55627
852.86        69.82759
853.27        70.32321
853.67        70.84468
854.07        71.30907
854.48        71.61267
854.88        71.88538
855.29        71.93555
855.69        71.69486
856.10        71.08115
856.50        70.23654
856.90        69.39249
857.31        68.89117
857.71        68.79909
858.12        68.97043
858.52        69.35382
858.92         69.6309
859.33        69.67087
859.73        69.60509
860.13        69.37056
860.54        68.90921
860.94        68.25426
861.34         67.4018
861.75        66.59073
862.15        66.28933
862.55        66.57974
862.96        67.32448
863.36        68.20421
863.76        68.59927
864.17        68.35749
864.57        67.67736
864.97        66.85799
865.38        66.40309
865.78         66.4821
866.18        66.90897
866.58        67.49294
866.99        67.89459
867.39        68.01967
867.79        67.99113
868.19         67.8432
868.60        67.58419
869.00        67.24588
869.40        66.80209
869.80        66.43974
870.21        66.51173
870.61        67.11571
871.01        68.07216
871.41        69.00154
871.81        69.33021
872.22        68.93432
872.62        67.99373
873.02        66.81705
873.42        65.92253
873.82        65.50836
874.22        65.47411
874.63        65.67526
875.03        65.87018
875.43        65.97876
875.83        66.05881
876.23        66.24157
876.63        66.71973
877.03        67.49329
877.44        68.44232
877.84        69.28833
878.24         69.5422
878.64        69.11672
879.04        68.19009
879.44        67.14578
879.84        66.56245
880.24        66.57171
880.64         67.0011
881.04        67.60229
881.44        67.95931
881.84        67.95233
882.24         67.7299
882.65        67.37876
883.05        67.15485
883.45         67.1119
883.85        67.15715
884.25        67.31174
884.65        67.63012
885.05        68.09834
885.45         68.7116
885.85        69.32001
886.25        69.65357
886.65        69.62944
887.05        69.28989
887.45        68.82084
887.85        68.52671
888.25        68.49162
888.65        68.66282
889.04        68.84508
889.44        68.69562
889.84          68.172
890.24        67.38351
890.64        66.64371
891.04        66.39281
891.44        66.70453
891.84        67.46998
892.24        68.29189
892.64         68.4967
893.04        67.94498
893.44        66.84902
893.83         65.7428
894.23        65.44664
894.63        66.09058
895.03        67.41859
895.43        68.88995
895.83        69.51708
896.23        69.04726
896.63        67.87976
897.02        66.48614
897.42        65.63062
897.82        65.43784
898.22        65.69372
898.62        66.26638
899.01        66.96449
899.41        67.62091
899.81        68.32938
900.21        69.01604
900.61        69.53648
901.00        69.84102
901.40        69.88737
901.80        69.75098
902.20        69.59514
902.59        69.47558
902.99        69.37109
903.39         69.2374
903.79        68.98636
904.18        68.60543
904.58        68.17553
904.98        67.79206
905.38        67.59551
905.77        67.61246
906.17        67.82413
906.57        68.10339
906.96         68.2579
907.36        68.22446
907.76        68.06133
908.15        67.94002
908.55        68.09407
908.95        68.57948
909.34        69.30967
909.74         70.0357
910.14        70.44344
910.53         70.4271
910.93        70.06894
911.33        69.54195
911.72        69.11599
912.12        68.89566
912.52        68.81901
912.91        68.73701
913.31        68.39962
913.70        67.78841
914.10        67.02538
914.49        66.37155
914.89        66.19019
915.29        66.55564
915.68        67.33936
916.08        68.28424
916.47        68.97289
916.87        69.26069
917.26        69.25156
917.66        69.10075
918.05        69.05843
918.45        69.18917
918.84        69.44337
919.24        69.71525
919.64        69.90469
920.03        69.98775
920.42        69.99114
920.82        69.98243
921.21        70.07431
921.61         70.2499
922.00        70.47115
922.40        70.61774
922.79        70.55766
923.19        70.24789
923.58        69.76604
923.98        69.18635
924.37        68.54269
924.77        67.89953
925.16        67.24821
925.55        66.70068
925.95        66.41585
926.34        66.45624
926.74        66.75002
927.13        67.25742
927.52        67.80312
927.92        68.29744
928.31        68.76854
928.70        69.15855
929.10         69.4142
929.49        69.54367
929.89        69.53766
930.28        69.44547
930.67        69.32538
931.07        69.19381
931.46        69.02811
931.85        68.89041
932.24        68.87585
932.64        68.99223
933.03        69.27591
933.42        69.50784
933.82        69.35834
934.21        68.79569
934.60        67.90611
934.99        67.11205
935.39        67.03098
935.78        67.81072
936.17        69.31886
936.56        70.97881
936.96        71.71177
937.35        71.25746
937.74        69.89342
938.13         68.3705
938.53        67.71176
938.92        68.07011
939.31        69.18225
939.70        70.47661
940.09        70.91487
940.49        70.22507
940.88        68.80658
941.27        67.25883
941.66        66.44907
942.05        66.59202
942.44        67.42308
942.84        68.56668
943.23        69.40855
943.62        69.65841
944.01        69.53024
944.40        69.22496
944.79         69.0567
945.18        69.12595
945.57        69.27643
945.97        69.45579
946.36        69.71249
946.75        69.99259
947.14        70.32865
947.53        70.60013
947.92        70.56728
948.31        70.19771
948.70        69.58128
949.09        68.94215
949.48        68.61608
949.87        68.69215
950.26        69.10066
950.65        69.69052
951.04        70.18214
951.43        70.46043
951.82        70.55746
952.21        70.58466
952.60        70.73721
952.99        71.02224
953.38        71.33333
953.77        71.47264
954.16        71.11086
954.55        70.23431
954.94        69.08331
955.33         67.8722
955.72        66.90152
956.11        66.27871
956.50        65.86768
956.89        65.82753
957.28        66.41152
957.66        67.62984
958.05        69.32037
958.44        70.86151
958.83        71.07043
959.22        69.73473
959.61         67.3103
960.00        64.72594
960.39        63.31455
960.78        63.34657
961.16        64.43198
961.55        66.03486
961.94        67.33856
962.33        68.00453
962.72        68.29488
963.11         68.1739
963.49        67.61245
963.88        66.68996
964.27        65.45405
964.66        64.29516
965.04        63.77972
965.43        63.97685
965.82        64.76311
966.21        65.82684
966.60        66.52122
966.98        66.62285
967.37        66.28445
967.76        65.70431
968.15        65.22391
968.53        64.96983
968.92        64.78829
969.31         64.6911
969.69        64.72272
970.08        64.83311
970.47        65.06976
970.86          65.256
971.24        65.07069
971.63        64.41746
972.02        63.42237
972.40         62.4085
972.79         61.8961
973.17        62.00529
973.56        62.58775
973.95        63.32091
974.33        63.71329
974.72        63.58618
975.11        63.00607
975.49        62.38324
975.88        62.48391
976.26        63.55568
976.65        65.30335
977.04        66.92968
977.42        67.14786
977.81        65.73983
978.19        63.14321
978.58        60.64242
978.96        59.90949
979.35        61.28031
979.74        64.35349
980.12        68.19295
980.51        70.33346
980.89        70.10136
981.28        68.03473
981.66        65.29922
982.05        63.88199
982.43        64.30061
982.82        65.95457
983.20        68.24982
983.59        70.01202
983.97        70.91103
984.35        71.24808
984.74        71.12474
985.12        70.81572
985.51        70.40578
985.89        69.72734
986.28        68.96027
986.66        68.26819
987.04        67.81452
987.43        67.60831
987.81        67.53815
988.20        67.19797
988.58        66.56964
988.96        65.64746
989.35        64.87063
989.73        64.90018
990.12        65.78235
990.50        67.37021
990.88        68.85531
991.27        68.93377
991.65        67.46526
992.03        64.92742
992.42        62.36382
992.80        61.15098
993.18        61.72817
993.56        63.59245
993.95        66.07094
994.33         68.2705
994.71        69.55871
995.10        70.19279
995.48        70.07199
995.86        69.04671
996.24        67.31512
996.63        65.03086
997.01        62.73603
997.39        61.21796
997.77        60.65885
998.15        60.88865
998.54        61.77802
998.92        63.00139
999.30          64.328
999.68        65.78529
1000.06        67.02895
1000.45         67.4536
1000.83        67.05321
1001.21         65.8804
1001.59        64.34492
1001.97        63.25663
1002.35        62.91483
1002.73        63.11918
1003.12         63.8117
1003.50        64.77821
1003.88        65.83711
1004.26        66.99294
1004.64        67.87978
1005.02        67.92941
1005.40        67.10762
1005.78        65.61588
1006.16        63.86699
1006.54        62.67094
1006.92        62.29843
1007.30         62.4574
1007.69        63.02755
1008.07        63.99451
1008.45        65.11954
1008.83        66.49952
1009.21        67.52486
1009.59        67.15754
1009.97        65.26969
1010.35        62.13074
1010.73        58.89228
1011.11        57.61779
1011.49        58.98011
1011.86        62.75231
1012.24        67.61809
1012.62        71.34856
1013.00        72.97855
1013.38        72.80788
1013.76        71.82798
1014.14        72.02956
1014.52        73.99821
1014.90        77.07999
1015.28        79.80032
1015.66        79.68688
1016.04        76.54883
1016.41        71.85889
1016.79        67.42958
1017.17        64.71287
1017.55         63.6698
1017.93         63.7291
1018.31        64.40432
1018.69        64.36763
1019.06        63.16513
1019.44        61.73218
1019.82        60.37679
1020.20        59.04297
1020.58        57.63608
1020.95         55.8016
1021.33        54.18725
1021.71        54.28702
1022.09        56.75914
1022.46        61.14397
1022.84        65.82791
1023.22        68.80078
1023.60        69.60353
1023.97        68.71387
1024.35        66.77539
1024.73        65.09614
