SpectraSmart Spectrum 2.9.0.0
--------- Device Information -----------
Spectrum Name :  反射率_0
Saving Time :  2024/05/01 16:19:14
Spectro-Module Model Name : SE2030-DUVN
Spectro-Module Serial Number : OS361AC55029948
Wavelength Start : 200
Wavelength End : 1025
Wavelength Unit : Wavelength(nm)
Spectrum Unit : Reflectance(%)
-----------Spectrum Setting ------------
Integration Time : 20ms
Average : 10
Boxcar : 0
Background removal :  enabled
linearity correction :  enabled
SC :  disabled
Intensity correction :  disabled
DWT denoise :  enabled
savitzky-golay :  disabled
FFT :  disabled
Running average :  disabled
Kalman :  disabled
High pass :  disabled
---------------BEGIN--------------------
Wavelength(nm)             Reflectance(%)
200.29               0
200.75         -2.0233
201.21        247.2947
201.67        -156.395
202.13       -51.96477
202.58       -3.601658
203.04        30.75177
203.50        55.54544
203.96        72.60226
204.42        89.07966
204.88        126.7622
205.34        1054.098
205.80       -92.82208
206.26       -70.31674
206.72       -122.0819
207.18       -480.2492
207.64        611.9167
208.10        249.0163
208.55        169.6038
209.01        133.7892
209.47        112.8115
209.93        98.26368
210.39        85.22402
210.85        75.30639
211.31         72.6273
211.77        88.40043
212.23       -98.47582
212.69        14.31374
213.14        34.15039
213.60        78.27555
214.06       -368.0177
214.52        -53.8385
214.98       -26.40217
215.44       -6.914698
215.90        36.99118
216.36         651.329
216.81       -280.9959
217.27       -312.2193
217.73        431.8218
218.19        36.08864
218.65        1.424531
219.11       -2.828412
219.57        17.06907
220.02         158.215
220.48        137.6799
220.94        60.81414
221.40        37.71541
221.86        29.76409
222.32        28.64404
222.77        31.50349
223.23        37.24131
223.69        44.82762
224.15        47.67212
224.61        43.63326
225.06        37.69139
225.52        33.42373
225.98        31.46083
226.44        31.19052
226.90        31.83983
227.36        33.33746
227.81        34.95809
228.27        35.73092
228.73        35.93931
229.19        35.57121
229.65         34.4309
230.10        32.45638
230.56         29.6522
231.02        26.35259
231.48        24.36167
231.93        24.61597
232.39        26.28733
232.85        28.61081
233.31        30.96399
233.77        33.14428
234.22        35.34983
234.68        37.25727
235.14        38.64845
235.60        39.65461
236.05        40.38931
236.51        41.38233
236.97        43.95766
237.43        48.45563
237.88        54.02002
238.34        58.72198
238.80        61.57499
239.26        62.63882
239.71        62.02725
240.17        58.77804
240.63        53.01761
241.08        47.37326
241.54        44.29035
242.00        44.89789
242.46        49.49207
242.91        59.49805
243.37        77.72806
243.83         109.484
244.28        140.1679
244.74        143.5954
245.20        131.5331
245.66        118.1465
246.11        107.8078
246.57        98.45981
247.03        85.15091
247.48        64.31834
247.94        39.47749
248.40         22.1645
248.85        16.50937
249.31        22.68006
249.77        32.89454
250.22        42.23365
250.68        50.63912
251.14        56.57724
251.59        59.49823
252.05        60.12609
252.51        57.48968
252.96        51.71593
253.42        60.79229
253.88        97.23218
254.33         117.677
254.79        116.7723
255.25        106.0134
255.70        92.29919
256.16        80.10139
256.62         71.2541
257.07        67.51723
257.53        67.83343
257.99        69.52531
258.44        71.08167
258.90        71.93035
259.35        71.66087
259.81        71.00541
260.27        69.96688
260.72         68.6291
261.18        67.42165
261.63        66.02708
262.09        64.70313
262.55        63.28271
263.00        61.66875
263.46        60.07354
263.91        58.46186
264.37         57.1382
264.83        56.03744
265.28         55.1019
265.74        54.19978
266.19        52.86417
266.65        51.19221
267.11        49.23898
267.56        47.44534
268.02        46.59672
268.47        46.74377
268.93         47.5869
269.38        48.49132
269.84        48.38219
270.30        47.05478
270.75        44.87399
271.21        42.45101
271.66        40.57626
272.12        39.52971
272.57        38.98866
273.03         38.7683
273.48        38.53198
273.94        38.17094
274.39        37.75835
274.85        37.29421
275.31        36.68068
275.76        35.91965
276.22        35.09594
276.67         34.2253
277.13        33.46206
277.58         32.7802
278.04        32.18212
278.49        31.67547
278.95        31.38838
279.40        31.24991
279.86        31.24432
280.31        31.16043
280.77        30.80539
281.22        30.11986
281.68        29.26038
282.13        28.33334
282.59        27.57991
283.04        27.02462
283.50        26.64359
283.95        26.39011
284.41        26.24555
284.86        26.17256
285.32        26.19738
285.77        26.28333
286.22         26.4115
286.68        26.57365
287.13        26.73995
287.59        26.90033
288.04        27.00254
288.50         27.0607
288.95        27.04257
289.41        27.02304
289.86        27.03352
290.32        27.11672
290.77        27.26545
291.22         27.4418
291.68        27.57225
292.13        27.65981
292.59        27.77754
293.04        28.01681
293.50        28.56444
293.95        29.43665
294.40         30.5847
294.86        31.89917
295.31        33.21094
295.77        34.45444
296.22        35.65086
296.68        36.84095
297.13        38.08113
297.58        39.40775
298.04        40.81361
298.49        42.26057
298.95        43.73078
299.40         45.1831
299.85        46.62027
300.31         48.0982
300.76        49.68666
301.21        51.41755
301.67        53.28996
302.12        55.16523
302.58         56.8465
303.03        58.25608
303.48        59.48374
303.94        60.75545
304.39         62.3123
304.84         64.2587
305.30        66.49495
305.75        68.83729
306.20         71.0247
306.66        72.96865
307.11         74.6858
307.57        76.25803
308.02        77.70738
308.47        79.09879
308.93        80.41705
309.38        81.64972
309.83        82.87457
310.29        84.11977
310.74        85.37195
311.19        86.59496
311.65         87.6987
312.10        88.65122
312.55        89.48112
313.00          90.306
313.46        91.31447
313.91        92.52059
314.36        93.85738
314.82        95.11468
315.27        95.96948
315.72        96.33295
316.18        96.33556
316.63        96.16496
317.08        96.17796
317.53        96.47647
317.99        96.97565
318.44        97.55256
318.89        97.97503
319.35        98.18388
319.80        98.27912
320.25        98.37217
320.70        98.63803
321.16        99.10004
321.61        99.68959
322.06        100.3209
322.51        100.8816
322.97        101.2979
323.42         101.644
323.87        101.8669
324.32        101.9074
324.78        101.7745
325.23        101.5309
325.68        101.2924
326.13        101.2718
326.59        101.5008
327.04        101.9684
327.49        102.5656
327.94        103.1205
328.39         103.559
328.85        103.8772
329.30        104.1488
329.75        104.3509
330.20        104.5023
330.66        104.5748
331.11        104.6567
331.56        104.7744
332.01        104.9594
332.46        105.2129
332.92        105.5478
333.37        106.0841
333.82        106.7939
334.27        107.6607
334.72        108.5641
335.17        109.2898
335.63        109.7458
336.08        110.0266
336.53        110.2195
336.98        110.5464
337.43        111.0734
337.88         111.737
338.34        112.4249
338.79        113.0323
339.24        113.4734
339.69         113.792
340.14        114.0475
340.59        114.3268
341.05        114.6542
341.50        115.0291
341.95         115.404
342.40        115.7069
342.85        115.9342
343.30        116.1263
343.75        116.3796
344.20        116.8376
344.66        117.5118
345.11        118.3307
345.56        119.1838
346.01        119.8772
346.46        120.3415
346.91        120.6387
347.36        120.7987
347.81         120.873
348.26        120.9092
348.72        120.9123
349.17        120.9401
349.62        121.1542
350.07        121.5527
350.52        122.0539
350.97        122.5288
351.42         122.755
351.87        122.6769
352.32        122.4006
352.77        121.9188
353.22          121.23
353.67        120.3928
354.13        119.4407
354.58        118.5851
355.03        118.2644
355.48        118.5292
355.93        119.2807
356.38        120.0768
356.83        120.1668
357.28        119.3924
357.73        117.9854
358.18        116.4802
358.63        115.6753
359.08        115.7138
359.53        116.3254
359.98        117.0381
360.43        117.0732
360.88        116.2314
361.33        114.8022
361.78        113.1802
362.23        111.9129
362.68        111.1449
363.13        110.7055
363.58        110.3933
364.03         109.912
364.48        109.1665
364.93        108.2405
365.38        107.2931
365.83          106.54
366.28        106.0131
366.73         105.644
367.18        105.1888
367.63        104.2807
368.08        102.8962
368.53        101.2004
368.98        99.57425
369.43         98.5573
369.88        98.23825
370.33        98.44471
370.78        98.83006
371.23        98.78558
371.68        98.13534
372.13        97.08114
372.58        95.89481
373.03        94.98059
373.48          94.437
373.93        94.10412
374.38        93.87025
374.83        93.57507
375.28        93.15221
375.72        92.65883
376.17        92.10318
376.62        91.42195
377.07        90.62772
377.52        89.73371
377.97        88.84756
378.42        88.14879
378.87        87.67739
379.32        87.39146
379.77         87.1805
380.22          86.863
380.67        86.39381
381.11        85.82706
381.56        85.24593
382.01        84.81214
382.46        84.56353
382.91        84.43646
383.36        84.33737
383.81        84.12519
384.26        83.76472
384.71        83.31139
385.15        82.80811
385.60        82.36998
386.05        82.01514
386.50        81.70638
386.95        81.43739
387.40        81.20924
387.85        81.00227
388.29        80.75749
388.74         80.5275
389.19        80.19595
389.64        79.75536
390.09        79.23034
390.54        78.65705
390.98         78.1204
391.43        77.71544
391.88        77.31084
392.33        76.93498
392.78        76.86593
393.23        76.97688
393.67        76.66783
394.12        76.09258
394.57        75.90344
395.02        76.03569
395.47        75.80109
395.91        75.27163
396.36        75.04002
396.81        75.13162
397.26        75.27278
397.71        75.34497
398.15        75.22141
398.60        74.94996
399.05        74.55584
399.50        74.16743
399.95        73.89394
400.39        73.80672
400.84        73.95753
401.29        74.19328
401.74        74.10473
402.18        73.63229
402.63        72.93427
403.08        72.23441
403.53        71.80223
403.97        71.69169
404.42         71.8018
404.87        71.98261
405.32        72.04182
405.76        71.89175
406.21        71.57877
406.66        71.18212
407.11        70.85991
407.55        70.75458
408.00        70.83179
408.45        71.04615
408.90        71.49478
409.34        71.88963
409.79        71.44626
410.24        70.41402
410.68        69.92139
411.13          70.065
411.58        70.21921
412.03        70.27724
412.47        70.34997
412.92        70.36797
413.37        70.32571
413.81        70.24026
414.26        70.18939
414.71        70.16779
415.15        70.16921
415.60        70.15714
416.05        70.12975
416.49         70.0854
416.94        70.02579
417.39        69.95739
417.83        69.86827
418.28        69.77145
418.73        69.69118
419.17        69.62605
419.62        69.57513
420.07        69.52807
420.51        69.45706
420.96        69.45673
421.41        69.51575
421.85        69.59107
422.30        69.95698
422.74        70.42683
423.19        70.18883
423.64        69.44202
424.08        69.64133
424.53        70.69957
424.98        70.68604
425.42        70.54516
425.87        70.28032
426.31        70.32518
426.76        70.04935
427.21        69.67795
427.65        70.31226
428.10        71.50335
428.54         71.5988
428.99        70.74287
429.44        69.83638
429.88        69.27173
430.33        70.03418
430.77        71.50707
431.22        71.50664
431.66        70.19297
432.11        69.45313
432.56        69.49118
433.00        70.01692
433.45        70.88903
433.89        70.39355
434.34        69.97685
434.78        71.13785
435.23        70.95187
435.67        71.03818
436.12        70.65999
436.57        71.06709
437.01        72.00748
437.46        72.80509
437.90        72.62627
438.35        71.63412
438.79        72.05214
439.24        71.60923
439.68        71.14627
440.13        71.18584
440.57        71.73402
441.02        72.18399
441.46        72.39911
441.91        72.92423
442.35        73.46508
442.80        73.35577
443.24        72.70752
443.69        72.46332
444.13        72.65339
444.58        72.66222
445.02        72.47688
445.47         72.5132
445.91        72.78787
446.36        73.06331
446.80        73.28656
447.24        73.71095
447.69        74.13251
448.13        74.01736
448.58        73.51105
449.02          73.437
449.47        73.80751
449.91         73.9296
450.36          73.814
450.80        73.85303
451.25        74.03412
451.69        74.08503
452.13        73.99331
452.58        73.84566
453.02        73.64413
453.47        73.43488
453.91        73.22228
454.36         73.0007
454.80        72.80376
455.24        72.63623
455.69        72.47182
456.13        72.41243
456.58        72.55012
457.02        71.96305
457.46        72.13979
457.91        72.38947
458.35        72.92077
458.79        72.92123
459.24        72.36348
459.68        71.78558
460.13        71.47997
460.57        70.45228
461.01        70.79291
461.46        70.87124
461.90        71.06422
462.34        71.25922
462.79          70.462
463.23        70.58897
463.68        71.19063
464.12        71.33562
464.56        70.98811
465.01        70.73377
465.45        70.57036
465.89        70.55224
466.34         70.6166
466.78        70.37753
467.22        69.89503
467.67        69.76381
468.11        69.74615
468.55        69.81758
468.99        69.84154
469.44        69.85419
469.88        69.84523
470.32         69.8024
470.77        69.74439
471.21        69.71915
471.65        69.71899
472.10        69.73493
472.54        69.73959
472.98        69.70041
473.42        69.60385
473.87        69.55702
474.31        69.50587
474.75        69.24436
475.20        68.89221
475.64        68.86226
476.08         69.0881
476.52        69.13733
476.97        68.99104
477.41         68.7579
477.85        68.52325
478.29        68.72623
478.74        69.13401
479.18        69.03753
479.62        68.46761
480.06        68.35902
480.50        68.77385
480.95        68.13902
481.39        68.75443
481.83         68.1784
482.27        68.28865
482.72        68.10017
483.16        68.00786
483.60         68.1163
484.04        68.35011
484.48        68.49007
484.93        68.73998
485.37        69.51118
485.81        68.58858
486.25        70.33347
486.69        69.94879
487.14         67.8018
487.58        66.57914
488.02        68.44669
488.46        67.49937
488.90        67.19472
489.34        67.84336
489.79        67.95564
490.23        68.18514
490.67        68.04436
491.11        67.76008
491.55         67.8739
491.99         68.2967
492.43        68.38886
492.88        68.11134
493.32        67.87989
493.76        67.76897
494.20        67.71627
494.64        67.73706
495.08        67.84467
495.52        67.98402
495.96        68.02785
496.41        67.96244
496.85        67.90649
497.29        67.82677
497.73        67.65253
498.17        67.42446
498.61        67.13239
499.05        66.90189
499.49        67.08352
499.93        67.56426
500.37           67.77
500.82        67.69212
501.26        67.75366
501.70        67.93718
502.14        68.15776
502.58        68.02473
503.02        67.87854
503.46        67.68442
503.90        67.37408
504.34        67.09686
504.78         67.0686
505.22        67.30912
505.66        67.80432
506.10        68.35892
506.54        68.47491
506.98        68.04329
507.42        67.85543
507.86         66.9802
508.30        66.67176
508.74         66.6788
509.18        66.92228
509.62        67.27592
510.06        67.55412
510.50         67.6932
510.94         67.7416
511.38        67.72121
511.82        67.66069
512.26        67.57765
512.70        67.44951
513.14        67.30218
513.58        67.18974
514.02        67.12497
514.46        67.10619
514.90        67.10788
515.34        67.07652
515.78        67.00568
516.22        66.92185
516.66         66.8493
517.10        66.82426
517.54         66.8501
517.98        66.90035
518.42        66.97662
518.86        67.06413
519.30        67.14816
519.74        67.28835
520.18        67.41905
520.62        67.30962
521.06        67.01271
521.50        66.84611
521.93        66.85476
522.37        66.84015
522.81        66.81536
523.25        66.93043
523.69        67.10568
524.13        67.13388
524.57        66.99296
525.01        66.74578
525.45        66.50253
525.89        66.43637
526.32        66.57776
526.76        66.86007
527.20        67.16611
527.64        67.31309
528.08        67.25546
528.52         67.0629
528.96        66.81429
529.40        66.63082
529.83        66.54621
530.27        66.53539
530.71        66.58379
531.15        66.68767
531.59        66.82977
532.03        67.00635
532.46        67.16434
532.90        67.23569
533.34        67.20792
533.78        67.05434
534.22        66.82513
534.66        66.71779
535.09        66.69394
535.53         66.4933
535.97        66.17644
536.41        66.07442
536.85        66.20464
537.28        66.39811
537.72        66.57779
538.16        66.67983
538.60        66.67365
539.04        66.57699
539.47        66.44004
539.91        66.38771
540.35        66.42766
540.79        66.53421
541.22        66.65936
541.66        66.69576
542.10        66.69267
542.54        66.62124
542.97         66.5199
543.41        66.44864
543.85         66.4117
544.29        66.39658
544.72        66.38598
545.16        66.38784
545.60        66.38561
546.04        66.37796
546.47         66.3671
546.91        66.36505
547.35        66.37887
547.79        66.38773
548.22        66.34262
548.66        66.31037
549.10        66.29088
549.53        65.97711
549.97        65.98696
550.41        65.96193
550.84        66.08205
551.28        66.31847
551.72        66.60184
552.15        66.75143
552.59         66.7693
553.03        66.78773
553.46        66.78876
553.90        66.79733
554.34        66.82572
554.77        66.71693
555.21         66.4496
555.65        66.81553
556.08        66.51438
556.52        66.38226
556.96        66.08585
557.39        65.93542
557.83        65.96831
558.27        65.95131
558.70        65.87249
559.14        66.12006
559.57        66.10131
560.01        66.28551
560.45        66.39701
560.88        66.43328
561.32         66.4152
561.75        65.96077
562.19        65.36123
562.63        65.65234
563.06        66.60287
563.50        66.67055
563.93         65.9269
564.37        65.64751
564.80        66.04793
565.24        66.19844
565.68        66.11554
566.11        66.06431
566.55        66.08253
566.98        66.07267
567.42        66.07961
567.85        66.15933
568.29        66.31784
568.72        66.30936
569.16         66.4249
569.60        66.42895
570.03        66.32479
570.47        66.42399
570.90        66.77909
571.34        66.01144
571.77        66.40348
572.21        66.40491
572.64        66.76579
573.08         66.2559
573.51          66.208
573.95         67.1691
574.38          66.605
574.82        66.65046
575.25        67.12634
575.69        67.09624
576.12         66.8511
576.56        66.48956
576.99        67.07455
577.42        66.76198
577.86        66.92101
578.29        66.92693
578.73         67.8979
579.16         66.6881
579.60        66.09268
580.03        66.12901
580.47        66.95351
580.90        65.98271
581.33         66.8008
581.77        67.13439
582.20        67.47266
582.64         67.2319
583.07        67.28651
583.51        66.67632
583.94        66.04827
584.37        66.26747
584.81        67.27892
585.24        67.48623
585.68        66.88142
586.11        66.78788
586.54        66.96519
586.98        66.31824
587.41        65.66222
587.85        66.49919
588.28        67.17715
588.71         65.7981
589.15        66.48698
589.58        65.86206
590.01        65.69409
590.45        65.86832
590.88        66.39973
591.31        66.55009
591.75        66.17941
592.18        66.18486
592.61        65.78068
593.05        66.25138
593.48         66.0294
593.91        66.76431
594.35        65.86657
594.78        65.78408
595.21        65.76806
595.65        66.45825
596.08        66.31408
596.51         66.0386
596.94        65.69416
597.38        65.58565
597.81        65.90066
598.24        65.67714
598.68        66.14455
599.11        65.52664
599.54        66.68734
599.97        66.22788
600.41         65.9334
600.84        66.10585
601.27        66.05708
601.70        66.66229
602.14        66.98361
602.57        66.60123
603.00        65.89878
603.43        65.56871
603.87        66.15269
604.30        66.35511
604.73        65.95263
605.16        65.64848
605.60        65.52407
606.03        65.85909
606.46        66.39452
606.89        66.20155
607.32        65.52205
607.76        65.21516
608.19        65.38077
608.62        65.96137
609.05        66.04786
609.48         65.9598
609.92        65.63634
610.35        65.61124
610.78        66.90626
611.21        66.91799
611.64        65.97947
612.07        66.40898
612.50        66.85007
612.94        66.40891
613.37        66.01977
613.80        66.21684
614.23        65.70438
614.66        66.02787
615.09        65.73023
615.52        65.74734
615.96        65.61208
616.39        66.40654
616.82        66.03282
617.25        65.79145
617.68        66.27747
618.11        66.13451
618.54        65.77784
618.97        65.54765
619.40        65.53767
619.84        65.52309
620.27        65.49841
620.70         65.7957
621.13         66.3038
621.56        66.12182
621.99        65.28255
622.42        65.77953
622.85        65.89758
623.28        65.76913
623.71        65.70582
624.14        65.65049
624.57         65.8139
625.00        65.84765
625.43        65.75133
625.86        65.72047
626.29        65.74132
626.72        65.42219
627.15         65.4653
627.58        65.09145
628.01        64.81317
628.44        64.94876
628.87        65.43809
629.30        65.49739
629.73        65.15672
630.16        65.11425
630.59        65.37901
631.02        65.53941
631.45        65.54868
631.88        65.53589
632.31        65.49756
632.74        65.39911
633.17        65.28352
633.60        65.22266
634.03        65.23244
634.46        65.29961
634.89        65.38827
635.32        65.43077
635.75        65.40881
636.18        65.34515
636.61        65.25822
637.04         65.1842
637.47          65.143
637.89        65.09867
638.32        65.02868
638.75        65.03674
639.18        65.11987
639.61        64.91995
640.04        64.94396
640.47        64.89528
640.90        64.92547
641.33        64.95931
641.76        64.96179
642.18        64.98784
642.61        65.03034
643.04        64.93848
643.47        64.67664
643.90        65.10442
644.33         64.8257
644.76        64.86359
645.18        64.83582
645.61        65.04083
646.04        65.37149
646.47        65.31323
646.90        64.94408
647.33        64.84236
647.75        65.03712
648.18        65.14475
648.61        65.15869
649.04        65.24102
649.47        65.31958
649.89        65.37933
650.32        65.35812
650.75         64.8935
651.18        64.23694
651.61        64.40932
652.03        65.32816
652.46        65.66619
652.89        65.27273
653.32        65.29038
653.74        65.54097
654.17        64.81968
654.60         65.4072
655.03        65.73681
655.46        64.69735
655.88        65.32021
656.31        72.94088
656.74        71.40274
657.16        65.32775
657.59        63.83392
658.02        65.37516
658.45        65.12395
658.87        65.36568
659.30        64.45612
659.73        64.68259
660.15        65.85484
660.58        64.79618
661.01        64.77075
661.44        64.72619
661.86         64.7666
662.29        64.85101
662.72        64.91055
663.14        64.99286
663.57        65.17124
664.00         65.4038
664.42        65.49047
664.85        65.41795
665.27        65.25185
665.70        65.07006
666.13        64.98226
666.55        65.02818
666.98        65.16132
667.41        65.34084
667.83        65.50229
668.26        65.59944
668.69        65.64933
669.11        65.66778
669.54        65.68485
669.96        65.69668
670.39        65.68646
670.82        65.65919
671.24        65.53763
671.67        65.39314
672.09        65.48209
672.52        65.74839
672.94        65.81294
673.37         65.6536
673.80        65.46751
674.22        65.31254
674.65         65.1685
675.07        65.07756
675.50         65.0343
675.92        65.04051
676.35        65.08784
676.77        65.16918
677.20        65.27245
677.62         65.3868
678.05        65.47955
678.47        65.54006
678.90        65.58353
679.32        65.59108
679.75        65.56087
680.17         65.4873
680.60        65.36766
681.02        65.25893
681.45        65.21284
681.87        65.24821
682.30        65.42213
682.72        65.64539
683.15         65.5434
683.57        65.18631
684.00        65.05428
684.42        65.17611
684.85        65.23189
685.27        65.20816
685.70        65.31953
686.12        65.49901
686.54        65.54633
686.97        65.43251
687.39        65.27905
687.82        65.09776
688.24        64.90428
688.66        64.57195
689.09        64.67969
689.51        65.10191
689.94          65.325
690.36        65.30583
690.78        65.35155
691.21        65.50315
691.63        65.58338
692.06        65.65598
692.48        66.01835
692.90        66.53438
693.33        66.71429
693.75        66.51338
694.17        66.11276
694.60        65.67912
695.02        65.45476
695.44        65.44123
695.87        65.45557
696.29        65.45702
696.71        65.29691
697.14        65.09884
697.56        65.41355
697.98        66.10379
698.41        66.40205
698.83        66.26665
699.25        66.18105
699.68        66.18839
700.10         66.1656
700.52        66.12685
700.94        66.12309
701.37        66.10242
701.79        66.22667
702.21        66.40221
702.64        66.45502
703.06        66.38071
703.48         66.2401
703.90        66.02508
704.33        66.11625
704.75        65.72847
705.17        65.67807
705.59        65.73872
706.01        65.88268
706.44        66.06622
706.86        66.24339
707.28        66.37652
707.70        66.50584
708.12        66.61118
708.55        66.56822
708.97        66.41241
709.39         66.3483
709.81        66.38107
710.23        66.35748
710.66        66.27942
711.08        66.26629
711.50        66.30943
711.92        66.35365
712.34        66.39391
712.76         66.4452
713.19        66.48507
713.61        66.52485
714.03        66.54142
714.45        66.52882
714.87        66.50968
715.29        66.52042
715.71        66.56796
716.13        66.65028
716.56         66.7076
716.98        66.72404
717.40        66.66428
717.82        66.54299
718.24        66.43594
718.66        66.46381
719.08        66.64212
719.50        66.92642
719.92        67.20946
720.34        67.31728
720.76         67.2093
721.19        66.94346
721.61        66.62025
722.03        66.39191
722.45        66.31393
722.87        66.35475
723.29        66.46858
723.71        66.57803
724.13        66.64998
724.55        66.69252
724.97         66.7457
725.39        66.87025
725.81        67.06744
726.23        67.31308
726.65        67.49848
727.07        67.45699
727.49        67.17252
727.91        66.71015
728.33        66.24399
728.75        66.04881
729.17        66.18221
729.59        66.55498
730.01        67.01151
730.43        67.28159
730.85        67.28638
731.27        67.11723
731.69         66.8382
732.10         66.6171
732.52        66.52258
732.94        66.37096
733.36        66.16682
733.78        66.63141
734.20        66.63209
734.62        67.06789
735.04        67.49551
735.46        67.69736
735.88        67.66028
736.30        67.60307
736.72        67.55488
737.13        67.44402
737.55        67.28053
737.97        67.06686
738.39        66.88778
738.81        67.04053
739.23        67.44292
739.65        67.58215
740.06        67.41106
740.48        67.38625
740.90        67.48221
741.32        67.45451
741.74        67.29489
742.16        67.15549
742.57        67.06451
742.99        66.94364
743.41        66.86388
743.83         66.9912
744.25        67.29145
744.67        67.57643
745.08        67.77302
745.50        67.82622
745.92        67.72269
746.34        67.43668
746.75         67.0398
747.17        66.72249
747.59        66.51846
748.01        66.38673
748.42        66.35095
748.84        66.41361
749.26        66.57308
749.68        66.82545
750.09        67.09078
750.51        67.25903
750.93        67.29892
751.35        67.23348
751.76        67.13687
752.18        67.13127
752.60        67.24941
753.01        67.46532
753.43        67.69255
753.85        67.83173
754.27         67.8578
754.68        67.81377
755.10        67.75109
755.52        67.74198
755.93        67.79385
756.35        67.86819
756.77        67.96173
757.18        68.01116
757.60        68.01183
758.02        68.15638
758.43        68.33383
758.85        68.09643
759.26        67.60571
759.68        67.60452
760.10        68.08759
760.51        68.48238
760.93        68.58307
761.34         68.4012
761.76         68.0095
762.18        67.47866
762.59        67.03703
763.01        67.11359
763.42        67.66792
763.84        67.93269
764.26        67.85203
764.67        67.80692
765.09        67.87014
765.50        67.92295
765.92        67.97598
766.33        67.90814
766.75        67.69717
767.16        67.72742
767.58        67.99373
768.00        68.11036
768.41        68.15968
768.83        68.81638
769.24        69.80183
769.66        69.91724
770.07        69.23455
770.49        68.70138
770.90        68.51866
771.32        68.61469
771.73        68.89526
772.15        68.96496
772.56        68.79939
772.97        68.70427
773.39        68.70777
773.80        68.75348
774.22        68.80339
774.63        68.87266
775.05        68.91268
775.46        68.96591
775.88        68.99857
776.29         69.0041
776.70        68.99265
777.12        69.02262
777.53        69.11604
777.95        69.22839
778.36        69.32456
778.77         69.3243
779.19        69.21875
779.60        69.04766
780.02        68.85072
780.43        68.71788
780.84        68.70982
781.26        68.68918
781.67        68.64832
782.09        68.92259
782.50        69.38877
782.91        68.91138
783.33        68.52323
783.74        68.43008
784.15         68.9612
784.57        69.57639
784.98        70.16285
785.39        70.68162
785.81        71.04636
786.22        71.05382
786.63        71.13593
787.04         71.0032
787.46         70.8428
787.87        70.60036
788.28        70.39023
788.70        70.35291
789.11        70.48481
789.52        70.78431
789.93        71.11065
790.35        71.21365
790.76        71.05247
791.17        70.67475
791.58        70.24397
792.00        69.98191
792.41        69.95622
792.82        70.17626
793.23        70.48208
793.65        70.44913
794.06        70.11118
794.47        69.89667
794.88        69.89442
795.29        69.94959
795.71        70.02304
796.12        70.32983
796.53        70.74494
796.94        70.93871
797.35         70.8201
797.76        70.49873
798.18        70.13436
798.59        69.93442
799.00        69.96652
799.41        70.15504
799.82        70.41695
800.23        70.61816
800.64        70.70473
801.06        70.69714
801.47        70.64708
801.88         70.5434
802.29        70.40655
802.70        70.23442
803.11        70.07584
803.52        70.01604
803.93        70.08588
804.34        70.26679
804.75        70.52106
805.17        70.83334
805.58        71.21806
805.99        71.41315
806.40        71.42618
806.81        71.81636
807.22        72.33878
807.63        71.78722
808.04        70.42718
808.45        69.80462
808.86        70.08209
809.27        70.45385
809.68        70.75744
810.09        71.06067
810.50        71.27634
810.91        71.39292
811.32        71.41454
811.73        71.34562
812.14        71.21227
812.55        71.02136
812.96        70.85124
813.37        70.84185
813.78        71.02284
814.19         71.3448
814.60        71.74136
815.01        72.10788
815.42        72.40053
815.83        72.64059
816.24        72.77142
816.65        72.69431
817.05        72.41055
817.46        71.94498
817.87        71.45313
818.28          71.118
818.69         70.9854
819.10        71.01331
819.51        71.17074
819.92        71.37798
820.33        71.58224
820.74        71.79747
821.14        71.96056
821.55        72.00856
821.96        71.92786
822.37          71.742
822.78        71.53607
823.19        71.47496
823.60        71.61107
824.00        71.91518
824.41        72.29025
824.82         72.6762
825.23        73.01492
825.64        73.30273
826.04        73.50434
826.45        73.48606
826.86        73.26376
827.27        72.88389
827.68        72.40162
828.08        71.93559
828.49        71.51053
828.90        71.12277
829.31        70.86642
829.72        70.86908
830.12        71.17288
830.53        71.72103
830.94        72.30484
831.35         72.4968
831.75        72.21484
832.16        71.52807
832.57        70.82048
832.97        70.68009
833.38        71.20045
833.79         72.1852
834.20        73.26003
834.60        73.78186
835.01        73.54715
835.42        72.80915
835.82         71.8392
836.23        71.04445
836.64        70.57915
837.04        70.33605
837.45        70.30248
837.86        70.52242
838.26        70.96742
838.67        71.59653
839.08        72.24863
839.48        72.61388
839.89        72.60144
840.29        72.28368
840.70        71.81505
841.11        71.42759
841.51        71.21772
841.92        71.10198
842.33        71.09359
842.73        71.21415
843.14        71.40086
843.54        71.71703
843.95        72.04207
844.35        72.23452
844.76        72.22877
845.17        72.05219
845.57        71.83363
845.98        71.77717
846.38        71.94622
846.79        72.26379
847.19        72.60371
847.60        72.66511
848.00        72.40768
848.41        71.91547
848.81        71.39289
849.22        71.12944
849.62        71.21011
850.03        71.51546
850.43        71.91681
850.84        72.04802
851.24         71.8801
851.65        71.49651
852.05        71.09219
852.46        70.94126
852.86        71.09077
853.27         71.4255
853.67        71.81809
854.07        72.28381
854.48        72.73354
854.88         73.2904
855.29        73.65289
855.69        73.53172
856.10         72.7726
856.50        71.57404
856.90        70.37598
857.31        69.82389
857.71        70.03866
858.12        70.80302
858.52         71.8339
858.92        72.36528
859.33         72.1377
859.73        71.42812
860.13        70.47467
860.54        69.68315
860.94        69.19757
861.34        68.86991
861.75         68.7088
862.15         68.7919
862.55        69.07374
862.96        69.54137
863.36        70.02274
863.76        70.12908
864.17         69.7881
864.57        69.12553
864.97        68.37667
865.38        67.95047
865.78        67.98981
866.18         68.3537
866.58        68.89838
866.99        69.35246
867.39        69.62751
867.79        69.79042
868.19        69.82181
868.60        69.66507
869.00        69.33407
869.40        68.83313
869.80        68.34073
870.21        68.19981
870.61        68.54039
871.01        69.20642
871.41         69.9145
871.81         70.2276
872.22        70.03939
872.62        69.48536
873.02        68.76521
873.42        68.21151
873.82        67.95344
874.22        67.92136
874.63        68.02946
875.03        68.13713
875.43        68.20351
875.83        68.27325
876.23        68.43134
876.63        68.80088
877.03        69.37631
877.44        70.05967
877.84        70.69341
878.24        70.97729
878.64        70.84176
879.04        70.38946
879.44        69.79753
879.84        69.33605
880.24        69.08665
880.64         68.9855
881.04        68.98843
881.44        69.00418
881.84        69.01485
882.24        69.09179
882.65        69.19451
883.05        69.34548
883.45        69.49219
883.85        69.57552
884.25        69.70963
884.65         70.0918
885.05        70.72979
885.45        71.57403
885.85        72.31182
886.25        72.41195
886.65        71.76926
887.05        70.55069
887.45        69.23531
887.85        68.56799
888.25        68.72866
888.65        69.52732
889.04         70.5159
889.44        70.92747
889.84        70.58524
890.24        69.71638
890.64        68.76614
891.04        68.37784
891.44        68.68315
891.84        69.49348
892.24        70.36864
892.64        70.57729
893.04         69.9657
893.44        68.79726
893.83        67.62111
894.23        67.26182
894.63        67.85681
895.03        69.13972
895.43        70.59884
895.83         71.3021
896.23        70.98824
896.63        70.01836
897.02         68.7946
897.42        67.99162
897.82        67.72359
898.22        67.81841
898.62        68.17803
899.01        68.67687
899.41        69.17935
899.81        69.75408
900.21        70.37523
900.61        70.97565
901.00        71.50002
901.40        71.88118
901.80        72.05545
902.20        71.96144
902.59        71.62633
902.99         71.1162
903.39        70.54345
903.79         70.0821
904.18        69.78728
904.58        69.63621
904.98        69.65002
905.38         69.8595
905.77        70.22603
906.17        70.75173
906.57        71.22301
906.96        71.30687
907.36         70.9289
907.76        70.19489
908.15        69.42464
908.55        69.10063
908.95        69.36137
909.34        70.07877
909.74        70.93311
910.14        71.47075
910.53        71.53977
910.93         71.2672
911.33        70.84823
911.72        70.58652
912.12        70.58723
912.52        70.74464
912.91        70.88931
913.31        70.75189
913.70        70.29766
914.10        69.65298
914.49        69.05264
914.89        68.82312
915.29        69.03751
915.68        69.57471
916.08        70.24615
916.47         70.7496
916.87        70.97509
917.26        71.01806
917.66         70.9398
918.05        70.83427
918.45        70.74157
918.84        70.65538
919.24        70.61376
919.64        70.77097
920.03        71.14845
920.42        71.66476
920.82        72.18953
921.21        72.55054
921.61        72.65892
922.00         72.5573
922.40        72.24287
922.79        71.80919
923.19        71.31658
923.58        70.80319
923.98        70.28445
924.37         69.7038
924.77        69.10252
925.16        68.49707
925.55        68.07008
925.95        68.08246
926.34        68.59663
926.74        69.48428
927.13        70.53706
927.52        71.32937
927.92        71.72181
928.31        71.80925
928.70        71.73106
929.10        71.76822
929.49        72.01628
929.89        72.37131
930.28        72.70211
930.67         72.7597
931.07        72.47605
931.46        71.93382
931.85        71.33593
932.24        71.00443
932.64        71.01979
933.03        71.34275
933.42        71.68135
933.82        71.59645
934.21        71.02267
934.60        70.09313
934.99        69.25061
935.39        69.13847
935.78        69.90652
936.17        71.38046
936.56        72.99121
936.96        73.68819
937.35        73.21164
937.74        71.84946
938.13        70.27031
938.53        69.36439
938.92        69.27966
939.31        69.79771
939.70        70.52026
940.09        70.73582
940.49        70.25531
940.88        69.36136
941.27         68.4439
941.66         68.0616
942.05        68.34973
942.44        69.13104
942.84        70.10577
943.23        70.81686
943.62        71.04115
944.01        70.92919
944.40        70.69547
944.79         70.6853
945.18         70.9856
945.57        71.44158
945.97        71.91235
946.36        72.29455
946.75        72.50695
947.14        72.62121
947.53        72.61758
947.92        72.44289
948.31        72.12235
948.70         71.6924
949.09        71.29664
949.48        71.14504
949.87        71.29297
950.26        71.71321
950.65        72.28664
951.04        72.78838
951.43        73.11497
951.82        73.25716
952.21        73.32136
952.60        73.50335
952.99        73.80645
953.38        74.14511
953.77        74.27563
954.16        73.78302
954.55        72.66249
954.94        71.20074
955.33        69.74279
955.72        68.78795
956.11        68.47116
956.50        68.57535
956.89        69.12659
957.28        70.16632
957.66         71.6271
958.05        73.38278
958.44        74.82783
958.83        74.82864
959.22        73.21716
959.61        70.45212
960.00        67.52391
960.39        65.83775
960.78        65.69811
961.16        66.75292
961.55        68.43751
961.94        69.87115
962.33        70.69777
962.72        71.15701
963.11        71.31871
963.49        71.33177
963.88         71.2261
964.27        70.91132
964.66        70.46831
965.04        70.06779
965.43        69.74014
965.82        69.48792
966.21         69.2935
966.60        69.07969
966.98        68.85352
967.37        68.64716
967.76        68.47839
968.15         68.3445
968.53        68.24776
968.92        68.14187
969.31        68.07859
969.69        68.16732
970.08        68.35911
970.47        68.60299
970.86        68.72491
971.24        68.44344
971.63        67.67899
972.02        66.63342
972.40        65.50336
972.79        64.59637
973.17        64.05435
973.56        63.80835
973.95        63.90945
974.33        64.44225
974.72        65.31612
975.11        66.44281
975.49        67.71001
975.88        68.82384
976.26        69.66516
976.65        70.21374
977.04         70.2277
977.42        69.34628
977.81        67.62951
978.19        65.23276
978.58        63.19231
978.96        62.80711
979.35        64.29707
979.74        67.43645
980.12        71.30754
980.51        73.42407
980.89        73.13477
981.28        70.89925
981.66        68.02619
982.05        66.77643
982.43        67.69633
982.82        70.11429
983.20        73.14871
983.59        75.10231
983.97        75.55363
984.35        75.01427
984.74        73.92087
985.12        73.08923
985.51        72.74321
985.89        72.49802
986.28        72.42538
986.66        72.50929
987.04        72.80053
987.43        73.39606
987.81        73.90072
988.20        73.41437
988.58        71.85977
988.96        69.32909
989.35         66.8947
989.73        66.25551
990.12        67.67905
990.50        70.76044
990.88        73.94688
991.27        74.66567
991.65        72.47546
992.03        68.25648
992.42        63.79743
992.80        61.61209
993.18         62.4197
993.56        65.38413
993.95         69.2557
994.33         72.1178
994.71        73.01122
995.10        72.53328
995.48        71.10896
995.86        69.44115
996.24        67.95722
996.63        66.46676
997.01        65.14604
997.39        64.29019
997.77        63.92989
998.15        64.06597
998.54        64.64912
998.92        65.47689
999.30        66.41644
999.68        67.48045
1000.06        68.37709
1000.45        68.61716
1000.83        68.22021
1001.21        67.18711
1001.59        65.99198
1001.97        65.50835
1002.35        65.98856
1002.73        67.22156
1003.12        68.73023
1003.50         69.6448
1003.88        69.73434
1004.26        69.24342
1004.64        68.53211
1005.02        68.10272
1005.40        68.11038
1005.78        68.46169
1006.16        68.88921
1006.54         68.9387
1006.92        68.48745
1007.30        67.62692
1007.69        66.84067
1008.07        67.12398
1008.45        68.55761
1008.83        70.91206
1009.21        73.26916
1009.59        74.10244
1009.97        73.07189
1010.35        70.58964
1010.73        67.85614
1011.11        66.98435
1011.49        68.67557
1011.86        72.65788
1012.24        77.52261
1012.62        80.98441
1013.00        82.08052
1013.38        81.14563
1013.76        79.41892
1014.14        79.30061
1014.52         81.4694
1014.90        85.15987
1015.28        88.55523
1015.66        88.53616
1016.04        84.81675
1016.41        79.21902
1016.79        73.84599
1017.17        70.30449
1017.55         68.5507
1017.93        67.85939
1018.31        67.99682
1018.69        68.38201
1019.06        68.57772
1019.44        68.92454
1019.82        69.07162
1020.20        68.57142
1020.58        67.46767
1020.95        65.64926
1021.33        63.78062
1021.71        63.58437
1022.09        65.83633
1022.46        69.82186
1022.84         74.3554
1023.22        78.08581
1023.60        80.57492
1023.97        82.31458
1024.35        82.52764
1024.73        80.09485
