SpectraSmart Spectrum 2.9.0.0
--------- Device Information -----------
Spectrum Name :  反射率_0
Saving Time :  2024/05/01 15:50:40
Spectro-Module Model Name : SE2030-DUVN
Spectro-Module Serial Number : OS361AC55029948
Wavelength Start : 200
Wavelength End : 1025
Wavelength Unit : Wavelength(nm)
Spectrum Unit : Reflectance(%)
-----------Spectrum Setting ------------
Integration Time : 20ms
Average : 10
Boxcar : 0
Background removal :  enabled
linearity correction :  enabled
SC :  disabled
Intensity correction :  disabled
DWT denoise :  enabled
savitzky-golay :  disabled
FFT :  disabled
Running average :  disabled
Kalman :  disabled
High pass :  disabled
---------------BEGIN--------------------
Wavelength(nm)             Reflectance(%)
200.29               0
200.75       -26.00593
201.21        90.07755
201.67       -71.86507
202.13       -12.98724
202.58        20.66341
203.04        46.34743
203.50        64.65721
203.96        75.11785
204.42        81.05061
204.88         88.3844
205.34         250.257
205.80         39.2459
206.26          28.491
206.72       -13.22271
207.18       -245.1322
207.64        437.0526
208.10        203.5797
208.55        150.3954
209.01        125.4439
209.47        111.1314
209.93        101.9278
210.39        93.11881
210.85        88.16581
211.31        96.69928
211.77        153.6541
212.23       -359.9599
212.69       -49.39645
213.14       -17.64295
213.60        9.290964
214.06       -172.5068
214.52       -39.17793
214.98       -26.12745
215.44       -15.84048
215.90        7.278437
216.36        349.6502
216.81       -190.3225
217.27       -261.3147
217.73        519.8921
218.19        90.44405
218.65        43.33585
219.11        16.96055
219.57       -36.41366
220.02       -243.8296
220.48        -121.216
220.94       -13.12386
221.40        16.50965
221.86        27.77785
222.32        32.75771
222.77        35.75118
223.23        38.40469
223.69        40.56559
224.15        40.40799
224.61         38.0197
225.06        34.81522
225.52        32.88319
225.98        32.70403
226.44        34.00304
226.90        36.82751
227.36        40.30839
227.81        40.97168
228.27        38.05308
228.73         34.0066
229.19        30.89584
229.65        29.65575
230.10        29.94803
230.56        31.59688
231.02         33.9839
231.48        35.31299
231.93        34.79991
232.39        33.40529
232.85        32.26386
233.31        32.49469
233.77        33.91535
234.22         35.9089
234.68         37.8276
235.14        39.11037
235.60         39.6981
236.05        39.83529
236.51        39.55229
236.97        39.12068
237.43        38.73938
237.88        38.31242
238.34        37.69746
238.80        36.98496
239.26        36.10721
239.71        35.43756
240.17        34.67516
240.63        32.97564
241.08        30.85911
241.54        29.33886
242.00        30.46764
242.46        36.97955
242.91        51.29029
243.37        77.30157
243.83         119.001
244.28        148.9816
244.74        137.8198
245.20        110.4033
245.66        87.51445
246.11         73.6074
246.57         64.6729
247.03        56.06736
247.48          43.903
247.94         25.5463
248.40        5.699363
248.85       -9.474051
249.31       -11.52973
249.77       0.6214526
250.22        18.59179
250.68         36.0851
251.14        49.15322
251.59        56.54679
252.05        59.97249
252.51         60.3824
252.96        58.00813
253.42        63.20947
253.88        82.50496
254.33        91.56051
254.79        89.92496
255.25        83.61729
255.70        75.79101
256.16        69.06038
256.62        64.04049
257.07         61.3916
257.53        60.86968
257.99        61.06785
258.44        61.15391
258.90        60.94838
259.35        60.08091
259.81        59.00945
260.27        57.73167
260.72        56.36208
261.18        55.23631
261.63        54.04879
262.09        52.92245
262.55         51.6177
263.00        50.05272
263.46        48.43862
263.91        46.78283
264.37        45.36341
264.83        44.15213
265.28        43.10646
265.74        42.12755
266.19        40.85217
266.65        39.36604
267.11        37.71273
267.56         36.2535
268.02        35.63554
268.47        35.88749
268.93        36.73528
269.38        37.64211
269.84        37.68979
270.30        36.69225
270.75        34.94658
271.21        32.92873
271.66        31.24543
272.12        30.14314
272.57        29.38725
273.03        28.90333
273.48        28.53216
273.94        28.20978
274.39        27.97164
274.85        27.75657
275.31        27.40646
275.76         26.8968
276.22        26.30069
276.67         25.6564
277.13        25.11839
277.58        24.66782
278.04        24.28924
278.49        23.94715
278.95         23.6892
279.40        23.45968
279.86        23.27745
280.31        23.03815
280.77        22.66697
281.22        22.13125
281.68         21.5241
282.13        20.88833
282.59        20.34827
283.04        19.91722
283.50        19.60595
283.95        19.40376
284.41        19.33223
284.86        19.36965
285.32        19.50561
285.77        19.71564
286.22        19.99134
286.68         20.3196
287.13        20.67239
287.59        20.99075
288.04        21.14274
288.50        21.13352
288.95        20.97407
289.41        20.80695
289.86        20.77497
290.32        20.93326
290.77        21.24339
291.22        21.62031
291.68        21.92014
292.13        22.12704
292.59        22.33469
293.04         22.6432
293.50        23.24941
293.95        24.17583
294.40        25.36017
294.86        26.71101
295.31        28.09246
295.77        29.44501
296.22         30.7971
296.68        32.15319
297.13        33.51295
297.58        34.91699
298.04        36.39217
298.49        37.97525
298.95        39.75797
299.40        41.71288
299.85        43.78657
300.31        45.96737
300.76        48.23532
301.21         50.5959
301.67        53.07967
302.12        55.53516
302.58        57.74032
303.03        59.61514
303.48        61.24418
303.94        62.92614
304.39        65.01756
304.84        67.64401
305.30          70.678
305.75        73.83183
306.20        76.67267
306.66        79.07294
307.11        81.09475
307.57        82.93397
308.02        84.77799
308.47        86.72861
308.93        88.71547
309.38         90.6168
309.83        92.34824
310.29        93.90554
310.74        95.33057
311.19        96.68544
311.65        98.03028
312.10         99.3589
312.55        100.6363
313.00        101.9031
313.46        103.2329
313.91        104.6043
314.36        105.9951
314.82        107.2155
315.27        107.9742
315.72        108.2126
316.18        108.0695
316.63        107.7705
317.08        107.7407
317.53        108.0909
317.99        108.7137
318.44        109.4558
318.89        110.0201
319.35         110.321
319.80        110.4787
320.25        110.5869
320.70        110.7969
321.16        111.1402
321.61        111.5594
322.06        112.0381
322.51        112.5828
322.97        113.1401
323.42        113.7517
323.87        114.2798
324.32        114.5225
324.78        114.4396
325.23        114.1316
325.68        113.7572
326.13        113.6054
326.59        113.7387
327.04        114.1391
327.49        114.6882
327.94        115.2018
328.39        115.6077
328.85        115.9115
329.30        116.2298
329.75        116.5822
330.20        116.9874
330.66         117.386
331.11        117.8034
331.56        118.1503
332.01        118.4255
332.46        118.6573
332.92        118.9077
333.37        119.3997
333.82        120.1398
334.27        121.0917
334.72        122.1188
335.17        122.9761
335.63        123.5479
336.08         123.935
336.53        124.2281
336.98        124.6548
337.43        125.2867
337.88        126.0762
338.34        126.8543
338.79          127.44
339.24        127.7382
339.69         127.803
340.14        127.8547
340.59        128.2358
341.05        128.9972
341.50        130.0551
341.95        131.0894
342.40        131.5859
342.85        131.4578
343.30        130.9007
343.75        130.3093
344.20        130.2937
344.66        130.9825
345.11        132.1588
345.56        133.5275
346.01        134.5807
346.46        135.1503
346.91        135.4198
347.36        135.4813
347.81        135.4721
348.26        135.4807
348.72         135.458
349.17        135.5119
349.62        135.9086
350.07        136.6364
350.52        137.5686
350.97         138.436
351.42        138.7808
351.87        138.5008
352.32        137.7939
352.77        136.7678
353.22        135.6011
353.67        134.4222
354.13        133.2246
354.58        132.2316
355.03        131.9058
355.48        132.2824
355.93        133.2638
356.38        134.3142
356.83        134.5168
357.28        133.6727
357.73        132.0479
358.18         130.283
358.63        129.3455
359.08        129.4122
359.53          130.16
359.98        131.0226
360.43        131.0661
360.88        130.0495
361.33        128.3134
361.78        126.3436
362.23        124.8136
362.68        123.8975
363.13        123.3927
363.58        123.0173
364.03        122.3491
364.48        121.2739
364.93        119.9234
365.38        118.5717
365.83        117.6051
366.28         117.084
366.73        116.8817
367.18        116.6243
367.63        115.7355
368.08        114.1425
368.53        112.0811
368.98        110.0485
369.43        108.7567
369.88        108.3329
370.33        108.5442
370.78        108.9727
371.23        108.8894
371.68        108.0817
372.13        106.8027
372.58        105.3628
373.03        104.2132
373.48        103.4707
373.93        102.9547
374.38        102.5618
374.83        102.1545
375.28        101.6617
375.72        101.1264
376.17        100.5321
376.62        99.76463
377.07        98.83051
377.52        97.77211
377.97        96.69923
378.42        95.79902
378.87        95.12397
379.32        94.61998
379.77        94.24316
380.22        93.91311
380.67        93.58758
381.11        93.29371
381.56        92.97012
382.01        92.54134
382.46        92.00541
382.91        91.37779
383.36        90.75423
383.81        90.28884
384.26         90.0039
384.71        89.85098
385.15        89.71006
385.60        89.44158
386.05        88.99653
386.50        88.43268
386.95        87.83344
387.40        87.33527
387.85        86.96895
388.29        86.62678
388.74        86.36162
389.19        86.05244
389.64        85.67852
390.09        85.26257
390.54         84.8043
390.98        84.33706
391.43        83.94247
391.88         83.4517
392.33        82.91989
392.78        82.76479
393.23         82.8252
393.67        82.28243
394.12         81.3485
394.57        80.94249
395.02        81.00513
395.47         80.6704
395.91        80.02029
396.36        79.75606
396.81        79.90244
397.26        80.14112
397.71        80.30141
398.15        80.21222
398.60        79.91962
399.05        79.39277
399.50        78.83357
399.95        78.60741
400.39        78.73011
400.84        78.86591
401.29        78.87302
401.74        78.69318
402.18        78.28822
402.63        77.61869
403.08        76.88801
403.53        76.42393
403.97        76.26396
404.42        76.29762
404.87        76.41874
405.32        76.40007
405.76        76.17158
406.21        76.05688
406.66        75.98386
407.11        75.37626
407.55          74.525
408.00        74.41238
408.45        74.99387
408.90        75.53654
409.34        75.69257
409.79        75.07978
410.24        73.97469
410.68        73.42341
411.13        73.52579
411.58        73.62722
412.03        73.63967
412.47         73.7483
412.92        73.88454
413.37        74.00578
413.81        74.07114
414.26        74.08585
414.71        74.03069
415.15        73.92083
415.60        73.77493
416.05        73.69183
416.49        73.69482
416.94        73.74857
417.39        73.80952
417.83        73.78709
418.28        73.66943
418.73        73.50723
419.17        73.32027
419.62        73.14108
420.07        72.98432
420.51        72.82051
420.96        72.75221
421.41        72.80568
421.85        72.94288
422.30        73.34259
422.74        73.81419
423.19        73.78773
423.64        73.37805
424.08        73.49587
424.53        74.05849
424.98        74.20477
425.42        73.86484
425.87        73.66856
426.31         73.7086
426.76        73.38287
427.21        72.93993
427.65        73.64771
428.10        75.03458
428.54        75.20962
428.99        74.29179
429.44        73.32418
429.88         72.7228
430.33        73.38212
430.77        74.74877
431.22          74.885
431.66        73.88358
432.11        73.28322
432.56        73.25826
433.00        73.79533
433.45        74.70406
433.89        74.23028
434.34        73.13129
434.78        74.46635
435.23        74.63293
435.67        74.77265
436.12        74.02119
436.57        74.42204
437.01        75.75891
437.46        76.46734
437.90        75.90087
438.35        75.60043
438.79        75.48475
439.24        75.11394
439.68        74.62946
440.13        74.65581
440.57        75.18816
441.02        75.58154
441.46        75.71671
441.91        76.25717
442.35        76.91544
442.80        76.60619
443.24        76.01264
443.69        75.91797
444.13        76.43977
444.58        76.61888
445.02        76.40382
445.47        76.46594
445.91        76.84776
446.36        77.03586
446.80        76.93211
447.24        77.93097
447.69         77.6743
448.13        77.86946
448.58        77.83838
449.02        77.63972
449.47         77.3772
449.91        77.21889
450.36        77.24471
450.80        77.36621
451.25         77.5131
451.69        77.52126
452.13        77.36341
452.58        77.09988
453.02        76.81428
453.47        76.63801
453.91        76.57062
454.36        76.68566
454.80        76.91226
455.24        76.68411
455.69        76.39326
456.13        76.36475
456.58        75.99991
457.02        75.60564
457.46        75.73616
457.91        76.06787
458.35        76.58102
458.79         76.5901
459.24        76.05847
459.68        75.45371
460.13        75.10445
460.57        74.00813
461.01        74.35582
461.46        74.45672
461.90        74.71156
462.34        74.78815
462.79        73.96104
463.23        74.13988
463.68        74.88371
464.12        75.06181
464.56        74.61339
465.01        74.13649
465.45        73.79526
465.89        73.93572
466.34        74.23204
466.78          74.506
467.22        73.16533
467.67        72.39784
468.11        73.01286
468.55        73.20987
468.99        73.22329
469.44        73.23505
469.88        73.24467
470.32        73.16279
470.77        73.01509
471.21        72.90373
471.65        72.83215
472.10        72.79254
472.54        72.76501
472.98        72.71589
473.42        72.62619
473.87        72.62276
474.31        72.64195
474.75         72.3952
475.20        72.00294
475.64         72.0747
476.08        72.50766
476.52        72.51643
476.97        72.02764
477.41        72.10355
477.85        71.21691
478.29        71.61378
478.74        72.16571
479.18        72.14301
479.62        71.45373
480.06        71.26643
480.50        71.63144
480.95        70.90237
481.39        71.57948
481.83        70.63299
482.27        70.95541
482.72        71.20303
483.16        71.04221
483.60        71.21085
484.04         71.3155
484.48        71.28063
484.93        71.44079
485.37        71.79841
485.81        71.17931
486.25        73.03391
486.69        72.76321
487.14        70.48141
487.58        69.62975
488.02        71.50775
488.46        70.72355
488.90        69.84764
489.34        70.63917
489.79        70.80648
490.23        70.44268
490.67        70.32425
491.11        70.30353
491.55        70.48483
491.99         70.7336
492.43        70.74378
492.88        70.48929
493.32         70.1853
493.76        69.93978
494.20        69.82809
494.64        69.86798
495.08        70.05288
495.52        70.31586
495.96        70.38829
496.41        70.27441
496.85        70.42189
497.29        70.67767
497.73        70.37857
498.17        69.64793
498.61        69.22393
499.05        69.10828
499.49        69.46021
499.93        70.03144
500.37        70.25946
500.82        70.14969
501.26        70.01611
501.70        70.28983
502.14        70.44001
502.58        70.09173
503.02         69.8815
503.46        69.69872
503.90        69.48203
504.34        69.29263
504.78        69.28342
505.22        69.47475
505.66        69.75938
506.10        70.04562
506.54        70.32057
506.98         70.4488
507.42         70.1841
507.86        69.52942
508.30        69.19141
508.74        69.19978
509.18        69.27446
509.62        69.35681
510.06        69.46276
510.50        69.55869
510.94        69.64119
511.38        69.70042
511.82        69.71486
512.26        69.67829
512.70        69.58863
513.14        69.45794
513.58        69.31338
514.02        69.17476
514.46        69.03711
514.90        68.90083
515.34        68.80757
515.78        68.77328
516.22        68.61646
516.66        68.67493
517.10        68.71462
517.54        68.82581
517.98        68.98727
518.42        69.15628
518.86        69.25173
519.30        69.25085
519.74        69.19366
520.18         69.1198
520.62        69.05106
521.06         69.0242
521.50        69.11713
521.93        69.27493
522.37        69.30261
522.81        69.18206
523.25        69.01688
523.69        68.83791
524.13        68.65977
524.57        68.50772
525.01        68.38098
525.45        68.31153
525.89        68.34901
526.32        68.49164
526.76         68.7177
527.20        68.96279
527.64        69.12474
528.08        69.17359
528.52        69.13571
528.96        69.04616
529.40        68.96651
529.83        68.91073
530.27        68.87662
530.71        68.86013
531.15        68.87083
531.59         68.9081
532.03        68.97417
532.46        69.03594
532.90        69.06011
533.34        69.03851
533.78        68.92438
534.22        68.76279
534.66        68.74385
535.09        68.81516
535.53        68.71305
535.97        68.44909
536.41         68.2884
536.85        68.24588
537.28        68.17229
537.72        68.08838
538.16        68.09014
538.60        68.17451
539.04        68.30508
539.47        68.42706
539.91         68.4951
540.35        68.47749
540.79        68.42043
541.22        68.34634
541.66        68.19631
542.10        68.16045
542.54        68.09002
542.97        68.04053
543.41        68.05218
543.85         68.1126
544.29         68.2123
544.72        68.30653
545.16        68.36083
545.60        68.34964
546.04        68.28088
546.47        68.17936
546.91        68.09943
547.35        68.06565
547.79        68.05005
548.22        67.99834
548.66        67.97132
549.10        67.96265
549.53        67.65644
549.97        67.68647
550.41        67.68197
550.84         67.8255
551.28        68.09159
551.72        68.38808
552.15        68.49762
552.59         68.4212
553.03        68.30637
553.46        68.19156
553.90        68.16566
554.34        68.24801
554.77        68.31285
555.21        68.26717
555.65        68.62287
556.08        68.19485
556.52        68.01454
556.96        67.79465
557.39        67.62598
557.83         67.5403
558.27        67.66292
558.70        67.52697
559.14        67.82111
559.57        67.79322
560.01        67.98985
560.45        68.11962
560.88        68.08829
561.32        67.97053
561.75         67.5593
562.19        67.09618
562.63        67.44135
563.06        68.34442
563.50        68.24234
563.93        67.28517
564.37        67.11203
564.80        67.67867
565.24        67.92879
565.68        67.78793
566.11         67.7383
566.55        67.79974
566.98        67.70924
567.42        67.56788
567.85        67.59949
568.29        67.79807
568.72        67.94572
569.16        68.10583
569.60        68.11506
570.03        67.87488
570.47        68.09953
570.90        68.52675
571.34        67.28295
571.77        68.07282
572.21        68.03296
572.64        68.28857
573.08        67.94545
573.51        68.22665
573.95        68.55743
574.38        67.87125
574.82        68.25079
575.25        68.39982
575.69        68.73289
576.12        68.54803
576.56        68.04993
576.99        68.25964
577.42        68.11238
577.86        68.69464
578.29         68.6553
578.73        69.56105
579.16        68.31596
579.60         67.6311
580.03        67.33786
580.47        68.30028
580.90        67.62109
581.33        68.30933
581.77        68.30332
582.20        68.94831
582.64        68.73269
583.07        68.58057
583.51        68.12447
583.94        67.88242
584.37        68.10752
584.81         68.7878
585.24        68.82641
585.68        68.20508
586.11         68.4576
586.54        68.86352
586.98        67.60283
587.41        67.49162
587.85        68.20919
588.28        68.48215
588.71        67.33295
589.15        68.15258
589.58         67.5904
590.01        67.33986
590.45        67.34018
590.88         67.7238
591.31        67.81974
591.75        67.65411
592.18        67.43826
592.61        67.32137
593.05        67.49928
593.48        67.51439
593.91        68.08492
594.35        67.60814
594.78        67.38206
595.21        66.95313
595.65        67.53767
596.08        67.62405
596.51        67.39841
596.94        67.18097
597.38        66.97308
597.81        67.04461
598.24        67.10133
598.68        67.19633
599.11        66.90157
599.54        68.06739
599.97         67.7496
600.41        67.02843
600.84        67.43642
601.27         67.3905
601.70         67.5894
602.14        68.13866
602.57        67.60891
603.00        67.45137
603.43        67.14899
603.87         67.4754
604.30        67.98165
604.73        67.41324
605.16        67.22137
605.60        67.02058
606.03        67.25339
606.46        67.65439
606.89        67.41977
607.32        66.81188
607.76        66.52316
608.19        66.67183
608.62        67.29452
609.05        67.36112
609.48        67.30004
609.92        66.75922
610.35        66.22521
610.78        67.72804
611.21        68.19666
611.64        67.53155
612.07         67.5017
612.50        67.81397
612.94        67.68349
613.37        67.08805
613.80        67.26045
614.23        66.74567
614.66         67.1339
615.09        66.93191
615.52        67.06609
615.96        67.10776
616.39        67.43066
616.82        67.29076
617.25        67.04416
617.68        67.38612
618.11        67.23488
618.54        66.89765
618.97        66.61908
619.40        66.52618
619.84        66.44483
620.27        66.36324
620.70        66.78997
621.13        67.64565
621.56        66.76091
621.99        66.53055
622.42        66.57411
622.85        66.73003
623.28        66.64231
623.71         66.1333
624.14         67.1322
624.57        66.83304
625.00        67.13787
625.43        67.22919
625.86        66.85645
626.29        66.67818
626.72        66.66753
627.15        66.34911
627.58        66.18507
628.01        66.01289
628.44        66.09557
628.87        66.33852
629.30        66.33712
629.73        66.13299
630.16        66.10892
630.59        66.27096
631.02        66.39362
631.45        66.42917
631.88        66.37479
632.31         66.2916
632.74        66.11929
633.17        65.94453
633.60        65.87275
634.03        65.92898
634.46        66.08754
634.89        66.28076
635.32        66.39338
635.75         66.3911
636.18        66.30283
636.61        66.18028
637.04        66.11108
637.47        66.12247
637.89        66.17328
638.32        66.19173
638.75        66.16873
639.18        66.10579
639.61        65.75417
640.04        65.66534
640.47        65.52513
640.90        65.50435
641.33        65.55617
641.76        65.64523
642.18         65.7746
642.61        65.91765
643.04        65.98079
643.47        65.91438
643.90        66.30154
644.33        66.14461
644.76        66.13422
645.18        66.03768
645.61        66.19897
646.04        66.52496
646.47        66.47932
646.90        66.10631
647.33        65.94966
647.75        66.03812
648.18        65.99963
648.61        65.87439
649.04        65.93468
649.47        66.10471
649.89        66.23337
650.32        66.24961
650.75        65.89801
651.18        65.37395
651.61        65.54463
652.03        66.31296
652.46        66.40398
652.89        65.80748
653.32        65.66263
653.74        66.19862
654.17        65.58347
654.60        66.25392
655.03        66.19924
655.46         65.8457
655.88        65.65864
656.31        72.01492
656.74        71.87433
657.16        67.47608
657.59         65.6384
658.02        65.95974
658.45        66.30497
658.87        66.30429
659.30        65.61578
659.73        65.48136
660.15        66.61908
660.58        65.81179
661.01         65.6602
661.44        65.24069
661.86        65.33094
662.29        65.82581
662.72        65.99617
663.14        65.86997
663.57        65.96666
664.00        66.26271
664.42         66.3373
664.85        66.17933
665.27        65.94517
665.70        65.71774
666.13        65.58681
666.55        65.59266
666.98        65.68983
667.41        65.83302
667.83        65.95399
668.26        66.01006
668.69         66.0214
669.11        66.00628
669.54        66.01978
669.96        66.06274
670.39        66.05042
670.82        66.00293
671.24        66.00182
671.67        66.05276
672.09        66.10912
672.52        66.15285
672.94        66.12431
673.37        66.02211
673.80        65.86188
674.22         65.7063
674.65        65.62594
675.07        65.65781
675.50        65.76553
675.92        65.90706
676.35        66.00415
676.77        66.03688
677.20        66.02027
677.62        65.98374
678.05        65.96191
678.47        65.96629
678.90        65.99041
679.32          66.012
679.75          66.021
680.17         66.0051
680.60        65.97105
681.02        65.93899
681.45        65.91258
681.87        65.90569
682.30        65.94231
682.72        66.00459
683.15        65.94215
683.57         65.7974
684.00        65.78063
684.42        65.89072
684.85        65.96135
685.27        65.96815
685.70        66.02837
686.12         66.1089
686.54        66.08111
686.97        65.94057
687.39        65.86869
687.82         65.8409
688.24        65.60368
688.66        65.25246
689.09        65.24943
689.51         65.5704
689.94        65.73619
690.36        65.72742
690.78        65.79379
691.21        65.97593
691.63         66.2089
692.06        66.49591
692.48        66.89053
692.90        67.28736
693.33        67.46365
693.75         67.3877
694.17        67.08072
694.60        66.67855
695.02        66.44432
695.44        66.37442
695.87        66.29144
696.29        66.17418
696.71        65.90337
697.14        65.62271
697.56        65.87718
697.98        66.54196
698.41        66.89061
698.83        66.85691
699.25        66.83221
699.68        66.83999
700.10        66.81262
700.52        66.76312
700.94        66.66493
701.37        66.55207
701.79        66.60538
702.21        66.76409
702.64        66.83231
703.06        66.80114
703.48        66.71986
703.90        66.57278
704.33        66.75282
704.75        66.44563
705.17        66.43881
705.59        66.49291
706.01        66.58034
706.44        66.69797
706.86        66.85036
707.28        67.00778
707.70        67.25742
708.12        67.50752
708.55        67.37788
708.97        66.95712
709.39        66.81232
709.81        66.96114
710.23        66.97054
710.66        66.83695
711.08        66.85465
711.50        67.00373
711.92        67.12022
712.34        67.18667
712.76        67.24833
713.19        67.27786
713.61           67.28
714.03        67.23637
714.45        67.14083
714.87        67.03902
715.29        67.00522
715.71        67.05299
716.13        67.17316
716.56        67.28622
716.98         67.3261
717.40         67.2423
717.82        67.08813
718.24        66.96599
718.66        66.90186
719.08        67.13826
719.50        67.44381
719.92        67.76064
720.34        67.88546
720.76        67.77122
721.19        67.48026
721.61        67.12296
722.03        66.87256
722.45        66.78941
722.87        66.83818
723.29        66.96011
723.71        67.05614
724.13        67.09145
724.55        67.08475
724.97        67.09825
725.39         67.2275
725.81        67.47923
726.23        67.81261
726.65        68.09736
727.07        68.13322
727.49        67.88985
727.91        67.43951
728.33        66.95588
728.75        66.71406
729.17        66.77821
729.59        67.06384
730.01        67.43172
730.43         67.6385
730.85         67.6132
731.27        67.44783
731.69        67.21712
732.10        67.03212
732.52        66.94128
732.94        66.89696
733.36        66.92214
733.78        67.06055
734.20        67.28967
734.62        67.60388
735.04        67.92419
735.46        68.04074
735.88        67.97606
736.30        67.97556
736.72        67.98857
737.13         67.8619
737.55        67.60039
737.97        67.09512
738.39        66.58939
738.81        66.97453
739.23        68.05202
739.65        68.38433
740.06        67.90436
740.48          67.811
740.90        68.08264
741.32        68.02378
741.74        67.63765
742.16        67.35067
742.57        67.22225
742.99        67.09871
743.41        67.03619
743.83        67.17702
744.25        67.47576
744.67        67.76378
745.08        67.96378
745.50        68.00372
745.92        67.86913
746.34        67.53643
746.75        67.09315
747.17        66.75434
747.59        66.56141
748.01        66.47295
748.42        66.49298
748.84        66.59336
749.26        66.76433
749.68        66.99281
750.09        67.23409
750.51        67.46273
750.93        67.63709
751.35        67.69485
751.76        67.66427
752.18        67.64964
752.60        67.67316
753.01         67.7058
753.43        67.71501
753.85        67.70602
754.27        67.68684
754.68        67.67693
755.10        67.70355
755.52        67.79635
755.93        67.93951
756.35        68.09901
756.77        68.26794
757.18        68.36221
757.60        68.36642
758.02        68.50845
758.43         68.6525
758.85        68.24699
759.26        67.54231
759.68        67.44337
760.10        68.06365
760.51         68.6701
760.93        68.40858
761.34        68.16013
761.76        67.86228
762.18        67.76969
762.59        68.00117
763.01        67.55877
763.42        67.87895
763.84        67.90038
764.26        68.05023
764.67        68.18745
765.09        68.30044
765.50        68.30489
765.92        68.19605
766.33        67.92972
766.75        67.53593
767.16        67.42783
767.58        67.63485
768.00        67.80463
768.41        68.00216
768.83         68.8101
769.24         69.9437
769.66        70.28171
770.07        69.82964
770.49        69.41134
770.90        69.18248
771.32        69.01279
771.73        68.91819
772.15        68.78256
772.56        68.63232
772.97        68.66341
773.39        68.84072
773.80        69.00956
774.22        69.10542
774.63        69.22791
775.05        69.31673
775.46        69.34031
775.88        69.26929
776.29        69.13116
776.70         68.9898
777.12        68.98261
777.53        69.14478
777.95        69.40478
778.36        69.67187
778.77        69.75623
779.19        69.62451
779.60        69.39833
780.02        69.13135
780.43        68.85937
780.84         68.7046
781.26         68.6824
781.67        68.79465
782.09        69.28875
782.50        69.88796
782.91         69.5677
783.33         68.6109
783.74        68.35763
784.15        68.93484
784.57        69.53351
784.98         70.0238
785.39        70.50269
785.81        70.89441
786.22         70.9547
786.63        71.09613
787.04        70.99792
787.46        70.83791
787.87        70.56856
788.28        70.32664
788.70         70.2896
789.11        70.45525
789.52        70.80581
789.93        71.17719
790.35        71.27126
790.76        71.05799
791.17        70.63838
791.58        70.17103
792.00        69.91267
792.41        69.95327
792.82        70.09607
793.23        70.26473
793.65        70.65926
794.06         71.0803
794.47        70.79283
794.88        70.04932
795.29        69.80624
795.71        70.05699
796.12        70.44975
796.53         70.7898
796.94        70.85698
797.35        70.59853
797.76        70.27782
798.18        70.06557
798.59        69.99885
799.00        70.13441
799.41          70.509
799.82        70.99186
800.23        71.30327
800.64        71.36465
801.06        71.23502
801.47        71.02692
801.88        70.83567
802.29        70.71344
802.70         70.6245
803.11        70.56791
803.52         70.5481
803.93        70.57126
804.34        70.64915
804.75        70.77002
805.17        70.95105
805.58        71.22705
805.99        71.35809
806.40        71.35364
806.81        71.70315
807.22        72.19065
807.63        71.77028
808.04        70.65601
808.45         70.1545
808.86        70.39571
809.27        70.69038
809.68        70.89495
810.09        71.06432
810.50        71.13352
810.91        71.10426
811.32        71.00685
811.73        70.88853
812.14        70.77988
812.55         70.6662
812.96        70.60861
813.37        70.70991
813.78        70.97934
814.19        71.38421
814.60        71.81223
815.01        72.09003
815.42        72.17482
815.83         72.1005
816.24        71.93939
816.65        71.83817
817.05        71.85246
817.46         71.9192
817.87        72.00095
818.28        71.99754
818.69        71.88681
819.10        71.70231
819.51        71.51427
819.92        71.44447
820.33        71.52293
820.74         71.7021
821.14        71.88742
821.55        71.96615
821.96        71.90379
822.37        71.76189
822.78        71.60172
823.19         71.5303
823.60         71.5933
824.00        71.76662
824.41        72.02138
824.82        72.42097
825.23        72.93119
825.64        73.50872
826.04        74.02841
826.45        74.20227
826.86         73.9985
827.27        73.50607
827.68        72.84264
828.08        72.23418
828.49        71.74609
828.90        71.34759
829.31        71.11227
829.72        71.13451
830.12        71.44458
830.53        72.00147
830.94        72.60696
831.35        72.84344
831.75        72.62663
832.16        72.01256
832.57         71.3643
832.97        71.24335
833.38        71.74071
833.79        72.67217
834.20        73.68121
834.60        74.15832
835.01        73.90782
835.42        73.16307
835.82        72.19646
836.23        71.41698
836.64        70.97009
837.04        70.75238
837.45         70.7029
837.86        70.78487
838.26        70.96597
838.67         71.2404
839.08        71.54757
839.48        71.73897
839.89        71.76801
840.29        71.66696
840.70          71.505
841.11         71.3741
841.51        71.32736
841.92        71.31203
842.33        71.38705
842.73        71.65434
843.14        72.06315
843.54        72.62965
843.95        73.17307
844.35          73.465
844.76        73.40767
845.17        73.05506
845.57         72.5776
845.98        72.23627
846.38        72.12737
846.79        72.18695
847.19        72.28477
847.60        72.11303
848.00        71.64542
848.41         70.9725
848.81        70.36836
849.22        70.22002
849.62        70.61318
850.03        71.39587
850.43        72.28056
850.84        72.62718
851.24        72.33295
851.65        71.54624
852.05        70.65599
852.46        70.28156
852.86        70.55639
853.27        71.24586
853.67        72.04723
854.07        72.74158
854.48        73.19105
854.88        73.59444
855.29         73.7312
855.69        73.47542
856.10        72.74025
856.50        71.66084
856.90         70.6129
857.31        70.16233
857.71        70.40286
858.12        71.14053
858.52         72.1097
858.92        72.56931
859.33        72.27539
859.73        71.50473
860.13        70.47465
860.54        69.55867
860.94        68.90369
861.34        68.38028
861.75        68.06709
862.15        68.15215
862.55        68.61066
862.96         69.3905
863.36        70.22047
863.76        70.55518
864.17        70.27206
864.57        69.52184
864.97        68.61407
865.38        68.08712
865.78        68.11832
866.18        68.53576
866.58         69.1165
866.99        69.44948
867.39        69.43646
867.79        69.23016
868.19        68.93351
868.60        68.65437
869.00        68.43893
869.40        68.22446
869.80        68.13255
870.21        68.39351
870.61        69.05822
871.01        69.97948
871.41        70.81187
871.81        71.03629
872.22        70.55517
872.62        69.53689
873.02        68.30366
873.42        67.39969
873.82        67.02258
874.22        67.05956
874.63        67.35177
875.03        67.62774
875.43        67.79439
875.83        67.92146
876.23        68.10808
876.63        68.50002
877.03        69.09825
877.44        69.79236
877.84        70.39501
878.24        70.57082
878.64        70.25705
879.04         69.5799
879.44        68.79806
879.84        68.29557
880.24        68.17036
880.64        68.32432
881.04        68.60718
881.44        68.76096
881.84        68.71453
882.24        68.55781
882.65        68.35483
883.05        68.32098
883.45        68.46384
883.85        68.69137
884.25        68.95833
884.65         69.2203
885.05        69.46035
885.45         69.7127
885.85        69.91413
886.25        69.95188
886.65        69.81051
887.05        69.50793
887.45        69.20475
887.85        69.15598
888.25        69.40766
888.65        69.89211
889.04        70.38575
889.44        70.50137
889.84        70.16389
890.24        69.47535
890.64        68.71047
891.04        68.26102
891.44        68.21736
891.84        68.51044
892.24        68.84887
892.64        68.74149
893.04         68.1092
893.44        67.12181
893.83        66.24403
894.23        66.18045
894.63        67.02587
895.03        68.56104
895.43        70.22684
895.83        71.00445
896.23        70.62063
896.63        69.43999
897.02        68.00365
897.42        67.19027
897.82        67.14137
898.22        67.64306
898.62        68.41877
899.01          69.025
899.41        69.24842
899.81         69.2464
900.21        69.23685
900.61        69.56923
901.00        70.29636
901.40        71.22457
901.80        72.02958
902.20        72.24172
902.59        71.78764
902.99        70.86198
903.39        69.77702
903.79        69.03223
904.18        68.76599
904.58        68.83118
904.98        69.10829
905.38        69.41927
905.77        69.67451
906.17        69.97233
906.57        70.16253
906.96        70.00233
907.36         69.4658
907.76        68.62445
908.15        67.83305
908.55        67.64213
908.95        68.17282
909.34         69.2533
909.74        70.46465
910.14         71.1818
910.53        71.21564
910.93        70.76977
911.33        70.07005
911.72         69.4766
912.12        69.14339
912.52        68.94238
912.91        68.86099
913.31        68.88232
913.70        68.98775
914.10        69.22095
914.49        69.49916
914.89        69.65055
915.29        69.64288
915.68        69.48434
916.08        69.30258
916.47        69.34953
916.87        69.66171
917.26        70.15752
917.66        70.62486
918.05        70.73696
918.45        70.43242
918.84        69.86174
919.24        69.23278
919.64        68.98725
920.03        69.25836
920.42        69.86526
920.82        70.61412
921.21        71.25127
921.61        71.64817
922.00        71.88158
922.40        71.90325
922.79         71.7048
923.19        71.31191
923.58        70.76526
923.98        70.15456
924.37        69.54616
924.77        69.01273
925.16        68.55382
925.55        68.28309
925.95        68.33657
926.34        68.74386
926.74        69.40554
927.13        70.22618
927.52        70.95741
927.92         71.4884
928.31        71.85932
928.70        72.04037
929.10        72.03642
929.49        71.88879
929.89        71.58952
930.28        71.21408
930.67        70.85009
931.07        70.52913
931.46        70.24421
931.85        70.04108
932.24         69.9762
932.64         70.0446
933.03        70.27895
933.42        70.48426
933.82          70.374
934.21        69.91071
934.60        69.15398
934.99        68.46055
935.39         68.3503
935.78        68.95024
936.17        70.15171
936.56        71.45183
936.96        71.92291
937.35         71.3677
937.74        70.03487
938.13        68.60644
938.53        67.99908
938.92        68.34164
939.31        69.40453
939.70        70.66437
940.09        71.16297
940.49        70.64452
940.88        69.46678
941.27        68.16941
941.66        67.54765
942.05        67.79457
942.44        68.65125
942.84        69.77226
943.23        70.60777
943.62        70.87798
944.01        70.77715
944.40        70.44981
944.79        70.11607
945.18          69.884
945.57        69.67318
945.97         69.5163
946.36        69.58556
946.75        69.86273
947.14        70.32173
947.53        70.85873
947.92         71.2526
948.31        71.41598
948.70        71.39993
949.09        71.23543
949.48        70.97932
949.87        70.68232
950.26        70.35111
950.65        70.06767
951.04          69.986
951.43         70.1325
951.82        70.42882
952.21        70.80571
952.60        71.16479
952.99        71.42984
953.38        71.59225
953.77         71.5304
954.16        71.04124
954.55         70.1622
954.94        69.07909
955.33        67.98951
955.72        67.18078
956.11        66.75489
956.50        66.59611
956.89        66.84409
957.28        67.72034
957.66        69.21455
958.05        71.12601
958.44        72.86445
958.83        73.30499
959.22        72.22414
959.61        70.07209
960.00        67.63187
960.39        66.01733
960.78        65.51405
961.16        65.84093
961.55         66.7458
961.94        67.89497
962.33        69.07211
962.72        70.37976
963.11        71.52779
963.49        71.97778
963.88        71.56782
964.27        70.46427
964.66        69.08996
965.04        68.07542
965.43        67.55208
965.82        67.35204
966.21        67.36887
966.60        67.37379
966.98        67.29048
967.37        67.23601
967.76        67.14271
968.15         66.8464
968.53        66.35879
968.92         65.6855
969.31        65.10625
969.69        65.09779
970.08        65.69119
970.47        66.73406
970.86        67.84183
971.24        68.31548
971.63        67.89015
972.02        66.84718
972.40        65.48736
972.79        64.29761
973.17         63.5009
973.56          63.001
973.95        62.83231
974.33        63.05191
974.72        63.57882
975.11        64.35918
975.49        65.39621
975.88        66.59564
976.26         67.8666
976.65         69.0973
977.04        69.83353
977.42        69.38759
977.81        67.74074
978.19        65.15531
978.58        62.78014
978.96        62.09126
979.35        63.36802
979.74        66.31059
980.12        70.07101
980.51        72.29729
980.89        72.35555
981.28        70.71104
981.66        68.41212
982.05        67.29766
982.43        67.82468
982.82        69.38206
983.20        71.46074
983.59        73.03537
983.97        73.82643
984.35        74.13884
984.74        73.91624
985.12        73.16808
985.51        71.98267
985.89        70.32194
986.28        68.72416
986.66        67.91517
987.04        68.16389
987.43        69.28391
987.81        70.77189
988.20        71.52774
988.58        71.28991
988.96        70.21976
989.35        68.95098
989.73        68.49857
990.12        69.04265
990.50        70.31152
990.88        71.52964
991.27        71.45985
991.65        69.96402
992.03         67.5648
992.42        65.15448
992.80        63.83385
993.18        63.99187
993.56        65.16617
993.95        66.91714
994.33        68.79979
994.71        70.29156
995.10         71.5099
995.48        72.02851
995.86        71.15144
996.24         68.9576
996.63        65.82111
997.01        62.57364
997.39        60.40525
997.77        59.62194
998.15        59.95143
998.54        61.19475
998.92        62.89383
999.30         64.7427
999.68        66.78775
1000.06         68.6763
1000.45         69.7939
1000.83        70.07713
1001.21        69.46535
1001.59        68.23319
1001.97        67.02432
1002.35        66.11019
1002.73        65.40752
1003.12        64.96388
1003.50        64.72013
1003.88        64.67682
1004.26        64.94045
1004.64        65.31696
1005.02        65.45775
1005.40        65.31793
1005.78        64.94561
1006.16        64.62521
1006.54        64.90372
1006.92         65.8322
1007.30        67.10506
1007.69        68.26011
1008.07        68.79993
1008.45        68.48392
1008.83        67.60286
1009.21        66.21411
1009.59        64.40165
1009.97        62.37621
1010.35        60.17509
1010.73        58.50324
1011.11        58.55288
1011.49        60.65969
1011.86        64.81473
1012.24        69.82113
1012.62        73.71203
1013.00        75.63654
1013.38        75.70841
1013.76        74.91511
1014.14        75.34708
1014.52        77.59013
1014.90        81.00804
1015.28        84.04169
1015.66        83.99584
1016.04         80.6846
1016.41        75.74402
1016.79        71.09002
1017.17        68.23315
1017.55        67.16502
1017.93        67.27509
1018.31        68.26845
1018.69        69.14627
1019.06         69.2013
1019.44        68.92652
1019.82        68.30769
1020.20        67.12887
1020.58        65.37093
1020.95        62.79603
1021.33        59.93336
1021.71        58.38073
1022.09        59.08688
1022.46        61.61832
1022.84        65.02362
1023.22         68.1104
1023.60        70.39036
1023.97        72.17303
1024.35        72.84145
1024.73        71.42423
