SpectraSmart Spectrum 2.9.0.0
--------- Device Information -----------
Spectrum Name :  反射率_0
Saving Time :  2024/05/01 16:32:57
Spectro-Module Model Name : SE2030-DUVN
Spectro-Module Serial Number : OS361AC55029948
Wavelength Start : 200
Wavelength End : 1025
Wavelength Unit : Wavelength(nm)
Spectrum Unit : Reflectance(%)
-----------Spectrum Setting ------------
Integration Time : 20ms
Average : 10
Boxcar : 0
Background removal :  enabled
linearity correction :  enabled
SC :  disabled
Intensity correction :  disabled
DWT denoise :  enabled
savitzky-golay :  disabled
FFT :  disabled
Running average :  disabled
Kalman :  disabled
High pass :  disabled
---------------BEGIN--------------------
Wavelength(nm)             Reflectance(%)
200.29               0
200.75       -28.91171
201.21        62.19663
201.67       -65.90796
202.13         -16.382
202.58        13.12565
203.04        35.80486
203.50        51.27886
203.96        57.82232
204.42        56.28984
204.88        40.42166
205.34       -380.9569
205.80        116.3342
206.26        74.14659
206.72        25.06502
207.18       -182.5445
207.64        377.2678
208.10        166.9501
208.55          109.56
209.01        79.00591
209.47        63.73672
209.93        57.64539
210.39        54.55989
210.85          53.882
211.31        56.74118
211.77         70.6613
212.23       -59.44577
212.69        21.38173
213.14        36.70693
213.60        72.24495
214.06       -287.9979
214.52       -36.83932
214.98       -19.81099
215.44       -15.45118
215.90       -16.36485
216.36       -54.97098
216.81       -8.552738
217.27        -42.8884
217.73        145.3061
218.19        35.67114
218.65         20.2366
219.11         6.38212
219.57       -27.64579
220.02       -174.4332
220.48       -101.7641
220.94       -24.31986
221.40       -2.769587
221.86        6.450005
222.32        12.89865
222.77        20.06862
223.23         30.3529
223.69        42.90239
224.15        47.83225
224.61        41.93966
225.06        32.28265
225.52         25.6982
225.98        24.77867
226.44        28.73725
226.90        37.06877
227.36        47.73657
227.81        51.62329
228.27        45.79874
228.73        36.56794
229.19        28.94384
229.65        25.11787
230.10        24.36317
230.56        25.85042
231.02         28.8474
231.48        31.25804
231.93        31.84985
232.39        31.50704
232.85        31.32702
233.31        32.42255
233.77        34.66438
234.22        37.46042
234.68        40.06963
235.14        41.87468
235.60        42.91722
236.05        43.54052
236.51        44.35747
236.97        46.91438
237.43        51.74529
237.88        57.82488
238.34        63.13985
238.80        66.80821
239.26        69.06472
239.71        70.44686
240.17        69.95955
240.63        66.23414
241.08        60.06337
241.54         53.9603
242.00         51.5219
242.46        55.15731
242.91        66.57125
243.37        89.39936
243.83        128.2413
244.28        159.3729
244.74        153.6719
245.20        131.5976
245.66        112.3628
246.11        101.2339
246.57        95.25758
247.03         90.0765
247.48        82.69495
247.94        69.42723
248.40        52.48631
248.85        38.46769
249.31        33.83759
249.77        38.67977
250.22        48.07422
250.68        58.04961
251.14         66.7372
251.59        74.63206
252.05        84.24076
252.51        101.0335
252.96        138.5828
253.42        202.9191
253.88        218.6797
254.33        172.7004
254.79        137.2575
255.25         119.167
255.70         109.021
256.16         103.271
256.62        99.36539
257.07          96.014
257.53        93.89664
257.99        92.50849
258.44        91.57806
258.90        91.66982
259.35        92.01524
259.81        92.66264
260.27        93.04095
260.72        92.55396
261.18        91.54517
261.63         89.8739
262.09        88.05694
262.55         85.9884
263.00        83.62744
263.46        81.30891
263.91        78.94258
264.37        76.93303
264.83        75.21025
265.28        73.67651
265.74        72.36596
266.19        70.94138
266.65        69.49755
267.11        68.00304
267.56        66.61256
268.02         65.6946
268.47        65.22253
268.93         65.0312
269.38         64.8168
269.84        64.05916
270.30        62.67757
270.75        60.85106
271.21          58.882
271.66        57.07338
272.12        55.60077
272.57        54.29538
273.03        53.20361
273.48        52.31124
273.94        51.61624
274.39        51.06723
274.85        50.53901
275.31        49.73385
275.76        48.60771
276.22        47.33496
276.67        46.02574
277.13        44.99795
277.58        44.21274
278.04        43.61354
278.49        43.06274
278.95        42.50945
279.40         41.8633
279.86        41.22734
280.31        40.51893
280.77        39.74977
281.22        38.87691
281.68        37.99178
282.13        37.12228
282.59        36.42767
283.04        35.89361
283.50        35.54586
283.95         35.3098
284.41        35.13813
284.86        34.99333
285.32        34.90871
285.77        34.91642
286.22        35.12844
286.68          35.536
287.13        36.04756
287.59        36.53432
288.04        36.74269
288.50        36.65401
288.95        36.31716
289.41        35.91137
289.86        35.58695
290.32         35.4453
290.77        35.44464
291.22        35.57221
291.68         35.7845
292.13        36.07471
292.59        36.51412
293.04         37.1296
293.50        38.00838
293.95        39.13269
294.40        40.46076
294.86        41.92694
295.31        43.44228
295.77        44.95172
296.22        46.43467
296.68        47.87895
297.13        49.25081
297.58        50.58923
298.04        51.94967
298.49        53.34749
298.95        54.84924
299.40        56.44087
299.85        58.09415
300.31         59.8924
300.76        61.93545
301.21        64.24037
301.67        66.78178
302.12        69.29421
302.58        71.38857
303.03        72.94039
303.48        74.10417
303.94        75.25235
304.39        76.81646
304.84        78.95834
305.30        81.52422
305.75        84.24001
306.20        86.71018
306.66        88.81692
307.11        90.61897
307.57        92.27088
308.02        93.87186
308.47        95.51244
308.93        97.14393
309.38        98.69826
309.83         100.187
310.29        101.6228
310.74        103.0083
311.19        104.3441
311.65        105.5937
312.10        106.7282
312.55        107.7509
313.00        108.7512
313.46        109.8778
313.91        111.1309
314.36        112.4605
314.82        113.6613
315.27        114.4178
315.72        114.6585
316.18        114.5371
316.63        114.2574
317.08        114.2139
317.53         114.516
317.99         115.059
318.44         115.732
318.89        116.3112
319.35        116.7209
319.80         117.054
320.25         117.344
320.70        117.6495
321.16        117.9774
321.61        118.2928
322.06        118.6059
322.51        119.0331
322.97        119.5567
323.42        120.0803
323.87        120.4169
324.32        120.9232
324.78        120.5435
325.23        120.2057
325.68        119.7789
326.13        119.5891
326.59        119.6978
327.04        120.1002
327.49        120.6784
327.94        121.2227
328.39        121.6574
328.85        121.9805
329.30        122.3367
329.75        122.7861
330.20        123.3464
330.66        123.9377
331.11        124.5167
331.56        124.8766
332.01        124.9912
332.46        124.9213
332.92        124.8188
333.37        125.0634
333.82        125.7091
334.27        126.6902
334.72        127.8003
335.17        128.6634
335.63        129.1276
336.08        129.3419
336.53        129.4635
336.98        129.8282
337.43        130.5273
337.88        131.4571
338.34        132.3897
338.79        133.0574
339.24        133.3306
339.69        133.3014
340.14        133.1909
340.59        133.3393
341.05        133.8239
341.50        134.5767
341.95         135.359
342.40        135.7885
342.85        135.7956
343.30        135.5223
343.75        135.2744
344.20        135.5195
344.66        136.3379
345.11        137.5504
345.56        138.8617
346.01        139.7734
346.46        140.1417
346.91        140.1485
347.36         139.962
347.81        139.8376
348.26        139.8789
348.72        140.0054
349.17        140.2308
349.62        140.6635
350.07        141.2525
350.52         141.918
350.97          142.47
351.42        142.5802
351.87        142.1932
352.32        141.4791
352.77        140.4964
353.22        139.3496
353.67        138.1429
354.13        136.8798
354.58        135.8357
355.03        135.5558
355.48        136.0775
355.93        137.2724
356.38        138.4858
356.83        138.6103
357.28        137.4276
357.73        135.2911
358.18        133.0144
358.63        131.8138
359.08        131.9198
359.53        132.9335
359.98        134.1787
360.43         134.526
360.88        133.6614
361.33        131.9798
361.78         130.002
362.23        128.4598
362.68        127.5452
363.13        127.0162
363.58        126.6012
364.03        125.9059
364.48        124.8192
364.93        123.4842
365.38        122.1297
365.83        121.0607
366.28        120.3342
366.73         119.854
367.18        119.3394
367.63        118.3678
368.08        116.8933
368.53        115.0915
368.98         113.356
369.43        112.2431
369.88        111.8416
370.33        111.9694
370.78        112.2559
371.23        112.0602
371.68        111.2097
372.13         109.927
372.58        108.5326
373.03        107.4988
373.48        106.9321
373.93        106.6462
374.38        106.4834
374.83        106.2058
375.28        105.7233
375.72        105.1161
376.17        104.4139
376.62        103.5792
377.07        102.6389
377.52        101.5958
377.97        100.5788
378.42        99.80278
378.87        99.30817
379.32        99.04172
379.77        98.85154
380.22        98.48937
380.67        97.89697
381.11        97.15079
381.56        96.37023
382.01        95.78045
382.46        95.44308
382.91        95.28019
383.36        95.17913
383.81        94.96965
384.26        94.60106
384.71        94.12709
385.15        93.59975
385.60        93.15234
386.05        92.80063
386.50        92.50481
386.95        92.21499
387.40        91.86848
387.85        91.44989
388.29        90.92775
388.74        90.44975
389.19         90.0111
389.64        89.61513
390.09        89.24484
390.54        88.85432
390.98         88.3698
391.43         87.8604
391.88         87.3092
392.33        86.79637
392.78        86.53946
393.23        86.50817
393.67        86.34725
394.12        86.10278
394.57        86.07536
395.02        86.11981
395.47        85.57317
395.91        84.63542
396.36          84.183
396.81        84.29296
397.26        84.55764
397.71        84.74655
398.15        84.63087
398.60        84.24632
399.05         83.5891
399.50        82.90905
399.95        82.62975
400.39        82.78027
400.84        83.00532
401.29        83.11919
401.74        82.99729
402.18        82.57484
402.63        81.81252
403.08        80.97249
403.53         80.4706
403.97        80.37543
404.42        80.57304
404.87        80.84927
405.32        80.87421
405.76        80.56426
406.21        80.07491
406.66        79.55305
407.11        79.20853
407.55        79.16065
408.00        79.32455
408.45        79.57688
408.90         79.8057
409.34        79.80161
409.79         79.1818
410.24        78.19632
410.68        77.64972
411.13        77.63988
411.58        77.75054
412.03        77.86589
412.47        77.96539
412.92        77.96142
413.37        77.88754
413.81         77.7684
414.26        77.69737
414.71        77.66999
415.15        77.66946
415.60        77.64783
416.05        77.59508
416.49        77.50956
416.94        77.39685
417.39        77.26889
417.83        77.12731
418.28        76.97948
418.73         76.8252
419.17        76.67599
419.62        76.55584
420.07         76.4663
420.51        76.39165
420.96        76.35372
421.41        76.28428
421.85        76.15436
422.30        76.08792
422.74        76.06636
423.19        76.02096
423.64         75.9961
424.08        76.28214
424.53        76.74532
424.98        76.96016
425.42        76.84721
425.87        76.67179
426.31        76.52354
426.76        76.14368
427.21        75.71502
427.65        76.01552
428.10         76.7284
428.54        76.69003
428.99        76.06552
429.44        75.33582
429.88        74.74162
430.33        75.49225
430.77        77.06268
431.22        76.21846
431.66        75.03481
432.11         74.5098
432.56        75.24255
433.00        75.80888
433.45        75.98196
433.89        75.67162
434.34        74.92821
434.78        76.17591
435.23        75.86314
435.67        75.91135
436.12        75.49824
436.57        75.94788
437.01        77.00905
437.46        77.87838
437.90        77.15769
438.35        76.81598
438.79        76.57452
439.24        76.10688
439.68        75.54987
440.13        75.58388
440.57        76.17541
441.02        76.48608
441.46        76.36784
441.91        77.10414
442.35        77.08492
442.80        77.12428
443.24        76.81983
443.69        76.54792
444.13        76.38284
444.58        76.29205
445.02          76.294
445.47        76.47781
445.91        76.80162
446.36         77.1461
446.80        77.45668
447.24        77.76629
447.69        78.01772
448.13        78.10223
448.58         78.0264
449.02        77.79035
449.47        77.51276
449.91        77.33915
450.36        77.32962
450.80        77.42529
451.25        77.55378
451.69         77.5495
452.13        77.38245
452.58        77.10477
453.02        76.79533
453.47        76.59447
453.91        76.49187
454.36          76.579
454.80         76.7647
455.24         76.5725
455.69        75.91842
456.13        76.22657
456.58        75.33582
457.02        75.30431
457.46        75.47205
457.91        76.09504
458.35        76.44727
458.79        76.45058
459.24        75.95664
459.68        75.22647
460.13        74.59491
460.57        73.62151
461.01        74.00277
461.46        74.01591
461.90        74.14275
462.34        74.83334
462.79        73.88243
463.23        73.96566
463.68        74.26939
464.12        74.37072
464.56        74.30252
465.01        73.44298
465.45        73.53432
465.89        73.59841
466.34        73.94837
466.78        73.62244
467.22        72.76068
467.67        72.50278
468.11        72.61978
468.55        72.94131
468.99        72.98969
469.44        73.06975
469.88        73.07197
470.32        72.97849
470.77        72.84284
471.21        72.77652
471.65        72.78942
472.10        72.85578
472.54        72.91502
472.98        72.87923
473.42        72.72258
473.87        72.58215
474.31        72.43787
474.75        72.10578
475.20        71.72861
475.64        71.78298
476.08        72.15254
476.52        72.22385
476.97         71.9456
477.41        71.68063
477.85        71.24127
478.29        71.40992
478.74        72.07256
479.18        72.14099
479.62        71.63653
480.06        71.40906
480.50        71.39326
480.95        71.08982
481.39        71.62965
481.83        70.19687
482.27        70.77391
482.72        71.31899
483.16        70.93562
483.60        70.99973
484.04        71.52711
484.48        71.39391
484.93        70.98041
485.37        72.22385
485.81        71.47057
486.25        72.36182
486.69        72.22648
487.14        69.71157
487.58        69.15126
488.02        71.11968
488.46        70.15704
488.90        70.06109
489.34        70.92033
489.79        70.35081
490.23        70.87451
490.67        70.64043
491.11         70.4037
491.55        70.39831
491.99        70.59279
492.43         70.6195
492.88        70.44592
493.32        70.35252
493.76        70.34152
494.20        70.34292
494.64        70.35111
495.08        70.30315
495.52         70.2632
495.96        70.38286
496.41        70.54964
496.85        70.76264
497.29        70.78597
497.73         70.2197
498.17        69.57581
498.61         69.8135
499.05        69.11119
499.49        69.46611
499.93        70.05585
500.37         70.2641
500.82        70.10354
501.26        69.81052
501.70         70.2213
502.14        70.33241
502.58         70.1143
503.02        69.98375
503.46        69.88705
503.90        69.74961
504.34        69.63235
504.78        69.65736
505.22        69.81586
505.66         70.1394
506.10        70.51966
506.54        70.55476
506.98        70.15865
507.42         70.2575
507.86        69.53251
508.30        69.35521
508.74        69.35058
509.18         69.4853
509.62        69.68955
510.06        69.87719
510.50         70.0162
510.94         70.1199
511.38         70.1662
511.82        70.11581
512.26        69.97044
512.70        69.73357
513.14        69.46839
513.58        69.29031
514.02         69.2288
514.46        69.23383
514.90        69.30189
515.34        69.29962
515.78        69.21996
516.22        69.09588
516.66        68.97277
517.10        68.91754
517.54         68.9459
517.98        69.03097
518.42        69.14284
518.86        69.23486
519.30        69.29126
519.74        69.32691
520.18        69.34879
520.62        69.36958
521.06        69.39014
521.50         69.3949
521.93        69.39793
522.37         69.3964
522.81        69.39233
523.25         69.4274
523.69        69.46832
524.13        69.28932
524.57        69.16331
525.01        68.90089
525.45        68.67393
525.89        68.61833
526.32        68.75616
526.76        69.03204
527.20        69.33636
527.64        69.50127
528.08        69.48065
528.52         69.3327
528.96         69.1207
529.40        68.94495
529.83        68.83488
530.27        68.77551
530.71        68.76431
531.15        68.81516
531.59        68.92104
532.03        69.07948
532.46         69.2383
532.90        69.33073
533.34        69.34099
533.78         69.2331
534.22        69.06007
534.66        69.02848
535.09         69.0922
535.53        68.97723
535.97        68.71328
536.41         68.5946
536.85        68.63581
537.28        68.68052
537.72        68.70084
538.16        68.71493
538.60        68.70869
539.04        68.67197
539.47        68.61707
539.91         68.6025
540.35        68.61758
540.79        68.67642
541.22         68.7435
541.66        68.66343
542.10        68.60607
542.54        68.46008
542.97        68.32158
543.41        68.29226
543.85        68.37451
544.29        68.52877
544.72        68.70281
545.16        68.84416
545.60        68.91261
546.04        68.95315
546.47         68.9511
546.91        68.81812
547.35        68.61234
547.79        68.50154
548.22        68.44658
548.66        68.38741
549.10        68.32597
549.53        68.03065
549.97        68.12978
550.41        68.18906
550.84        68.38033
551.28         68.6897
551.72        69.02515
552.15        69.16908
552.59        69.12153
553.03         69.0265
553.46        68.90821
553.90        68.84728
554.34        68.86552
554.77        68.82518
555.21        68.65855
555.65         69.0075
556.08        68.56351
556.52           68.44
556.96        68.26495
557.39        68.12907
557.83        68.06538
558.27        67.95693
558.70        67.83172
559.14        68.08347
559.57        68.10245
560.01        68.41186
560.45        68.67084
560.88        68.66673
561.32        68.46043
561.75        67.96523
562.19        67.45244
562.63        67.67641
563.06        68.43972
563.50        68.45869
563.93        67.78708
564.37        67.61847
564.80        67.94093
565.24        68.10348
565.68        68.06049
566.11        68.06606
566.55        68.15217
566.98        68.16427
567.42        68.15267
567.85        68.27697
568.29        68.56461
568.72        68.46551
569.16        68.69768
569.60        68.67566
570.03        68.54227
570.47        68.38119
570.90        68.81829
571.34        67.76788
571.77        68.24709
572.21        68.16952
572.64        68.45677
573.08          68.061
573.51         68.1515
573.95        68.98962
574.38        68.42102
574.82        68.31303
575.25        69.06274
575.69        68.95116
576.12        68.44464
576.56        67.95164
576.99        68.74815
577.42        68.69065
577.86        68.68103
578.29        68.26189
578.73        69.36871
579.16        68.33015
579.60        67.65064
580.03        67.56936
580.47        68.26273
580.90        67.72304
581.33        68.59595
581.77        69.22359
582.20        69.08317
582.64        69.02692
583.07        68.56518
583.51        68.17228
583.94        68.07455
584.37        68.33643
584.81        68.92651
585.24        68.90933
585.68        68.47059
586.11        68.67698
586.54        68.51152
586.98        67.61337
587.41        67.64306
587.85        68.88251
588.28        68.71872
588.71        67.37089
589.15        68.41327
589.58        67.81802
590.01        67.98822
590.45        67.96639
590.88        68.13641
591.31        68.20395
591.75        68.06898
592.18        68.08379
592.61        67.93549
593.05         67.8964
593.48        67.92411
593.91        68.15855
594.35        67.98576
594.78        67.81511
595.21        67.36645
595.65        68.25249
596.08        68.04658
596.51         67.8991
596.94        67.47584
597.38        67.31544
597.81        67.63924
598.24        67.38947
598.68        67.92775
599.11        67.47406
599.54        68.92171
599.97        67.88308
600.41        67.85614
600.84        67.84992
601.27        67.82197
601.70        68.30233
602.14        68.43349
602.57        68.32166
603.00        68.04023
603.43        67.67815
603.87         67.8184
604.30        67.96837
604.73         67.6647
605.16        67.56535
605.60         67.4724
606.03         67.7579
606.46        68.15907
606.89        67.94552
607.32        67.35808
607.76          67.091
608.19        67.27393
608.62        67.79693
609.05        67.66113
609.48        68.01762
609.92        67.33933
610.35        66.99261
610.78        68.03355
611.21        68.22343
611.64         67.9548
612.07        68.11657
612.50         68.4015
612.94        68.03741
613.37        68.04186
613.80        67.84131
614.23        67.70504
614.66        67.92883
615.09        67.47968
615.52        67.49344
615.96         67.5989
616.39        67.77505
616.82        67.84829
617.25         67.6405
617.68        67.79184
618.11        67.69653
618.54        67.56684
618.97        67.39437
619.40        67.27448
619.84         67.1842
620.27        67.12078
620.70        67.48996
621.13        68.22276
621.56        67.39622
621.99         67.1159
622.42        67.23129
622.85        67.47749
623.28        67.52645
623.71        67.27694
624.14         67.8727
624.57        67.50976
625.00        67.63708
625.43        67.70427
625.86        67.71804
626.29        67.63406
626.72        67.54379
627.15        67.48423
627.58        67.27778
628.01        66.96386
628.44         67.2244
628.87        67.21494
629.30        67.25919
629.73        67.14349
630.16        67.16831
630.59        67.32108
631.02        67.45799
631.45        67.55039
631.88        67.55003
632.31        67.43536
632.74        67.45594
633.17        67.22182
633.60        67.16263
634.03          67.168
634.46        67.23061
634.89        67.30856
635.32        67.33734
635.75        67.30318
636.18        67.22166
636.61        67.11816
637.04        67.04271
637.47        67.01578
637.89        66.97704
638.32        66.95129
638.75        66.93482
639.18        66.95384
639.61        66.74869
640.04        66.83585
640.47        66.76419
640.90        66.70539
641.33        66.77547
641.76         66.9383
642.18        66.93204
642.61        67.05235
643.04        66.96283
643.47        66.72198
643.90        67.18169
644.33        66.90443
644.76         66.9483
645.18        66.91875
645.61        67.13515
646.04        67.48436
646.47        67.42807
646.90        67.04712
647.33        66.92632
647.75        67.09756
648.18        67.21256
648.61        67.24496
649.04        67.26335
649.47        67.23341
649.89        67.27269
650.32        67.32757
650.75        66.99033
651.18         66.4435
651.61        66.57697
652.03         67.2912
652.46        67.42529
652.89        66.96359
653.32        66.84749
653.74        67.21107
654.17        67.04395
654.60        67.11882
655.03        67.51606
655.46        66.79696
655.88        67.19483
656.31        74.35033
656.74        72.54864
657.16         66.0773
657.59        65.08059
658.02        66.50112
658.45        67.12915
658.87        67.32919
659.30        66.18086
659.73         66.7555
660.15        67.67622
660.58        66.97964
661.01        66.81545
661.44        66.51224
661.86        66.55925
662.29        66.89321
662.72        67.12632
663.14        67.22737
663.57        67.30813
664.00        67.37381
664.42        67.37211
664.85        67.30938
665.27        67.14766
665.70        66.94765
666.13        66.84472
666.55        66.87366
666.98        66.98298
667.41        67.13246
667.83        67.25964
668.26        67.32181
668.69        67.33493
669.11        67.32599
669.54        67.35278
669.96        67.41336
670.39        67.45284
670.82        67.46007
671.24        67.39449
671.67        67.29236
672.09        67.28404
672.52        67.35847
672.94        67.32806
673.37        67.19082
673.80        67.04243
674.22        66.93391
674.65         66.8713
675.07        66.88303
675.50        66.95245
675.92        67.04311
676.35        67.08532
676.77        67.06623
677.20        66.99899
677.62         66.9233
678.05        66.89133
678.47        66.91688
678.90        66.98757
679.32        67.06818
679.75         67.1277
680.17        67.14542
680.60         67.1306
681.02        67.10619
681.45        67.07992
681.87        67.06839
682.30        67.10061
682.72        67.15766
683.15        67.07382
683.57        66.89977
684.00        66.87795
684.42          67.007
684.85         67.0947
685.27         67.1139
685.70        67.18754
686.12        67.27206
686.54         67.2412
686.97        67.07758
687.39          66.913
687.82        66.75657
688.24        66.46748
688.66        66.15537
689.09        66.22825
689.51        66.64603
689.94        66.89954
690.36        66.94721
690.78        67.08839
691.21        67.33533
691.63        67.46674
692.06        67.53793
692.48        67.86801
692.90        68.33824
693.33        68.48309
693.75        68.27163
694.17        67.87666
694.60        67.46301
695.02        67.28664
695.44        67.34624
695.87         67.4017
696.29        67.40186
696.71        67.30502
697.14        67.17648
697.56        67.30524
697.98        67.64087
698.41        67.78713
698.83        67.73566
699.25        67.77943
699.68        67.89581
700.10        67.93945
700.52        67.89852
700.94        67.79717
701.37        67.68661
701.79         67.7492
702.21        67.92758
702.64        68.01958
703.06        68.00118
703.48        67.90233
703.90         67.7047
704.33        67.81543
704.75        67.43095
705.17        67.38915
705.59        67.45827
706.01        67.60073
706.44        67.78509
706.86        67.98726
707.28        68.16911
707.70        68.37298
708.12        68.54008
708.55        68.47047
708.97        68.20112
709.39        67.99097
709.81        67.89689
710.23        67.82551
710.66        67.79819
711.08        67.91944
711.50         68.1309
711.92        68.28937
712.34        68.36459
712.76        68.40037
713.19        68.38183
713.61        68.33633
714.03        68.25724
714.45        68.13451
714.87        68.02493
715.29        68.01993
715.71        68.13085
716.13        68.33867
716.56        68.53641
716.98        68.62306
717.40        68.53759
717.82        68.32335
718.24        68.08434
718.66        67.98846
719.08        68.07216
719.50        68.27677
719.92        68.51399
720.34        68.64087
720.76        68.61539
721.19        68.48738
721.61        68.30946
722.03         68.1535
722.45        68.05785
722.87          68.013
723.29        68.01778
723.71        68.07348
724.13        68.17066
724.55        68.29209
724.97        68.45195
725.39        68.66959
725.81        68.92765
726.23        69.21133
726.65        69.41109
727.07        69.35822
727.49        69.03884
727.91        68.51875
728.33        67.97675
728.75         67.6963
729.17        67.74387
729.59        68.03822
730.01        68.43826
730.43        68.69093
730.85        68.72012
731.27          68.617
731.69        68.44628
732.10        68.30742
732.52        68.23883
732.94        68.18537
733.36        68.18413
733.78        68.27645
734.20        68.44245
734.62        68.76958
735.04        69.13476
735.46        69.06313
735.88        68.66226
736.30        68.62937
736.72        68.91286
737.13         68.9509
737.55        68.71869
737.97           68.37
738.39        68.08887
738.81        68.51221
739.23        69.44098
739.65        69.60087
740.06        68.99347
740.48         68.8204
740.90        69.07647
741.32        69.09078
741.74        68.85074
742.16        68.69067
742.57        68.63585
742.99        68.64632
743.41        68.73147
743.83        68.74723
744.25        68.74741
744.67        69.06908
745.08        69.60136
745.50        69.76161
745.92        69.50672
746.34        69.11301
746.75         68.6978
747.17          68.387
747.59        68.22267
748.01        68.17934
748.42        68.24017
748.84        68.33673
749.26        68.45293
749.68        68.60523
750.09        68.75423
750.51        68.85758
750.93        68.89808
751.35        68.87234
751.76        68.83273
752.18         68.8661
752.60        68.99392
753.01        69.20873
753.43        69.41756
753.85        69.51168
754.27         69.4697
754.68        69.33099
755.10        69.19311
755.52        69.20222
755.93        69.38113
756.35        69.67295
756.77         69.9857
757.18        70.15071
757.60        70.13214
758.02        70.03474
758.43        69.87749
758.85        69.63275
759.26        69.37193
759.68        69.32652
760.10        69.47964
760.51          69.519
760.93        69.40276
761.34        69.38714
761.76        69.47129
762.18        69.37474
762.59         69.1919
763.01        69.28228
763.42        69.65031
763.84         69.7889
764.26        69.68375
764.67        69.56909
765.09          69.506
765.50        69.38736
765.92         69.2614
766.33        69.13204
766.75        68.98653
767.16        69.17041
767.58        69.35098
768.00        69.70856
768.41        70.11076
768.83        70.57467
769.24        71.01871
769.66        71.16261
770.07        71.04509
770.49        71.03982
770.90        71.14458
771.32          71.008
771.73        70.67356
772.15        70.48958
772.56        70.51652
772.97        70.37491
773.39        70.46973
773.80        70.51167
774.22        70.58739
774.63         70.7181
775.05        70.84714
775.46        70.94844
775.88         70.9743
776.29        70.95589
776.70        70.92336
777.12        70.95097
777.53        71.07108
777.95        71.24511
778.36        71.40421
778.77        71.40868
779.19        71.23714
779.60        70.94317
780.02         70.6324
780.43        70.47196
780.84        70.51802
781.26        70.70576
781.67        70.94368
782.09        71.12247
782.50        71.15121
782.91        70.85876
783.33        70.40384
783.74        70.29472
784.15        70.60352
784.57        71.04276
784.98        71.55036
785.39        72.07278
785.81        72.54173
786.22        72.74295
786.63         73.0445
787.04        73.02949
787.46        72.86544
787.87        72.53038
788.28        72.19762
788.70        72.10885
789.11        72.27795
789.52        72.65296
789.93        73.07642
790.35         73.2743
790.76        73.20038
791.17        72.92467
791.58        72.54922
792.00        72.26999
792.41        72.16788
792.82        72.03323
793.23        71.87016
793.65        72.09406
794.06        72.52226
794.47        72.23678
794.88        71.47588
795.29        71.30294
795.71        71.69898
796.12        72.20961
796.53        72.62493
796.94        72.82352
797.35        72.70123
797.76        72.30798
798.18        71.86069
798.59         71.6581
799.00        71.78483
799.41        72.14507
799.82        72.61274
800.23        72.96936
800.64        73.13151
801.06        73.14538
801.47        73.07407
801.88        72.91973
802.29        72.71803
802.70        72.46603
803.11        72.23174
803.52        72.13182
803.93        72.20082
804.34        72.41351
804.75        72.72233
805.17        73.06917
805.58        73.45435
805.99        73.68223
806.40         73.7387
806.81        74.01661
807.22        74.33195
807.63        73.78242
808.04        72.61198
808.45        72.05807
808.86        72.26021
809.27        72.59803
809.68        72.89839
810.09        73.11568
810.50        73.16631
810.91        73.08567
811.32         72.9292
811.73        72.78627
812.14        72.70198
812.55        72.63941
812.96        72.65879
813.37        72.86559
813.78        73.25396
814.19        73.78066
814.60        74.29845
815.01         74.5807
815.42        74.57657
815.83        74.33858
816.24         73.9671
816.65        73.67219
817.05        73.54644
817.46        73.51783
817.87        73.56351
818.28         73.5957
818.69        73.58399
819.10        73.56052
819.51        73.54263
819.92        73.55046
820.33         73.5844
820.74        73.62055
821.14        73.62751
821.55        73.59463
821.96        73.51366
822.37        73.42097
822.78        73.34142
823.19        73.31382
823.60        73.36264
824.00        73.49049
824.41        73.69557
824.82        74.08556
825.23        74.63843
825.64        75.28928
826.04        75.89679
826.45         76.1476
826.86        75.99751
827.27        75.54241
827.68        74.89124
828.08        74.25613
828.49        73.70356
828.90        73.20734
829.31        72.86699
829.72        72.81908
830.12        73.10535
830.53         73.6761
830.94        74.31175
831.35        74.55177
831.75        74.30086
832.16        73.63072
832.57        72.92608
832.97        72.77969
833.38        73.29237
833.79        74.27175
834.20        75.35416
834.60        75.91628
835.01         75.7556
835.42        75.11058
835.82        74.25306
836.23        73.59436
836.64        73.27646
837.04        73.18207
837.45        73.24855
837.86        73.44194
838.26        73.72232
838.67        74.07915
839.08        74.41615
839.48        74.53011
839.89        74.37035
840.29        73.99079
840.70        73.53003
841.11        73.18521
841.51        73.03674
841.92        73.01339
842.33        73.11156
842.73        73.32437
843.14        73.57726
843.54        73.92441
843.95        74.26332
844.35         74.4963
844.76        74.56188
845.17        74.47433
845.57        74.31873
845.98         74.2308
846.38        74.26428
846.79        74.36576
847.19        74.47303
847.60        74.39188
848.00        74.11744
848.41         73.7085
848.81        73.31048
849.22        73.12025
849.62         73.1987
850.03        73.44775
850.43        73.78609
850.84        73.92699
851.24        73.86021
851.65         73.6334
852.05        73.38279
852.46        73.28336
852.86        73.36492
853.27         73.5649
853.67        73.80531
854.07         74.1681
854.48          74.578
854.88         75.1318
855.29        75.53979
855.69        75.53918
856.10        74.95712
856.50        73.97984
856.90        72.96146
857.31        72.42944
857.71        72.48928
858.12         72.9463
858.52        73.61832
858.92        73.93765
859.33        73.71066
859.73        73.15833
860.13        72.41592
860.54        71.72411
860.94        71.18066
861.34        70.69206
861.75        70.31949
862.15        70.22822
862.55         70.4146
862.96        70.84705
863.36        71.34443
863.76        71.50734
864.17         71.2522
864.57        70.69695
864.97        70.08842
865.38        69.85441
865.78         70.1232
866.18        70.73152
866.58        71.44825
866.99        71.85323
867.39        71.84798
867.79        71.58458
868.19        71.16295
868.60        70.69149
869.00        70.22826
869.40        69.71843
869.80        69.36163
870.21        69.52195
870.61        70.28477
871.01         71.4703
871.41        72.60719
871.81        72.98061
872.22        72.45253
872.62        71.24146
873.02         69.7875
873.42        68.83749
873.82        68.63167
874.22        68.97914
874.63        69.60705
875.03         70.0639
875.43        70.21624
875.83         70.2122
876.23        70.21724
876.63        70.47758
877.03        71.03442
877.44         71.7354
877.84        72.42405
878.24        72.81407
878.64        72.82383
879.04        72.55601
879.44        72.14419
879.84        71.78522
880.24        71.54623
880.64        71.37794
881.04        71.27189
881.44        71.20142
881.84        71.16395
882.24        71.20885
882.65         71.2745
883.05         71.3486
883.45        71.37743
883.85        71.34181
884.25        71.36391
884.65        71.64076
885.05        72.19043
885.45        72.96026
885.85        73.69611
886.25        73.96294
886.65        73.66034
887.05         72.9127
887.45        72.07397
887.85        71.70216
888.25        71.92558
888.65        72.58351
889.04        73.33424
889.44        73.59645
889.84         73.2389
890.24         72.4407
890.64        71.53453
891.04        70.98821
891.44        70.91564
891.84        71.20971
892.24        71.57464
892.64        71.52032
893.04        70.95884
893.44        70.06322
893.83        69.26263
894.23        69.21288
894.63        69.98977
895.03        71.36324
895.43        72.82729
895.83        73.46172
896.23        73.03294
896.63        71.91779
897.02        70.54076
897.42        69.61186
897.82        69.26069
898.22        69.31171
898.62        69.72306
899.01         70.4552
899.41          71.369
899.81         72.4959
900.21        73.66953
900.61        74.58359
901.00        75.12171
901.40         75.2825
901.80        75.13175
902.20        74.82692
902.59        74.45728
902.99        74.01189
903.39         73.5672
903.79        73.23741
904.18        73.03528
904.58        72.96562
904.98         72.9875
905.38           73.02
905.77        73.03705
906.17        73.10807
906.57        73.13467
906.96        72.98163
907.36        72.62846
907.76        72.09711
908.15        71.69395
908.55        71.87373
908.95        72.70956
909.34        74.05975
909.74        75.39961
910.14        75.94998
910.53        75.52533
910.93        74.37737
911.33        73.00117
911.72        72.18027
912.12        72.15302
912.52        72.68732
912.91        73.44657
913.31        73.86117
913.70        73.76868
914.10        73.35976
914.49        72.88554
914.89         72.7016
915.29        72.90033
915.68        73.33736
916.08        73.81744
916.47         74.0614
916.87        73.98537
917.26        73.70079
917.66        73.35293
918.05        73.13992
918.45         73.1143
918.84        73.25664
919.24        73.47478
919.64         73.6898
920.03        73.87759
920.42        74.03477
920.82        74.20953
921.21        74.49933
921.61        74.87235
922.00        75.28288
922.40        75.58186
922.79        75.59969
923.19        75.28113
923.58        74.71931
923.98        74.01968
924.37        73.24638
924.77        72.48828
925.16         71.7481
925.55        71.15424
925.95        70.88588
926.34        71.01536
926.74        71.45579
927.13        72.17503
927.52        73.00638
927.92        73.84093
928.31        74.68757
928.70        75.40774
929.10        75.82497
929.49        75.92339
929.89        75.72268
930.28        75.36467
930.67        75.06287
931.07        74.87872
931.46        74.75158
931.85        74.68224
932.24        74.66055
932.64        74.66501
933.03        74.77202
933.42        74.79309
933.82        74.44105
934.21        73.69896
934.60        72.63922
934.99        71.68263
935.39        71.44235
935.78        72.06542
936.17         73.4261
936.56        74.95352
936.96        75.57927
937.35        75.05998
937.74        73.67783
938.13        72.17661
938.53        71.57015
938.92        71.99953
939.31        73.18558
939.70        74.57232
940.09        75.14636
940.49        74.62571
940.88        73.40218
941.27        71.99296
941.66        71.14392
942.05        71.06534
942.44        71.53449
942.84        72.31767
943.23        73.08196
943.62        73.60452
944.01        73.99163
944.40        74.29203
944.79        74.57658
945.18        74.86631
945.57        75.08807
945.97        75.18453
946.36        75.19971
946.75        75.11752
947.14        74.96093
947.53        74.78338
947.92        74.66109
948.31        74.61633
948.70        74.64041
949.09        74.69584
949.48        74.70274
949.87        74.66573
950.26        74.65813
950.65        74.69962
951.04        74.82675
951.43        75.04248
951.82        75.25327
952.21        75.56092
952.60         76.1611
952.99         77.0078
953.38        77.99324
953.77        78.70688
954.16        78.43475
954.55         77.0921
954.94        75.05554
955.33           72.83
955.72        71.16853
956.11        70.31763
956.50         70.0462
956.89        70.38518
957.28        71.36441
957.66        72.90736
958.05        74.88828
958.44        76.72894
958.83        77.30408
959.22        76.37504
959.61        74.32617
960.00         71.9559
960.39        70.43586
960.78        70.05009
961.16        70.51091
961.55        71.47437
961.94          72.449
962.33         73.1993
962.72        73.88976
963.11        74.40396
963.49        74.52304
963.88        74.18017
964.27        73.43733
964.66        72.55188
965.04        71.92791
965.43        71.63255
965.82        71.55184
966.21        71.60091
966.60        71.58639
966.98        71.46243
967.37        71.33827
967.76        71.15856
968.15        70.78952
968.53        70.26218
968.92        69.57846
969.31        69.08102
969.69        69.33793
970.08        70.37853
970.47        72.02399
970.86        73.72511
971.24        74.47395
971.63        73.92094
972.02        72.45776
972.40         70.5824
972.79        69.10021
973.17        68.30226
973.56        67.96985
973.95        68.06748
974.33        68.55017
974.72        69.28588
975.11        70.28555
975.49         71.4307
975.88        72.37717
976.26         73.0134
976.65        73.28441
977.04        73.08319
977.42        72.27032
977.81        70.91787
978.19        69.11483
978.58        67.61644
978.96        67.30206
979.35        68.30869
979.74         70.4883
980.12        73.28311
980.51        74.93262
980.89        75.05068
981.28        73.93098
981.66        72.35821
982.05         71.7439
982.43        72.41385
982.82        73.88369
983.20          75.787
983.59        77.32146
983.97        78.27345
984.35        78.83557
984.74        78.83876
985.12        78.14459
985.51        76.79121
985.89        74.79264
986.28         72.7635
986.66        71.53129
987.04        71.42179
987.43        72.27273
987.81        73.52617
988.20        73.98286
988.58        73.38254
988.96        71.90275
989.35        70.40263
989.73        70.24632
990.12        71.63447
990.50        74.16209
990.88        76.59706
991.27        76.96301
991.65        74.96039
992.03        71.33846
992.42        67.50845
992.80        65.36179
993.18        65.51309
993.56        67.35097
993.95        70.05334
994.33        72.46961
994.71        73.86005
995.10        74.53072
995.48        74.54268
995.86        73.98524
996.24        73.04524
996.63        71.73191
997.01        70.22052
997.39         68.8072
997.77        67.60468
998.15        66.58786
998.54        66.04762
998.92        66.44346
999.30        67.82574
999.68         70.0854
1000.06        72.46014
1000.45        73.58189
1000.83        73.18867
1001.21        71.46271
1001.59        69.23882
1001.97        68.07586
1002.35        68.44334
1002.73        69.89938
1003.12        71.73784
1003.50        72.71267
1003.88        72.52065
1004.26        71.65405
1004.64        70.55284
1005.02        69.79485
1005.40        69.57303
1005.78        69.66749
1006.16         70.0287
1006.54        70.61388
1006.92        71.28556
1007.30        71.96594
1007.69        72.44985
1008.07        72.62732
1008.45        72.35998
1008.83        71.76944
1009.21        70.74883
1009.59        69.12916
1009.97        67.04695
1010.35        64.66859
1010.73        62.71378
1011.11        62.40139
1011.49         64.0844
1011.86        67.64228
1012.24        72.10176
1012.62        75.95074
1013.00        78.44118
1013.38        79.68089
1013.76         79.9537
1014.14        80.05108
1014.52        80.27623
1014.90        80.34721
1015.28        79.98235
1015.66        78.85699
1016.04        77.14667
1016.41        75.29599
1016.79        73.78874
1017.17        72.82886
1017.55        72.28976
1017.93        71.97221
1018.31        71.64255
1018.69        70.88997
1019.06        69.78332
1019.44        68.81705
1019.82         67.9891
1020.20        67.05148
1020.58        65.92551
1020.95        64.46438
1021.33        63.27759
1021.71        63.69451
1022.09        66.24103
1022.46        70.34212
1022.84        74.61652
1023.22        77.50261
1023.60        78.56644
1023.97        78.18565
1024.35         76.4784
1024.73        73.86595
