SpectraSmart Spectrum 2.9.0.0
--------- Device Information -----------
Spectrum Name :  反射率_0
Saving Time :  2024/05/01 16:34:46
Spectro-Module Model Name : SE2030-DUVN
Spectro-Module Serial Number : OS361AC55029948
Wavelength Start : 200
Wavelength End : 1025
Wavelength Unit : Wavelength(nm)
Spectrum Unit : Reflectance(%)
-----------Spectrum Setting ------------
Integration Time : 20ms
Average : 10
Boxcar : 0
Background removal :  enabled
linearity correction :  enabled
SC :  disabled
Intensity correction :  disabled
DWT denoise :  enabled
savitzky-golay :  disabled
FFT :  disabled
Running average :  disabled
Kalman :  disabled
High pass :  disabled
---------------BEGIN--------------------
Wavelength(nm)             Reflectance(%)
200.29               0
200.75        186.0574
201.21        673.9326
201.67       -233.6039
202.13       -67.58432
202.58       -16.83284
203.04        12.17901
203.50        29.61839
203.96        37.28235
204.42        37.43945
204.88        24.65229
205.34        -341.873
205.80        91.66262
206.26        55.11516
206.72        12.09177
207.18       -176.3277
207.64        347.1263
208.10        157.4546
208.55        108.2444
209.01        82.72409
209.47        69.58038
209.93        63.42388
210.39        59.37742
210.85        57.12098
211.31        57.19119
211.77        62.58721
212.23       -3.268776
212.69        39.26561
213.14        54.46972
213.60        101.7515
214.06       -403.2555
214.52       -51.54557
214.98       -25.89239
215.44       -15.28432
215.90       -1.255633
216.36          163.67
216.81       -89.77454
217.27       -110.0599
217.73        155.1853
218.19        10.07307
218.65        -5.90159
219.11       -14.74502
219.57       -27.37675
220.02       -65.49049
220.48       -32.69208
220.94       -12.91126
221.40        -7.70133
221.86       -4.238105
222.32       0.8849593
222.77        8.962095
223.23        21.36174
223.69        37.33452
224.15         45.2014
224.61        39.96891
225.06        30.01402
225.52        22.48171
225.98        19.78454
226.44        21.09933
226.90        25.52665
227.36        32.17955
227.81        36.29624
228.27        35.35253
228.73        32.09894
229.19        29.25853
229.65        28.34583
230.10        29.22015
230.56        31.67559
231.02        34.70819
231.48        35.67308
231.93        33.75886
232.39        30.54264
232.85        28.20971
233.31        28.78827
233.77        31.80704
234.22        36.11276
234.68        40.24091
235.14        42.67947
235.60        43.25825
236.05        42.40974
236.51        40.51016
236.97        39.53708
237.43        40.98828
237.88        44.21738
238.34        47.80556
238.80        50.67947
239.26        52.76675
239.71        55.17071
240.17        56.83326
240.63        53.87553
241.08        45.21286
241.54        34.29303
242.00        27.44504
242.46        29.23397
242.91        41.31791
243.37        67.42613
243.83        113.3207
244.28        152.0929
244.74        148.2413
245.20        124.2698
245.66        102.2878
246.11        88.41852
246.57        79.10365
247.03        68.84029
247.48        53.22078
247.94        30.14765
248.40        6.578334
248.85        -9.83289
249.31       -11.50922
249.77       0.5871888
250.22        17.84519
250.68        34.49039
251.14        47.15994
251.59        55.10262
252.05        60.34962
252.51         65.1786
252.96        72.03231
253.42        85.14536
253.88        92.35162
254.33        84.91251
254.79        78.16745
255.25         74.5715
255.70        72.30112
256.16        71.35301
256.62        70.59129
257.07        69.28582
257.53        68.19915
257.99        67.19843
258.44        66.35904
258.90        66.28931
259.35        66.44022
259.81         66.8185
260.27        66.92817
260.72        66.22494
261.18        65.04546
261.63         63.4254
262.09        61.80359
262.55        60.18553
263.00        58.51735
263.46        56.91708
263.91        55.36444
264.37        54.18145
264.83        53.28677
265.28        52.60844
265.74        51.95986
266.19        50.80366
266.65        49.22668
267.11        47.31548
267.56        45.53452
268.02         44.7075
268.47        44.89771
268.93        45.78187
269.38        46.74272
269.84        46.73384
270.30        45.54329
270.75        43.52658
271.21        41.22478
271.66        39.32506
272.12        38.09655
272.57        37.25617
273.03        36.72067
273.48        36.30829
273.94        35.94801
274.39        35.68006
274.85        35.40618
275.31        34.89436
275.76        34.12146
276.22        33.20049
276.67        32.25263
277.13        31.57156
277.58        31.13997
278.04        30.90433
278.49        30.72029
278.95        30.48622
279.40        30.11643
279.86        29.69941
280.31        29.21883
280.77        28.74359
281.22        28.24677
281.68        27.76989
282.13        27.27462
282.59        26.79645
283.04        26.32052
283.50         25.9012
283.95        25.55421
284.41        25.35343
284.86        25.29017
285.32        25.34214
285.77        25.47535
286.22        25.68259
286.68        25.94444
287.13        26.23248
287.59        26.47982
288.04        26.53684
288.50        26.41355
288.95        26.12743
289.41        25.83849
289.86        25.69801
290.32        25.77319
290.77        26.02219
291.22        26.36293
291.68        26.65372
292.13        26.87165
292.59        27.10108
293.04         27.4398
293.50        28.08686
293.95        29.05332
294.40        30.26912
294.86        31.60698
295.31        32.87717
295.77        34.01681
296.22         35.0731
296.68        36.10218
297.13         37.1776
297.58        38.35494
298.04        39.63406
298.49        41.01553
298.95        42.53681
299.40        44.15561
299.85        45.84225
300.31        47.59103
300.76         49.3839
301.21        51.22633
301.67        53.13554
302.12        54.98973
302.58        56.62559
303.03        57.98098
303.48        59.13722
303.94        60.32975
304.39        61.81373
304.84        63.69545
305.30        65.87704
305.75        68.16486
306.20        70.27933
306.66        72.12753
307.11        73.73049
307.57         75.1826
308.02        76.52419
308.47        77.82567
308.93        79.07384
309.38        80.23849
309.83         81.3685
310.29        82.49047
310.74        83.59795
311.19        84.69698
311.65        85.76442
312.10         86.7714
312.55        87.71523
313.00        88.64306
313.46        89.63397
313.91        90.67872
314.36        91.74897
314.82         92.6964
315.27        93.29988
315.72        93.51211
316.18        93.44392
316.63        93.26115
317.08         93.2823
317.53        93.59084
317.99        94.10371
318.44        94.70914
318.89        95.19201
319.35        95.48582
319.80        95.67634
320.25        95.81966
320.70        96.00765
321.16        96.25945
321.61        96.54422
322.06        96.86515
322.51        97.25459
322.97        97.67905
323.42        98.16614
323.87        98.60588
324.32        98.83762
324.78        98.82329
325.23        98.64581
325.68        98.41228
326.13        98.32201
326.59        98.41992
327.04        98.70706
327.49        99.11076
327.94        99.52615
328.39        99.90562
328.85        100.2306
329.30        100.5913
329.75        100.9873
330.20        101.4193
330.66        101.8428
331.11        102.2403
331.56        102.4715
332.01        102.5283
332.46        102.4511
332.92        102.3734
333.37        102.6215
333.82        103.2406
334.27        104.1804
334.72        105.2408
335.17        106.0576
335.63        106.4883
336.08        106.6599
336.53          106.75
336.98        107.1186
337.43        107.8567
337.88        108.8569
338.34        109.8584
338.79        110.5144
339.24        110.6949
339.69        110.5235
340.14        110.2745
340.59        110.3756
341.05        110.9225
341.50        111.8025
341.95        112.7575
342.40        113.3701
342.85         113.548
343.30        113.4517
343.75        113.3237
344.20        113.5335
344.66        114.1642
345.11        115.0673
345.56        116.0945
346.01        116.9929
346.46        117.6601
346.91         118.188
347.36        118.5691
347.81        118.7916
348.26         118.895
348.72        118.8841
349.17         118.885
349.62        119.1787
350.07        119.7838
350.52        120.5871
350.97        121.3588
351.42        121.7089
351.87        121.5525
352.32         121.058
352.77        120.3363
353.22        119.5678
353.67        118.8456
354.13          118.13
354.58        117.5487
355.03        117.4108
355.48        117.7333
355.93        118.4767
356.38         119.212
356.83        119.2065
357.28         118.332
357.73        116.8155
358.18        115.2687
358.63         114.612
359.08        114.9961
359.53        116.1089
359.98        117.3548
360.43         117.735
360.88        116.9837
361.33        115.4506
361.78        113.6267
362.23        112.2132
362.68        111.4013
363.13        110.9758
363.58        110.7077
364.03        110.2544
364.48         109.508
364.93        108.5852
365.38        107.6494
365.83        106.9129
366.28        106.4103
366.73        106.0644
367.18        105.6504
367.63        104.8373
368.08        103.5995
368.53        102.0854
368.98        100.6297
369.43        99.70502
369.88        99.38791
370.33        99.52332
370.78        99.80891
371.23        99.71749
371.68        99.09625
372.13        98.12172
372.58        97.02684
373.03        96.15397
373.48        95.59049
373.93        95.20775
374.38        94.91682
374.83        94.59151
375.28        94.18114
375.72        93.72745
376.17        93.25163
376.62        92.71214
377.07        92.11277
377.52        91.45168
377.97         90.7853
378.42         90.2137
378.87        89.76069
379.32        89.40783
379.77        89.09179
380.22        88.70636
380.67          88.228
381.11         87.6929
381.56        87.16209
382.01        86.75713
382.46        86.50884
382.91        86.37746
383.36        86.28262
383.81        86.10168
384.26        85.80078
384.71        85.41302
385.15        84.98824
385.60        84.65654
386.05        84.42796
386.50        84.26324
386.95        84.09584
387.40        83.83568
387.85         83.4626
388.29        82.95627
388.74        82.47733
389.19        82.05856
389.64          81.715
390.09        81.42311
390.54        81.11938
390.98        80.72142
391.43        80.28739
391.88        79.75148
392.33        79.22163
392.78        79.07289
393.23        79.21455
393.67        79.02665
394.12        78.59611
394.57        78.49835
395.02        78.60996
395.47        78.15118
395.91        77.29311
396.36        76.88988
396.81        77.01342
397.26        77.29087
397.71        77.48096
398.15        77.35137
398.60        76.94515
399.05        76.20322
399.50        75.44688
399.95        75.35091
400.39        75.88411
400.84        76.31508
401.29        76.43223
401.74        76.39938
402.18        76.15533
402.63        75.48289
403.08        74.63013
403.53        74.09998
403.97        73.96416
404.42        74.07335
404.87        74.30163
405.32        74.38116
405.76        74.21709
406.21        74.16356
406.66        74.18146
407.11        73.61971
407.55         72.7866
408.00        72.98276
408.45        74.02106
408.90        74.35773
409.34        73.81182
409.79        73.12333
410.24        72.52372
410.68        72.14316
411.13        72.06522
411.58        72.17217
412.03        72.36378
412.47        72.53512
412.92        72.59874
413.37        72.58904
413.81        72.52859
414.26        72.51717
414.71        72.55191
415.15         72.6107
415.60        72.63354
416.05        72.59168
416.49        72.48027
416.94        72.31175
417.39        72.13616
417.83        72.00703
418.28        71.95349
418.73        71.98482
419.17        72.04898
419.62        72.06652
420.07        72.00053
420.51        71.83228
420.96         71.7161
421.41        71.71924
421.85        71.81289
422.30        72.29254
422.74         72.8687
423.19        72.53638
423.64        71.54603
424.08        71.51672
424.53        72.41385
424.98        72.80824
425.42        72.57879
425.87        72.69375
426.31        73.09085
426.76        72.69497
427.21        71.81007
427.65        72.03032
428.10         73.0607
428.54        73.28017
428.99        72.72026
429.44        71.86078
429.88         71.0982
430.33        71.81209
430.77         73.4249
431.22        73.36972
431.66        72.21838
432.11        71.55521
432.56        71.65942
433.00        72.21191
433.45        73.13959
433.89        72.61875
434.34        72.00297
434.78        73.80098
435.23        73.12938
435.67        72.83493
436.12        71.78128
436.57        72.17247
437.01        73.76476
437.46        74.48472
437.90        74.09402
438.35        74.00861
438.79        74.20685
439.24        73.98415
439.68        73.44823
440.13        73.31981
440.57        73.64401
441.02        73.82337
441.46        73.77164
441.91        74.43443
442.35          74.803
442.80        74.69608
443.24        74.18388
443.69        74.02529
444.13        74.29144
444.58         74.3958
445.02        74.33651
445.47        74.49867
445.91          74.842
446.36        75.12931
446.80        75.31759
447.24        75.47536
447.69        75.60456
448.13         75.6876
448.58        75.74422
449.02        75.74371
449.47          75.721
449.91        75.69429
450.36        75.69131
450.80        75.68459
451.25        75.68181
451.69         75.6481
452.13         75.5899
452.58        75.52203
453.02         75.4379
453.47        75.37907
453.91         75.3382
454.36        75.26337
454.80        75.16238
455.24        75.04656
455.69        75.20161
456.13        74.73174
456.58        74.02218
457.02         73.5413
457.46        73.81638
457.91        74.33363
458.35        74.92989
458.79        75.01995
459.24        74.53187
459.68        73.90259
460.13        73.50589
460.57        72.39482
461.01        72.72295
461.46        72.91865
461.90        73.35249
462.34         73.2074
462.79        72.47366
463.23        72.45773
463.68        73.02902
464.12        73.15939
464.56        72.81374
465.01        72.63405
465.45        72.59985
465.89        72.66953
466.34        72.68952
466.78        72.74703
467.22        71.79379
467.67        71.62534
468.11        71.71994
468.55        71.89952
468.99        71.98702
469.44         72.0266
469.88         72.0063
470.32        71.90767
470.77        71.77151
471.21        71.68037
471.65        71.63691
472.10        71.62433
472.54        71.61704
472.98        71.57057
473.42        71.46507
473.87        71.45635
474.31        71.47441
474.75        71.17358
475.20         70.7021
475.64        70.77225
476.08        71.27047
476.52        71.36684
476.97        70.98606
477.41        71.15362
477.85        70.22556
478.29        71.01855
478.74        71.08736
479.18        71.22895
479.62        70.47611
480.06        70.31671
480.50        70.66967
480.95        69.90895
481.39         70.4537
481.83        69.84569
482.27        70.18774
482.72        70.43272
483.16        70.09419
483.60        70.07894
484.04         70.6741
484.48        70.79214
484.93         70.7566
485.37        71.67917
485.81        71.12668
486.25         71.8299
486.69        71.52322
487.14        69.28599
487.58        68.48846
488.02         70.7855
488.46        69.67606
488.90        69.67865
489.34        70.54311
489.79        70.10528
490.23        70.15408
490.67        69.89197
491.11        69.84619
491.55        69.99516
491.99        70.24693
492.43        70.30837
492.88        70.12997
493.32        69.92467
493.76        69.76212
494.20        69.69168
494.64        69.73453
495.08        69.83506
495.52        69.95515
495.96        70.04084
496.41        70.02087
496.85        69.91112
497.29        69.75909
497.73        69.25711
498.17        69.28956
498.61        69.17099
499.05        69.17278
499.49        69.44221
499.93        69.83962
500.37        69.88547
500.82        69.63569
501.26        69.57292
501.70        69.70156
502.14        70.06611
502.58        69.96008
503.02        69.94353
503.46         69.8206
503.90        69.59273
504.34        69.36679
504.78        69.31917
505.22        69.46791
505.66        69.81469
506.10        70.22646
506.54        70.27817
506.98        69.87489
507.42        69.90738
507.86        69.15657
508.30        68.95467
508.74        68.95772
509.18        69.12409
509.62        69.36404
510.06        69.55863
510.50        69.66872
510.94        69.71705
511.38        69.71422
511.82        69.67294
512.26         69.6013
512.70        69.48511
513.14        69.34302
513.58         69.2126
514.02         69.1087
514.46        69.03886
514.90        68.98978
515.34         68.9324
515.78        68.86459
516.22        68.79575
516.66        68.76138
517.10        68.81423
517.54        68.95728
517.98        69.16738
518.42        69.38173
518.86        69.49963
519.30         69.4966
519.74        69.39951
520.18        69.26757
520.62         69.1991
521.06        69.21479
521.50        69.27678
521.93        69.34549
522.37        69.34507
522.81        69.26428
523.25        69.14458
523.69          68.995
524.13        68.82416
524.57        68.65083
525.01        68.47214
525.45        68.34905
525.89        68.37747
526.32        68.56245
526.76        68.87015
527.20         69.1917
527.64        69.35236
528.08        69.31113
528.52        69.12195
528.96        68.87814
529.40        68.73047
529.83        68.71152
530.27        68.78836
530.71        68.90711
531.15        68.99965
531.59        69.04211
532.03        69.05935
532.46        69.04784
532.90        69.02053
533.34        68.98699
533.78        68.89115
534.22        68.75921
534.66         68.7544
535.09        68.81998
535.53        68.69924
535.97        68.43602
536.41        68.34422
536.85        68.43977
537.28        68.54977
537.72        68.63512
538.16        68.69838
538.60        68.72128
539.04        68.70581
539.47        68.65456
539.91        68.61162
540.35        68.56912
540.79         68.5408
541.22        68.53587
541.66        68.47163
542.10        68.52358
542.54        68.55499
542.97        68.58124
543.41        68.58567
543.85         68.5367
544.29        68.45262
544.72        68.36623
545.16        68.35909
545.60        68.42432
546.04        68.57612
546.47        68.74078
546.91        68.70428
547.35        68.50539
547.79        68.40272
548.22        68.36638
548.66        68.29565
549.10        68.20079
549.53        67.87817
549.97        67.95509
550.41        67.98693
550.84        68.13709
551.28        68.41339
551.72        68.75197
552.15        68.89999
552.59        68.82343
553.03        69.02271
553.46        68.75309
553.90        68.72655
554.34        68.74754
554.77        68.62525
555.21        68.33678
555.65        68.71169
556.08        68.49434
556.52        68.33806
556.96        67.96402
557.39        67.83186
557.83        67.98074
558.27         68.0973
558.70        68.12788
559.14        68.40717
559.57         68.3121
560.01        68.44646
560.45        68.52439
560.88        68.43523
561.32        68.06049
561.75        67.74678
562.19         67.5851
562.63        67.94067
563.06        68.56094
563.50        68.50111
563.93        67.61179
564.37        67.40506
564.80        67.79749
565.24        68.18066
565.68        68.39234
566.11        68.35853
566.55        68.15301
566.98        68.04734
567.42         68.1291
567.85         68.2243
568.29        68.31918
568.72          68.448
569.16        68.64732
569.60        68.63557
570.03        68.31599
570.47        68.66054
570.90        68.49016
571.34         67.9389
571.77          68.212
572.21        68.28809
572.64        68.63322
573.08        68.25737
573.51         68.5142
573.95        69.08018
574.38        67.94324
574.82         68.5236
575.25        68.93375
575.69        69.15698
576.12        68.83533
576.56        68.02357
576.99        68.64871
577.42        68.64812
577.86        68.52674
578.29        68.58034
578.73        69.43439
579.16        68.47712
579.60        68.03669
580.03        67.77866
580.47        68.63298
580.90        67.66568
581.33        68.75483
581.77        69.08224
582.20        69.22285
582.64        68.93578
583.07        68.68701
583.51        68.24001
583.94        68.04225
584.37        68.29074
584.81        68.93798
585.24        69.01745
585.68        68.48145
586.11        68.88901
586.54        68.45176
586.98        68.09821
587.41        67.86275
587.85         68.5744
588.28        68.93506
588.71        67.48996
589.15        68.50457
589.58        67.95226
590.01        67.70525
590.45        67.79185
590.88        68.30814
591.31         68.5615
591.75        68.33885
592.18        68.29739
592.61        67.61211
593.05        67.82236
593.48        67.87456
593.91        68.54435
594.35        67.70292
594.78        67.70419
595.21        67.85887
595.65         68.5157
596.08        68.29067
596.51        67.91445
596.94        67.81328
597.38        67.68391
597.81        67.86377
598.24        67.60773
598.68        68.06133
599.11        67.75975
599.54        68.71952
599.97        68.12084
600.41        67.90739
600.84        67.94072
601.27        67.93421
601.70        68.42969
602.14        68.69333
602.57        68.39141
603.00        67.85911
603.43        67.51038
603.87        67.95055
604.30        67.97617
604.73        67.79503
605.16        67.50453
605.60        67.54865
606.03        67.81283
606.46        68.18486
606.89        68.02039
607.32        67.55502
607.76        67.36601
608.19        67.56458
608.62        68.17227
609.05        68.16434
609.48        68.33501
609.92        67.86357
610.35        67.23135
610.78        68.50024
611.21        68.61017
611.64        68.24366
612.07        68.24548
612.50        68.66264
612.94        68.36904
613.37        68.21513
613.80        68.04383
614.23         67.8798
614.66        68.08575
615.09        67.58448
615.52        67.60551
615.96        67.77502
616.39        67.94738
616.82         68.1246
617.25        67.87114
617.68         68.2197
618.11        68.16888
618.54        68.03216
618.97        67.82631
619.40        67.64561
619.84        67.53071
620.27        67.49545
620.70        67.79041
621.13        68.34586
621.56        67.89039
621.99        67.54992
622.42        67.84323
622.85        67.85709
623.28        67.86821
623.71        67.83769
624.14        67.98412
624.57          68.109
625.00        68.18591
625.43        68.13751
625.86        68.02267
626.29        67.95558
626.72        67.71783
627.15        67.67386
627.58        67.45154
628.01        67.21786
628.44        67.37471
628.87        67.80077
629.30        67.76707
629.73        67.34403
630.16        67.30833
630.59        67.64757
631.02        67.78943
631.45        67.69856
631.88        67.66489
632.31        67.68935
632.74        67.63891
633.17        67.54145
633.60        67.49149
634.03        67.50169
634.46        67.55353
634.89        67.61795
635.32        67.64011
635.75        67.60625
636.18         67.5369
636.61        67.45584
637.04        67.40053
637.47        67.38834
637.89        67.39671
638.32        67.38264
638.75        67.38387
639.18         67.4089
639.61        67.17829
640.04        67.22078
640.47        67.16649
640.90        67.17398
641.33        67.20549
641.76        67.22868
642.18        67.28356
642.61        67.36037
643.04        67.30891
643.47        67.07687
643.90        67.53082
644.33         67.2198
644.76        67.21077
645.18        67.13066
645.61        67.32935
646.04        67.70126
646.47        67.69582
646.90        67.37128
647.33        67.28535
647.75        67.46117
648.18         67.5387
648.61        67.50912
649.04        67.51587
649.47        67.51731
649.89        67.51758
650.32        67.47105
650.75        67.12431
651.18        66.65109
651.61        66.74705
652.03        67.35481
652.46        67.56565
652.89        67.28666
653.32        67.19751
653.74        67.51447
654.17        66.99519
654.60         67.5031
655.03        68.10894
655.46        66.56966
655.88         67.1917
656.31         74.4799
656.74        72.60085
657.16        66.58109
657.59        65.35258
658.02        66.79589
658.45        67.40663
658.87        67.77127
659.30         66.7671
659.73        67.10754
660.15        67.70285
660.58        67.07204
661.01        66.88619
661.44         66.6175
661.86        66.63385
662.29        66.89856
662.72         67.2128
663.14        67.51281
663.57        67.67983
664.00         67.7068
664.42        67.70237
664.85        67.67702
665.27        67.50119
665.70        67.25079
666.13        67.13194
666.55        67.18595
666.98         67.3381
667.41        67.53931
667.83        67.70953
668.26        67.80042
668.69        67.84164
669.11        67.84194
669.54         67.8385
669.96        67.83226
670.39        67.74239
670.82        67.61607
671.24        67.57957
671.67        67.64562
672.09        67.75246
672.52        67.84864
672.94        67.82047
673.37        67.65634
673.80        67.39185
674.22        67.11779
674.65        66.95394
675.07        66.95525
675.50        67.06197
675.92        67.22457
676.35        67.37421
676.77         67.4719
677.20        67.48601
677.62        67.44768
678.05        67.43766
678.47        67.46733
678.90        67.49762
679.32        67.50574
679.75        67.49701
680.17        67.46479
680.60        67.41818
681.02         67.3751
681.45        67.34682
681.87        67.34959
682.30        67.36544
682.72        67.39815
683.15         67.4182
683.57         67.4272
684.00           67.43
684.42         67.4229
684.85        67.41383
685.27         67.3952
685.70        67.35969
686.12        67.29244
686.54        67.24513
686.97        67.23845
687.39        67.08191
687.82        67.27747
688.24        67.12589
688.66        66.79545
689.09        66.80902
689.51        67.13866
689.94        67.30598
690.36        67.28771
690.78        67.38197
691.21        67.61345
691.63        67.77779
692.06        67.92958
692.48        68.38791
692.90        68.99885
693.33        69.22923
693.75        69.02425
694.17          68.569
694.60        68.06527
695.02        67.80076
695.44         67.7827
695.87        67.85348
696.29        67.92213
696.71        67.65725
697.14        67.22297
697.56        67.44021
697.98        68.18079
698.41         68.4706
698.83         68.2747
699.25        68.22396
699.68        68.34286
700.10        68.39677
700.52        68.38499
700.94        68.35972
701.37        68.33816
701.79        68.44348
702.21        68.60809
702.64        68.62991
703.06        68.50198
703.48        68.33394
703.90        68.13113
704.33        68.09122
704.75         67.7538
705.17        67.67982
705.59        67.74007
706.01        67.89437
706.44        68.11013
706.86        68.35199
707.28        68.57409
707.70        68.81481
708.12        69.02121
708.55        69.01352
708.97        68.82335
709.39        68.68673
709.81        68.64037
710.23        68.56949
710.66        68.49179
711.08         68.5233
711.50        68.62616
711.92        68.69288
712.34        68.70551
712.76        68.69506
713.19        68.66225
713.61        68.65769
714.03        68.66969
714.45        68.68116
714.87        68.69294
715.29        68.70932
715.71        68.72971
716.13        68.76051
716.56        68.76567
716.98         68.7725
717.40        68.75247
717.82         68.7037
718.24        68.66713
718.66        68.70988
719.08        68.83641
719.50        69.02233
719.92        69.19068
720.34        69.21721
720.76         69.0788
721.19        68.81988
721.61        68.53033
722.03        68.34452
722.45        68.30936
722.87         68.3989
723.29        68.56247
723.71         68.7128
724.13          68.814
724.55         68.8726
724.97        68.93259
725.39        69.06552
725.81        69.27411
726.23        69.52818
726.65         69.7175
727.07        69.67323
727.49        69.37747
727.91        68.89903
728.33        68.40494
728.75        68.15643
729.17        68.21404
729.59        68.50034
730.01        68.88269
730.43        69.12392
730.85        69.15552
731.27        69.06726
731.69        68.91891
732.10        68.80373
732.52        68.75376
732.94        68.70945
733.36        68.72292
733.78        68.84332
734.20         69.0568
734.62        69.49892
735.04        69.99044
735.46        69.89703
735.88        69.35464
736.30        69.20946
736.72        69.48384
737.13        69.66319
737.55        69.64428
737.97        69.45139
738.39        69.18894
738.81        69.29946
739.23        69.72157
739.65        69.82797
740.06        69.58302
740.48        69.52528
740.90        69.63663
741.32        69.65897
741.74        69.57809
742.16        69.52547
742.57        69.51472
742.99        69.46925
743.41        69.44121
743.83        69.56961
744.25        69.81818
744.67        70.00464
745.08        70.08247
745.50        70.04881
745.92        69.90884
746.34        69.62101
746.75        69.25228
747.17        68.98509
747.59        68.84491
748.01        68.79601
748.42        68.83701
748.84        68.92523
749.26        69.05264
749.68        69.22544
750.09        69.40639
750.51        69.55669
750.93        69.65572
751.35        69.70095
751.76         69.7233
752.18        69.77214
752.60        69.86279
753.01        69.99921
753.43         70.1166
753.85        70.15419
754.27        70.10328
754.68        69.98894
755.10        69.88311
755.52         69.8905
755.93        70.01949
756.35        70.22135
756.77        70.40382
757.18        70.45374
757.60        70.37027
758.02        70.18884
758.43        69.86236
758.85        69.93958
759.26        69.22325
759.68        69.39177
760.10        70.33302
760.51        70.79071
760.93        70.70229
761.34        70.49806
761.76        70.30367
762.18        69.90964
762.59        69.54485
763.01        69.80777
763.42        70.57737
763.84        70.87185
764.26        70.61713
764.67        70.21387
765.09        69.87919
765.50        69.84085
765.92        70.06637
766.33         70.0238
766.75        69.68542
767.16        69.71709
767.58        70.10229
768.00        70.40096
768.41        70.62509
768.83        71.10989
769.24         71.7269
769.66        71.99825
770.07        71.89789
770.49        71.62379
770.90        71.30868
771.32        71.21931
771.73         71.3316
772.15        71.27055
772.56        71.04679
772.97        70.89281
773.39        70.84823
773.80        70.98454
774.22         71.2252
774.63        71.39568
775.05        71.43026
775.46        71.50877
775.88        71.59297
776.29        71.57461
776.70        71.48253
777.12        71.46434
777.53        71.55444
777.95        71.68468
778.36        71.79386
778.77        71.75999
779.19        71.57158
779.60        71.28513
780.02        70.97374
780.43        70.80573
780.84        70.83441
781.26        70.84364
781.67        70.84139
782.09        71.20811
782.50        71.73775
782.91        71.54071
783.33        70.80492
783.74         70.6578
784.15        71.19244
784.57        71.75669
784.98        72.25545
785.39        72.76349
785.81        73.21384
786.22        73.35583
786.63        73.59589
787.04        73.56768
787.46        73.44373
787.87        73.18832
788.28        72.93205
788.70        72.84012
789.11        72.91834
789.52        73.15722
789.93        73.42585
790.35        73.49231
790.76        73.32798
791.17        72.98477
791.58        72.60563
792.00        72.41134
792.41        72.47102
792.82        72.68072
793.23        72.91918
793.65        73.10303
794.06        73.14087
794.47        72.81635
794.88         72.3392
795.29        72.21259
795.71        72.41624
796.12        72.84538
796.53        73.31456
796.94        73.48963
797.35         73.2894
797.76        72.96953
798.18        72.68539
798.59        72.50021
799.00        72.48174
799.41        72.63511
799.82        72.91936
800.23        73.22585
800.64        73.50579
801.06         73.7729
801.47        73.99335
801.88        74.00309
802.29        73.78539
802.70        73.37464
803.11        72.92795
803.52        72.70989
803.93        72.79478
804.34        73.11357
804.75        73.53481
805.17        73.87558
805.58        74.10897
805.99        74.04403
806.40        73.76765
806.81        73.94675
807.22        74.38281
807.63        73.85715
808.04         72.6082
808.45        72.11538
808.86        72.51415
809.27        73.02397
809.68        73.45959
810.09        73.83593
810.50        74.05733
810.91        74.12549
811.32        74.06432
811.73        73.92319
812.14        73.74233
812.55        73.50472
812.96        73.31669
813.37        73.36087
813.78        73.66331
814.19        74.17197
814.60        74.71617
815.01        75.02467
815.42        75.03152
815.83        74.80017
816.24        74.44059
816.65        74.17877
817.05        74.10612
817.46         74.1337
817.87        74.21762
818.28        74.24545
818.69        74.18193
819.10        74.06764
819.51        73.93916
819.92        73.85316
820.33        73.82938
820.74        73.84239
821.14        73.85016
821.55        73.82275
821.96        73.74381
822.37        73.64911
822.78        73.57604
823.19        73.58447
823.60        73.69791
824.00        73.90965
824.41        74.17413
824.82        74.53081
825.23        74.94678
825.64         75.3801
826.04        75.75777
826.45        75.88141
826.86        75.74118
827.27        75.40543
827.68        74.92513
828.08        74.41179
828.49         73.8988
828.90        73.38555
829.31        73.00951
829.72        72.96908
830.12        73.32458
830.53        74.00692
830.94        74.76125
831.35        75.06817
831.75        74.81547
832.16        74.09236
832.57        73.33047
832.97        73.19415
833.38        73.79575
833.79        74.91632
834.20        76.13692
834.60        76.74013
835.01        76.50011
835.42         75.6936
835.82         74.6412
836.23        73.82687
836.64        73.41846
837.04        73.27973
837.45        73.34408
837.86        73.57005
838.26        73.90626
838.67        74.34099
839.08        74.75582
839.48        74.90929
839.89        74.73869
840.29        74.30377
840.70        73.75245
841.11         73.3019
841.51        73.04352
841.92        72.90501
842.33        72.89749
842.73        73.03498
843.14        73.25115
843.54        73.60497
843.95         73.9798
844.35        74.24755
844.76        74.33871
845.17        74.27071
845.57        74.15163
845.98        74.15702
846.38        74.34396
846.79        74.63984
847.19        74.93472
847.60        74.95582
848.00         74.6712
848.41        74.15462
848.81        73.60131
849.22        73.28317
849.62        73.28463
850.03        73.50465
850.43        73.81505
850.84        73.84417
851.24        73.57389
851.65        73.08539
852.05        72.62734
852.46        72.55747
852.86         72.9196
853.27        73.55382
853.67        74.22709
854.07        74.82802
854.48        75.23963
854.88        75.60725
855.29        75.69604
855.69        75.37927
856.10        74.56916
856.50        73.44153
856.90        72.33471
857.31        71.73787
857.71        71.74333
858.12        72.17296
858.52        72.88467
858.92        73.36855
859.33        73.42191
859.73        73.22202
860.13        72.79655
860.54        72.23191
860.94        71.60715
861.34        70.89039
861.75        70.24469
862.15        70.01687
862.55        70.26028
862.96        70.87142
863.36        71.65366
863.76        72.18013
864.17        72.32037
864.57         72.1948
864.97        71.91703
865.38        71.69292
865.78        71.62788
866.18        71.63384
866.58        71.67388
866.99          71.702
867.39        71.72989
867.79        71.76958
868.19         71.8093
868.60        71.78803
869.00        71.68938
869.40        71.53106
869.80        71.35891
870.21        71.26458
870.61         71.3268
871.01        71.46107
871.41        71.58044
871.81         71.5535
872.22         71.3459
872.62        71.01107
873.02        70.62163
873.42        70.28915
873.82        70.07581
874.22        69.98634
874.63        70.00655
875.03        70.10623
875.43        70.27313
875.83        70.49372
876.23        70.82011
876.63        71.33725
877.03         72.0201
877.44        72.79004
877.84         73.4721
878.24        73.72813
878.64        73.49561
879.04        72.89722
879.44        72.16247
879.84        71.64491
880.24        71.43542
880.64         71.4285
881.04        71.54695
881.44        71.64567
881.84        71.67954
882.24        71.74077
882.65        71.74507
883.05        71.64748
883.45        71.42028
883.85        71.06746
884.25        70.83315
884.65        71.09186
885.05        71.88499
885.45        73.10677
885.85        74.37403
886.25        75.01988
886.65        74.85654
887.05        74.05145
887.45        73.04453
887.85        72.53757
888.25        72.71077
888.65        73.38169
889.04        74.14077
889.44        74.30305
889.84        73.73146
890.24        72.65041
890.64        71.54141
891.04        71.07871
891.44        71.40148
891.84        72.34201
892.24        73.37932
892.64        73.64162
893.04        72.93987
893.44         71.5399
893.83        70.15328
894.23        69.86135
894.63        70.82867
895.03        72.72302
895.43        74.73787
895.83        75.41811
896.23        74.42568
896.63        72.35773
897.02        70.03983
897.42        68.71384
897.82        68.58973
898.22        69.31198
898.62        70.52772
899.01        71.66341
899.41        72.41061
899.81        72.95905
900.21        73.38588
900.61        73.80568
901.00         74.2402
901.40        74.55148
901.80        74.66006
902.20        74.49948
902.59        74.09673
902.99          73.547
903.39        72.98498
903.79        72.59737
904.18        72.43232
904.58        72.44958
904.98        72.62634
905.38        72.93272
905.77        73.31778
906.17        73.80202
906.57        74.20423
906.96        74.24857
907.36        73.87991
907.76        73.18924
908.15        72.48917
908.55        72.24783
908.95        72.59454
909.34         73.4049
909.74        74.34504
910.14        74.93916
910.53        75.02724
910.93        74.73523
911.33        74.27039
911.72        73.95824
912.12        73.91316
912.52        74.03179
912.91        74.13103
913.31        73.91922
913.70        73.35773
914.10        72.57315
914.49         71.8453
914.89        71.56444
915.29        71.81781
915.68        72.48701
916.08        73.29068
916.47        73.77463
916.87        73.80576
917.26        73.51551
917.66        73.14352
918.05        73.05811
918.45         73.3372
918.84        73.89287
919.24         74.5165
919.64        74.92648
920.03        75.04648
920.42        74.96079
920.82        74.81395
921.21        74.83901
921.61        75.05289
922.00        75.36789
922.40         75.6677
922.79        75.83001
923.19        75.78619
923.58        75.61761
923.98        75.30135
924.37        74.71973
924.77        73.93582
925.16        72.97898
925.55        72.12421
925.95        71.82206
926.34         72.2022
926.74        73.08514
927.13        74.22923
927.52        75.13382
927.92        75.61564
928.31        75.79902
928.70        75.74252
929.10        75.59041
929.49        75.43591
929.89        75.22272
930.28        74.98561
930.67        74.75368
931.07        74.53179
931.46        74.32581
931.85        74.20991
932.24        74.28001
932.64        74.53291
933.03        74.98441
933.42        75.36421
933.82        75.27647
934.21        74.67239
934.60        73.64795
934.99        72.67946
935.39         72.4744
935.78        73.19126
936.17        74.65446
936.56         76.2276
936.96        76.72989
937.35        75.90498
937.74         74.1282
938.13        72.18362
938.53        71.10076
938.92        71.05297
939.31        71.77216
939.70        72.83982
940.09        73.48845
940.49        73.46776
940.88        73.04834
941.27        72.53011
941.66        72.36513
942.05        72.66373
942.44        73.22923
942.84        73.86141
943.23         74.3243
943.62        74.46333
944.01        74.41478
944.40        74.20895
944.79        73.88017
945.18        73.48505
945.57        72.99327
945.97        72.58254
946.36        72.63506
946.75        73.16676
947.14         74.0997
947.53        75.07632
947.92        75.44237
948.31        75.03847
948.70         74.0777
949.09        72.99416
949.48        72.44997
949.87        72.62096
950.26        73.33063
950.65        74.30909
951.04        75.07254
951.43        75.43037
951.82        75.48906
952.21        75.42364
952.60        75.51222
952.99        75.79712
953.38        76.14857
953.77         76.3487
954.16        76.04433
954.55        75.20918
954.94        74.08238
955.33        72.92043
955.72         72.0829
956.11        71.67844
956.50        71.55458
956.89        71.75705
957.28        72.36115
957.66        73.34363
958.05        74.56923
958.44        75.59525
958.83        75.57143
959.22        74.36462
959.61        72.32373
960.00        70.15385
960.39        68.84671
960.78        68.63187
961.16        69.28336
961.55        70.42253
961.94        71.50315
962.33        72.28298
962.72        72.89262
963.11        73.34719
963.49        73.68246
963.88        73.84947
964.27         73.8018
964.66        73.53716
965.04        73.10303
965.43        72.52885
965.82        71.82964
966.21         71.1442
966.60        70.70377
966.98        70.61439
967.37        70.84589
967.76        71.22054
968.15         71.3923
968.53        71.27601
968.92        70.92587
969.31        70.59135
969.69        70.69028
970.08        71.25253
970.47        72.13823
970.86        72.98672
971.24        73.17931
971.63        72.49942
972.02        71.22405
972.40        69.73825
972.79        68.64224
973.17         68.1426
973.56        68.09876
973.95        68.36264
974.33        68.71581
974.72        69.01051
975.11        69.24802
975.49        69.60458
975.88        70.33097
976.26        71.48695
976.65        72.89209
977.04        73.93291
977.42        73.64639
977.81        71.94577
978.19        69.17947
978.58        66.64538
978.96        66.03444
979.35        67.66679
979.74         71.1735
980.12        75.55196
980.51        78.11795
980.89        78.12939
981.28        76.14298
981.66        73.40347
982.05         72.0518
982.43        72.65093
982.82        74.51155
983.20        77.04346
983.59        79.06575
983.97        80.21987
984.35        80.81983
984.74        80.81733
985.12        80.24074
985.51          79.159
985.89        77.49219
986.28        75.70177
986.66        74.40686
987.04        73.88435
987.43        74.03357
987.81        74.48309
988.20        74.34637
988.58        73.46957
988.96        71.98212
989.35        70.55833
989.73        70.23964
990.12        71.16879
990.50        73.06252
990.88        74.92839
991.27        75.17776
991.65        73.58291
992.03        70.71779
992.42        67.75425
992.80        66.24442
993.18        66.68989
993.56        68.55978
993.95        71.10137
994.33        73.28922
994.71         74.4746
995.10        74.98197
995.48        74.86877
995.86        74.22958
996.24         73.2506
996.63        71.89141
997.01        70.49232
997.39        69.59248
997.77        69.29247
998.15        69.51139
998.54        70.02989
998.92        70.39921
999.30        70.44701
999.68        70.30395
1000.06        70.02703
1000.45        69.67271
1000.83        69.44308
1001.21        69.26765
1001.59        69.22337
1001.97        69.47418
1002.35        70.02075
1002.73        70.72975
1003.12        71.58723
1003.50        72.50259
1003.88        73.37991
1004.26        74.22488
1004.64        74.65697
1005.02        74.11051
1005.40         72.5821
1005.78         70.2709
1006.16          67.902
1006.54        66.79282
1006.92        67.30576
1007.30        69.04774
1007.69         71.2328
1008.07        72.74833
1008.45        73.13905
1008.83        72.80752
1009.21        72.01236
1009.59        71.19744
1009.97        70.61354
1010.35        70.09073
1010.73         69.9698
1011.11        70.87646
1011.49        72.96609
1011.86        76.36752
1012.24        80.18639
1012.62        83.12611
1013.00        84.60758
1013.38        84.63045
1013.76        83.97647
1014.14        84.28262
1014.52        86.00712
1014.90        88.74702
1015.28        91.08417
1015.66        90.58485
1016.04        87.12414
1016.41        82.09632
1016.79        77.49365
1017.17        74.90927
1017.55        74.36163
1017.93        75.44489
1018.31        77.42532
1018.69        78.00202
1019.06        76.26659
1019.44        73.52605
1019.82        71.17879
1020.20        70.19483
1020.58         70.5173
1020.95        71.79556
1021.33        73.73197
1021.71        75.07748
1022.09         75.0517
1022.46        73.89725
1022.84        72.37536
1023.22        71.92458
1023.60        72.80274
1023.97        74.62202
1024.35        76.34033
1024.73        76.17168
