SpectraSmart Spectrum 2.9.0.0
--------- Device Information -----------
Spectrum Name :  反射率_0
Saving Time :  2024/05/01 16:35:19
Spectro-Module Model Name : SE2030-DUVN
Spectro-Module Serial Number : OS361AC55029948
Wavelength Start : 200
Wavelength End : 1025
Wavelength Unit : Wavelength(nm)
Spectrum Unit : Reflectance(%)
-----------Spectrum Setting ------------
Integration Time : 20ms
Average : 10
Boxcar : 0
Background removal :  enabled
linearity correction :  enabled
SC :  disabled
Intensity correction :  disabled
DWT denoise :  enabled
savitzky-golay :  disabled
FFT :  disabled
Running average :  disabled
Kalman :  disabled
High pass :  disabled
---------------BEGIN--------------------
Wavelength(nm)             Reflectance(%)
200.29               0
200.75       -84.67373
201.21       -8.941629
201.67       -72.13612
202.13        -21.5463
202.58          14.686
203.04        43.70827
203.50        65.61318
203.96        80.78362
204.42        95.16774
204.88        128.4945
205.34        940.8564
205.80       -58.93326
206.26        -33.1565
206.72       -62.90843
207.18       -296.0343
207.64        433.3298
208.10        197.7962
208.55        150.5287
209.01        130.6338
209.47        117.6337
209.93         106.601
210.39        94.92604
210.85        85.82391
211.31        86.45834
211.77        117.5319
212.23       -192.1233
212.69       -5.946731
213.14        15.78604
213.60        44.38298
214.06        -203.253
214.52       -25.78615
214.98       -8.380224
215.44        6.559422
215.90        43.82126
216.36        580.1935
216.81       -237.2751
217.27       -271.0856
217.73        425.2003
218.19        55.14917
218.65        25.73487
219.11        29.57128
219.57        74.21039
220.02        314.1154
220.48        224.5999
220.94        95.89243
221.40         59.2419
221.86        47.30527
222.32        46.58654
222.77        52.78215
223.23        65.40199
223.69        82.25468
224.15        88.79745
224.61        80.22873
225.06        66.87656
225.52        57.94896
225.98        56.35649
226.44        61.09813
226.90        71.59837
227.36        85.45705
227.81        91.42723
228.27        85.48796
228.73        75.03967
229.19        66.75539
229.65        64.19042
230.10        66.63621
230.56        72.93531
231.02        81.18111
231.48        85.48331
231.93        83.16275
232.39        77.73864
232.85        72.09992
233.31        68.72244
233.77        67.69463
234.22          67.888
234.68        68.89841
235.14        70.44453
235.60        72.58768
236.05         76.1183
236.51        81.26714
236.97        87.24197
237.43        92.24286
237.88        94.90438
238.34         95.3215
238.80        96.30608
239.26        99.06655
239.71        104.3918
240.17        110.6399
240.63        110.7687
241.08        100.1269
241.54        83.97041
242.00        71.73479
242.46        69.28546
242.91        77.67284
243.37        98.84621
243.83        137.5036
244.28        170.2549
244.74        166.3371
245.20        145.6788
245.66        126.3427
246.11        112.6067
246.57        101.0759
247.03        85.79506
247.48        62.39238
247.94         33.6788
248.40        12.59421
248.85        4.920201
249.31        12.53885
249.77        28.18326
250.22        44.13051
250.68        58.05432
251.14        68.43169
251.59        75.83032
252.05        82.50517
252.51        91.31383
252.96        108.7464
253.42        140.3162
253.88        152.7013
254.33        134.0359
254.79         117.574
255.25        107.6591
255.70        100.8335
256.16        96.41218
256.62        93.73496
257.07        92.59879
257.53        93.07146
257.99        94.08315
258.44        94.63731
258.90        94.68409
259.35        93.78693
259.81        92.57045
260.27          91.286
260.72        90.42102
261.18        90.30385
261.63        90.18889
262.09        89.94553
262.55        88.82178
263.00        86.74648
263.46         84.3446
263.91        81.79292
264.37        79.82159
264.83        78.39738
265.28        77.30194
265.74        76.40791
266.19        75.15746
266.65        73.64054
267.11        71.91602
267.56        70.34443
268.02        69.59893
268.47        69.69724
268.93        70.36727
269.38        71.04623
269.84        70.80502
270.30        69.46265
270.75        67.31535
271.21        64.91787
271.66        62.95222
272.12         61.6764
272.57         60.7888
273.03        60.12999
273.48          59.363
273.94        58.44186
274.39        57.45613
274.85        56.47069
275.31        55.42567
275.76        54.31849
276.22         53.2292
276.67        52.16451
277.13        51.33016
277.58        50.64412
278.04        50.09977
278.49        49.56166
278.95        48.99456
279.40        48.30748
279.86        47.59648
280.31        46.79299
280.77        45.95604
281.22        45.03685
281.68        44.13237
282.13        43.22267
282.59        42.41632
283.04        41.68665
283.50        41.08155
283.95        40.57959
284.41        40.23104
284.86        40.00583
285.32        39.90565
285.77        39.88399
286.22        39.94663
286.68        40.06974
287.13        40.20796
287.59        40.29658
288.04        40.18853
288.50        39.90396
288.95        39.44871
289.41        38.98787
289.86        38.64233
290.32        38.49082
290.77         38.4893
291.22        38.57625
291.68        38.63245
292.13        38.64041
292.59         38.6925
293.04           38.88
293.50        39.39894
293.95        40.25931
294.40        41.39528
294.86        42.69564
295.31        43.99205
295.77        45.21841
296.22         46.3957
296.68        47.55037
297.13        48.70138
297.58        49.89742
298.04        51.16083
298.49        52.49846
298.95        53.96942
299.40        55.54145
299.85        57.18058
300.31         58.9234
300.76        60.80018
301.21        62.82362
301.67        64.99811
302.12        67.12562
302.58        68.92712
303.03        70.31448
303.48        71.41362
303.94        72.55649
304.39        74.11643
304.84        76.23102
305.30        78.75813
305.75        81.42897
306.20        83.85498
306.66        85.91595
307.11        87.66029
307.57        89.23175
308.02        90.72242
308.47        92.22428
308.93        93.70026
309.38         95.0946
309.83        96.43403
310.29        97.73701
310.74        99.00182
311.19        100.2408
311.65        101.4334
312.10        102.5523
312.55         103.602
313.00        104.6316
313.46        105.7251
313.91        106.8741
314.36         108.043
314.82        109.0969
315.27         109.838
315.72        110.2094
316.18        110.3124
316.63        110.2567
317.08         110.292
317.53        110.4971
317.99         110.818
318.44        111.2069
318.89        111.5486
319.35        111.8108
319.80        112.0579
320.25        112.3169
320.70        112.6315
321.16         112.996
321.61        113.3914
322.06        113.8179
322.51        114.3038
322.97        114.8103
323.42        115.3684
323.87        115.8548
324.32        116.0975
324.78        116.0631
325.23        115.8497
325.68        115.5985
326.13        115.5657
326.59        115.8016
327.04        116.2916
327.49        116.9213
327.94        117.5198
328.39        118.0091
328.85        118.3707
329.30        118.7099
329.75        119.0283
330.20        119.3397
330.66        119.6042
331.11        119.8315
331.56        119.9005
332.01        119.8258
332.46        119.6619
332.92        119.5684
333.37        119.9225
333.82        120.7662
334.27        122.0255
334.72        123.4525
335.17        124.5988
335.63        125.2744
336.08        125.6193
336.53        125.7952
336.98        126.1607
337.43        126.8229
337.88        127.6837
338.34        128.5274
338.79        129.1015
339.24        129.2957
339.69        129.2133
340.14        129.1047
340.59        129.3475
341.05        130.0149
341.50        131.0126
341.95        132.0488
342.40        132.6567
342.85        132.7395
343.30        132.4619
343.75        132.1479
344.20        132.2984
344.66        133.0182
345.11        134.1301
345.56        135.3729
346.01        136.3015
346.46        136.7808
346.91        136.9754
347.36        137.0193
347.81        137.1119
348.26         137.336
348.72        137.6203
349.17        137.9725
349.62        138.4961
350.07        139.1428
350.52        139.8297
350.97        140.3873
351.42        140.5258
351.87        140.1948
352.32        139.5498
352.77        138.6313
353.22        137.5105
353.67        136.2902
354.13        135.0021
354.58        133.9225
355.03         133.593
355.48        134.0619
355.93        135.1977
356.38        136.4071
356.83        136.6808
357.28        135.8018
357.73        134.0784
358.18        132.2027
358.63        131.2187
359.08        131.3228
359.53        132.1602
359.98        133.1603
360.43        133.3773
360.88        132.5522
361.33         131.033
361.78        129.2477
362.23        127.7874
362.68        126.8181
363.13          126.15
363.58        125.6048
364.03        124.9327
364.48        124.0512
364.93        123.0441
365.38        122.0404
365.83        121.1975
366.28        120.5371
366.73        120.0122
367.18        119.4092
367.63        118.4148
368.08        117.0161
368.53        115.3492
368.98        113.7764
369.43        112.8123
369.88        112.5305
370.33        112.7645
370.78        113.1381
371.23        112.9953
371.68        112.1574
372.13        110.8417
372.58        109.3823
373.03        108.2766
373.48        107.6399
373.93        107.2891
374.38        107.0537
374.83        106.6729
375.28        106.0583
375.72        105.3011
376.17        104.4726
376.62        103.5929
377.07        102.6976
377.52        101.7754
377.97        100.8934
378.42        100.1717
378.87        99.63134
379.32        99.24116
379.77        98.92835
380.22        98.56631
380.67        98.11848
381.11        97.62674
381.56        97.10567
382.01        96.61133
382.46        96.16747
382.91        95.74457
383.36        95.36156
383.81        95.04971
384.26        94.79819
384.71        94.60076
385.15        94.36548
385.60        93.99956
386.05        93.47855
386.50         92.8487
386.95        92.21789
387.40         91.7592
387.85        91.50391
388.29        91.33138
388.74        91.25265
389.19        91.07383
389.64        90.75113
390.09        90.32046
390.54        89.82083
390.98        89.30007
391.43        88.85108
391.88        88.44089
392.33        88.06731
392.78        87.73081
393.23        87.41969
393.67         87.0672
394.12        86.78847
394.57        86.49155
395.02        86.57054
395.47         86.1862
395.91        85.58494
396.36        85.28669
396.81        85.33298
397.26        85.47072
397.71        85.52625
398.15        85.33645
398.60        84.96506
399.05        84.34328
399.50        83.71523
399.95        83.58286
400.39        83.93051
400.84        84.21786
401.29        84.26343
401.74        84.12138
402.18         83.7426
402.63        82.98705
403.08        82.10149
403.53        81.54346
403.97        81.37719
404.42        81.44778
404.87         81.6155
405.32        81.66853
405.76        81.51876
406.21        81.33118
406.66         81.1002
407.11        80.67484
407.55         80.2641
408.00        80.17384
408.45        80.41568
408.90        81.02162
409.34        81.59642
409.79          81.081
410.24        79.74344
410.68        79.03798
411.13        79.07629
411.58        79.00491
412.03        78.77554
412.47        78.74006
412.92         78.8568
413.37        79.04049
413.81        79.21537
414.26         79.3322
414.71        79.34787
415.15        79.29518
415.60        79.17825
416.05        79.07211
416.49        79.00209
416.94        78.94175
417.39        78.87878
417.83        78.77242
418.28        78.62708
418.73        78.48446
419.17         78.3488
419.62        78.22325
420.07         78.0986
420.51        77.94673
420.96        77.87493
421.41        77.86069
421.85        77.86589
422.30        78.23832
422.74        78.75233
423.19        78.47368
423.64         77.6613
424.08        77.94605
424.53         79.1804
424.98        79.67091
425.42        79.25359
425.87        79.13278
426.31        79.35207
426.76        78.76434
427.21        77.76679
427.65         78.2824
428.10        79.83295
428.54        80.14745
428.99        79.25917
429.44         78.0677
429.88        77.11461
430.33        77.87904
430.77        79.67534
431.22        79.81143
431.66        78.44518
432.11        77.67339
432.56        77.66264
433.00        78.36646
433.45        79.60375
433.89        78.47349
434.34        77.20569
434.78        79.00773
435.23        78.97248
435.67        79.24527
436.12        78.54692
436.57        78.39391
437.01        79.70443
437.46        80.83913
437.90        80.05053
438.35        79.65531
438.79        79.84687
439.24          79.537
439.68        79.05644
440.13        79.08028
440.57        79.61814
441.02        79.99129
441.46        80.08318
441.91        80.53098
442.35        81.09811
442.80        80.76227
443.24        80.46753
443.69        80.22634
444.13        80.33995
444.58        80.36003
445.02        80.26673
445.47        80.42686
445.91        80.80693
446.36        81.03322
446.80        81.01717
447.24        81.63194
447.69        81.47052
448.13        81.63173
448.58        81.71468
449.02        81.71989
449.47        81.67324
449.91        81.60101
450.36        81.54824
450.80        81.47873
451.25        81.39965
451.69        81.26839
452.13        81.08991
452.58        80.88158
453.02        80.66425
453.47        80.50775
453.91        80.41018
454.36        80.39263
454.80        80.39605
455.24        80.26479
455.69        79.99081
456.13        79.71984
456.58        79.63994
457.02        79.23116
457.46        79.59968
457.91        79.97095
458.35        80.41808
458.79        80.41169
459.24        79.93295
459.68        79.25436
460.13        78.67393
460.57        77.83356
461.01        77.88332
461.46        77.93172
461.90          78.159
462.34        78.25291
462.79         78.0972
463.23        78.21825
463.68        78.49429
464.12         78.5972
464.56        78.51196
465.01         78.1886
465.45         78.1239
465.89        78.16397
466.34        78.26117
466.78        78.39708
467.22        77.27621
467.67        77.05211
468.11         77.0728
468.55        77.14278
468.99        77.10406
469.44        77.10747
469.88         77.1546
470.32        77.19117
470.77        77.21107
471.21        77.21871
471.65        77.19383
472.10        77.14529
472.54        77.07082
472.98        76.98262
473.42        76.87952
473.87         76.8518
474.31        76.83566
474.75        76.61378
475.20        76.25836
475.64        76.25389
476.08         76.5582
476.52        76.53159
476.97        76.09602
477.41        76.69048
477.85        75.63382
478.29         76.4958
478.74        76.61586
479.18        76.60564
479.62         75.9841
480.06        75.83826
480.50        76.24535
480.95        75.48663
481.39        76.16176
481.83        75.46241
482.27        75.65662
482.72        75.54543
483.16        75.33851
483.60        75.44393
484.04        75.71125
484.48        75.87952
484.93         76.1699
485.37        76.77414
485.81        76.26882
486.25        77.48272
486.69        77.30427
487.14        74.89286
487.58        73.66478
488.02        76.18369
488.46        75.30104
488.90         74.6521
489.34        75.88887
489.79        75.10494
490.23        75.46458
490.67        75.10764
491.11        74.83906
491.55        74.90465
491.99        75.21609
492.43        75.31042
492.88        75.12922
493.32        75.01286
493.76        74.99012
494.20        74.97852
494.64        74.94744
495.08        74.95489
495.52        75.07484
495.96         75.0604
496.41        74.77914
496.85        75.67077
497.29        75.36119
497.73        74.74634
498.17        74.37652
498.61        74.01982
499.05        74.08092
499.49        74.36794
499.93        74.76286
500.37        74.90416
500.82        74.80016
501.26        74.87722
501.70        75.12239
502.14        75.27041
502.58        75.17542
503.02        75.03793
503.46        74.84438
503.90        74.56359
504.34        74.29247
504.78        74.21055
505.22        74.33327
505.66        74.60452
506.10         74.9402
506.54        75.13243
506.98        75.00562
507.42         75.1194
507.86         74.2141
508.30        73.86444
508.74        73.98842
509.18        74.11778
509.62        74.26297
510.06        74.43882
510.50        74.62013
510.94        74.79068
511.38        74.91067
511.82        74.91801
512.26        74.80399
512.70        74.58019
513.14        74.32301
513.58        74.16022
514.02        74.12396
514.46        74.18759
514.90        74.27958
515.34        74.27359
515.78        74.14409
516.22        73.93702
516.66        73.73049
517.10        73.64125
517.54         73.6968
517.98        73.85783
518.42        74.05741
518.86        74.18834
519.30        74.21827
519.74        74.17499
520.18        74.10834
520.62        74.09847
521.06        74.16019
521.50         74.2582
521.93        74.34528
522.37        74.33829
522.81        74.22667
523.25        74.04938
523.69         73.8445
524.13         73.6651
524.57        73.53736
525.01        73.45186
525.45        73.41724
525.89        73.44707
526.32        73.53195
526.76        73.65781
527.20        73.79588
527.64        73.90115
528.08        73.95784
528.52        73.98318
528.96        73.96343
529.40         73.8819
529.83         73.7429
530.27        73.57357
530.71        73.44072
531.15        73.46658
531.59        73.66697
532.03        73.99608
532.46        74.33994
532.90        74.53767
533.34        74.54554
533.78        74.35651
534.22        74.05958
534.66        73.92139
535.09        73.91109
535.53        73.72607
535.97        73.39499
536.41        73.22832
536.85        73.24004
537.28        73.26599
537.72        73.28655
538.16        73.33186
538.60        73.38461
539.04         73.4285
539.47          73.446
539.91        73.45492
540.35        73.43826
540.79        73.42344
541.22        73.41479
541.66        73.31697
542.10        73.32152
542.54        73.28053
542.97        73.25106
543.41        73.26962
543.85        73.32419
544.29        73.40527
544.72        73.47952
545.16        73.52682
545.60        73.52195
546.04        73.49316
546.47        73.45087
546.91        73.36185
547.35        73.27481
547.79        73.30829
548.22        73.37139
548.66        73.35957
549.10        73.26318
549.53        72.83826
549.97        72.79303
550.41        72.74403
550.84        72.89602
551.28        73.18848
551.72        73.53454
552.15        73.75362
552.59        73.80355
553.03        73.82457
553.46        73.61653
553.90        73.55659
554.34        73.60563
554.77        73.50909
555.21        73.26615
555.65        73.60523
556.08        73.59816
556.52        73.38155
556.96        72.81918
557.39        72.56902
557.83        72.70486
558.27        72.83663
558.70        72.90187
559.14        73.25748
559.57        73.22871
560.01         73.4575
560.45        73.62308
560.88        73.54289
561.32        73.31001
561.75        72.76836
562.19        72.20508
562.63        72.57059
563.06        73.57339
563.50         73.4754
563.93        72.42765
564.37        72.17521
564.80        72.71334
565.24         73.0507
565.68        73.06944
566.11        73.10375
566.55         73.1743
566.98        73.04422
567.42        72.83645
567.85        72.95387
568.29        73.37273
568.72        73.29292
569.16        73.38268
569.60        73.42114
570.03        73.22598
570.47        73.55447
570.90        73.88579
571.34        72.89797
571.77        73.48215
572.21        73.44241
572.64        73.69141
573.08         73.2774
573.51         73.2953
573.95        73.85792
574.38        73.28834
574.82        73.73224
575.25        74.01895
575.69        74.47212
576.12        74.02071
576.56        73.53313
576.99        73.73857
577.42        73.60379
577.86        73.80399
578.29        73.96733
578.73        74.70577
579.16        73.43313
579.60        73.35101
580.03        73.01101
580.47        73.54462
580.90        72.86584
581.33        74.00977
581.77        74.01791
582.20        74.15335
582.64        74.21874
583.07         73.9174
583.51        73.44717
583.94        73.02556
584.37        73.20119
584.81        73.95664
585.24        74.21391
585.68        73.90121
586.11        73.91449
586.54        74.07161
586.98        73.16644
587.41        72.86335
587.85        73.71014
588.28        73.86378
588.71         72.3701
589.15        73.67696
589.58        72.85135
590.01        72.88177
590.45        72.87328
590.88        73.23828
591.31        73.33769
591.75        73.07455
592.18        72.73669
592.61        72.40649
593.05        72.69327
593.48        72.98972
593.91        73.42191
594.35        73.00912
594.78        72.98251
595.21        73.00091
595.65        73.47976
596.08        72.94994
596.51        72.96149
596.94        72.78313
597.38        72.73441
597.81        72.76942
598.24        72.54428
598.68        73.24159
599.11        72.47694
599.54        73.74236
599.97        73.44658
600.41         72.7403
600.84        73.22158
601.27        73.04086
601.70        73.74783
602.14        74.05946
602.57        73.70865
603.00        73.23685
603.43        72.76823
603.87        72.96552
604.30        73.41122
604.73        72.78534
605.16        72.34115
605.60        72.23917
606.03        72.60111
606.46        73.24961
606.89        73.10136
607.32        72.44996
607.76        72.19789
608.19        72.45107
608.62        73.17723
609.05        73.29873
609.48        73.16559
609.92        72.52154
610.35        72.22195
610.78        73.61566
611.21        73.78692
611.64        73.16003
612.07        73.23997
612.50        73.53021
612.94          73.443
613.37        72.80776
613.80        73.13136
614.23        72.60219
614.66        73.05176
615.09        72.76566
615.52        72.94298
615.96        73.15279
616.39        73.11462
616.82        72.91813
617.25        72.88935
617.68        73.35992
618.11        73.29321
618.54        72.83451
618.97        72.53014
619.40        72.49265
619.84         72.4193
620.27        72.29387
620.70        72.67317
621.13        73.46107
621.56        72.83699
621.99        72.09559
622.42        72.86452
622.85        72.59986
623.28        72.98035
623.71         72.7189
624.14        72.84365
624.57        73.14906
625.00        73.23383
625.43        73.09261
625.86        72.92284
626.29        72.77505
626.72        72.48051
627.15        72.45084
627.58        72.27246
628.01        72.10574
628.44        72.27229
628.87        72.66446
629.30        72.66267
629.73         72.3053
630.16        72.35297
630.59        72.47172
631.02        72.63409
631.45        72.69102
631.88        72.64891
632.31        72.47803
632.74        72.50956
633.17        72.21429
633.60        72.15372
634.03        72.17353
634.46        72.27819
634.89        72.40749
635.32        72.44747
635.75        72.38821
636.18         72.2998
636.61        72.21832
637.04        72.15939
637.47        72.13845
637.89        72.16572
638.32         72.1968
638.75        72.19917
639.18        72.16293
639.61        72.05903
640.04        71.99242
640.47        71.92393
640.90        71.88964
641.33        71.86719
641.76           71.83
642.18        71.84341
642.61        71.90947
643.04        71.85863
643.47        71.63663
643.90        72.17142
644.33        71.90477
644.76        71.96682
645.18        71.94655
645.61        72.19927
646.04         72.6112
646.47        72.60564
646.90        72.23427
647.33        72.09673
647.75         72.2257
648.18        72.18205
648.61         72.0227
649.04         72.1133
649.47        72.34785
649.89         72.4725
650.32        72.41046
650.75        71.92678
651.18        71.29037
651.61        71.51414
652.03        72.46361
652.46         72.7212
652.89        72.18775
653.32        71.92264
653.74        72.22787
654.17        71.72642
654.60        72.16602
655.03        72.91093
655.46        71.90073
655.88        72.24442
656.31        80.54258
656.74        78.90489
657.16        72.39155
657.59        70.91921
658.02        71.90486
658.45        72.68767
658.87        72.67382
659.30        71.16645
659.73         71.8453
660.15        72.94437
660.58        72.19312
661.01        72.07216
661.44        71.74745
661.86        71.76335
662.29        72.05954
662.72        72.29881
663.14        72.44352
663.57        72.50967
664.00        72.52283
664.42         72.5368
664.85        72.56034
665.27        72.49349
665.70        72.36578
666.13        72.29095
666.55        72.29589
666.98        72.33495
667.41         72.3991
667.83        72.47984
668.26        72.54548
668.69        72.59588
669.11        72.63878
669.54        72.68583
669.96        72.72132
670.39        72.74689
670.82        72.75307
671.24        72.59768
671.67        72.37406
672.09        72.44183
672.52        72.74281
672.94        72.81321
673.37        72.63225
673.80        72.43674
674.22        72.29704
674.65        72.21331
675.07        72.21092
675.50        72.21352
675.92         72.2252
676.35        72.27351
676.77        72.34567
677.20        72.45148
677.62        72.60107
678.05        72.50373
678.47        72.65101
678.90        72.64995
679.32        72.63116
679.75        72.58332
680.17        72.50802
680.60        72.40578
681.02         72.3165
681.45        72.29185
681.87         72.3518
682.30        72.49566
682.72        72.67348
683.15         72.6986
683.57        72.58254
684.00        72.49866
684.42        72.47827
684.85        72.44115
685.27        72.37849
685.70        72.41792
686.12        72.51327
686.54        72.41784
686.97        72.17627
687.39        72.23209
687.82        72.50678
688.24        72.41353
688.66        72.02185
689.09        71.99413
689.51        72.33827
689.94        72.50375
690.36        72.47615
690.78         72.5785
691.21        72.82394
691.63        72.97224
692.06        73.07764
692.48        73.48865
692.90        74.05436
693.33        74.22853
693.75        73.96587
694.17        73.46407
694.60        72.92837
695.02        72.66266
695.44        72.67547
695.87        72.75477
696.29        72.82779
696.71        72.68947
697.14        72.46685
697.56        72.76347
697.98        73.45333
698.41        73.77257
698.83        73.66397
699.25        73.54448
699.68        73.46442
700.10        73.39796
700.52        73.36688
700.94        73.32867
701.37         73.2928
701.79        73.40622
702.21        73.58611
702.64        73.63147
703.06        73.53615
703.48        73.36355
703.90        73.10468
704.33        73.18557
704.75        72.74403
705.17        72.69518
705.59          72.792
706.01        72.99841
706.44        73.25847
706.86        73.51894
707.28        73.73224
707.70        73.91206
708.12        74.03599
708.55        74.03455
708.97        73.91703
709.39        73.76137
709.81        73.60917
710.23        73.49273
710.66        73.43786
711.08        73.47263
711.50          73.565
711.92        73.65855
712.34        73.73663
712.76        73.81705
713.19        73.87194
713.61        73.90887
714.03        73.90376
714.45        73.84919
714.87        73.78786
715.29         73.7889
715.71        73.86324
716.13        74.00037
716.56        74.10876
716.98         74.1256
717.40        74.00089
717.82        73.76846
718.24        73.53771
718.66        73.47877
719.08        73.62297
719.50        73.92162
719.92        74.25079
720.34        74.39008
720.76        74.29768
721.19        74.07912
721.61        73.83438
722.03        73.67927
722.45        73.66578
722.87        73.77713
723.29        73.96195
723.71        74.12611
724.13        74.23267
724.55        74.29322
724.97        74.34636
725.39         74.4529
725.81        74.61418
726.23        74.80287
726.65        74.92146
727.07        74.82008
727.49        74.48933
727.91        74.00159
728.33        73.50904
728.75        73.24762
729.17        73.27459
729.59        73.51466
730.01        73.87052
730.43        74.16671
730.85         74.3337
731.27        74.42632
731.69        74.44058
732.10        74.37371
732.52        74.24936
732.94        74.05417
733.36        73.87473
733.78        73.85628
734.20        74.01817
734.62        74.35839
735.04        74.76173
735.46        74.90979
735.88        74.82369
736.30        74.86555
736.72        75.00145
737.13        74.97874
737.55        74.78569
737.97        74.44268
738.39        74.11308
738.81        74.36872
739.23        75.07001
739.65        75.23554
740.06        74.84075
740.48        74.77799
740.90        75.02555
741.32        75.09456
741.74        74.94871
742.16         74.7957
742.57        74.65094
742.99         74.4974
743.41        74.41705
743.83        74.39175
744.25        74.48873
744.67        74.98145
745.08        75.67679
745.50         75.8819
745.92        75.52116
746.34        74.89138
746.75        74.22565
747.17         73.8199
747.59        73.74626
748.01        73.98382
748.42        74.39012
748.84        74.54563
749.26        74.44637
749.68        74.47752
750.09        74.65214
750.51        74.74572
750.93        74.75757
751.35        74.81877
751.76        74.92634
752.18        74.99799
752.60        75.03297
753.01         75.0825
753.43        75.11715
753.85        75.12855
754.27        75.12613
754.68        75.11845
755.10        75.14291
755.52        75.25394
755.93        75.43443
756.35        75.64496
756.77        75.85429
757.18        75.91875
757.60        75.82154
758.02        75.87352
758.43        75.97474
758.85        75.48032
759.26        74.65885
759.68        74.76346
760.10        75.71822
760.51        76.27399
760.93        76.20473
761.34        76.12208
761.76        76.06866
762.18         75.5202
762.59        74.80415
763.01        75.05006
763.42        76.12631
763.84        76.51566
764.26        76.11428
764.67         75.6591
765.09         75.3773
765.50        75.32303
765.92        75.48997
766.33        75.48252
766.75        75.21436
767.16        75.31782
767.58        75.41169
768.00        75.63574
768.41        75.91245
768.83        76.43456
769.24        77.05956
769.66        77.37444
770.07        77.33694
770.49        77.08098
770.90         76.7401
771.32        76.62829
771.73        76.72923
772.15         76.6268
772.56        76.33481
772.97        76.15808
773.39        76.11911
773.80        76.14867
774.22        76.21189
774.63        76.37997
775.05        76.57711
775.46        76.75447
775.88        76.85657
776.29        76.91814
776.70        76.94824
777.12         76.9939
777.53        77.08198
777.95        77.17116
778.36        77.24909
778.77        77.24184
779.19        77.13503
779.60        77.04478
780.02        76.98406
780.43        76.76478
780.84        76.51587
781.26        76.68116
781.67        77.14963
782.09        77.37941
782.50         77.2565
782.91        76.81344
783.33         76.2728
783.74        76.18143
784.15        76.62587
784.57        77.28137
784.98        78.01535
785.39        78.66607
785.81        79.13051
786.22        79.19897
786.63        79.33962
787.04        79.21206
787.46        79.02296
787.87        78.70852
788.28        78.41179
788.70        78.32508
789.11        78.44775
789.52        78.76003
789.93        79.10722
790.35        79.21152
790.76         79.0396
791.17        78.66745
791.58        78.23593
792.00         77.9825
792.41        77.99153
792.82        78.08309
793.23        78.20074
793.65        78.53716
794.06        78.93173
794.47        78.74332
794.88         78.1688
795.29        78.02214
795.71        78.27946
796.12        78.62686
796.53         78.9013
796.94        79.00512
797.35         78.8643
797.76        78.53525
798.18        78.18645
798.59        78.03053
799.00        78.13311
799.41        78.41902
799.82        78.80457
800.23        79.14542
800.64        79.37746
801.06        79.51894
801.47         79.5909
801.88        79.51685
802.29         79.3082
802.70        78.98133
803.11        78.64704
803.52        78.49013
803.93        78.55898
804.34        78.80625
804.75        79.14375
805.17        79.42919
805.58        79.64986
805.99        79.68884
806.40        79.57406
806.81        79.64898
807.22        79.80483
807.63         79.3727
808.04        78.52631
808.45        78.16312
808.86        78.37779
809.27        78.71239
809.68         79.0437
810.09        79.34096
810.50        79.53072
810.91        79.62711
811.32        79.62029
811.73        79.50011
812.14        79.29014
812.55        78.99198
812.96        78.72671
813.37        78.70476
813.78        78.96756
814.19        79.45439
814.60        80.00581
815.01        80.37163
815.42        80.48665
815.83        80.40837
816.24        80.22466
816.65        80.11115
817.05        80.13452
817.46        80.21058
817.87          80.305
818.28        80.32438
818.69        80.24219
819.10        80.08952
819.51        79.91684
819.92        79.80835
820.33        79.78862
820.74        79.82867
821.14        79.85602
821.55        79.79036
821.96        79.60681
822.37         79.3607
822.78        79.12437
823.19        79.02184
823.60        79.10212
824.00        79.34382
824.41        79.68324
824.82        80.13564
825.23        80.65113
825.64        81.18943
826.04        81.66547
826.45         81.8527
826.86        81.73914
827.27        81.40044
827.68        80.89317
828.08        80.34633
828.49        79.79915
828.90        79.24224
829.31        78.84478
829.72        78.85181
830.12        79.33423
830.53        80.22195
830.94        81.17964
831.35        81.53864
831.75        81.15526
832.16        80.14993
832.57         79.1068
832.97        78.92808
833.38        79.76488
833.79         81.3261
834.20        83.00222
834.60        83.74832
835.01        83.25349
835.42        81.90774
835.82        80.23058
836.23        79.01087
836.64        78.50181
837.04        78.48569
837.45        78.77446
837.86        79.12537
838.26        79.42252
838.67        79.71589
839.08        79.97533
839.48        80.09231
839.89        80.03802
840.29        79.82242
840.70        79.50372
841.11        79.17033
841.51        78.88467
841.92        78.61008
842.33        78.45837
842.73        78.60644
843.14        79.01861
843.54        79.70349
843.95        80.40985
844.35        80.79349
844.76        80.72472
845.17        80.29182
845.57        79.74001
845.98        79.45566
846.38        79.55876
846.79        79.92524
847.19        80.35963
847.60        80.42858
848.00         80.0626
848.41        79.39755
848.81        78.71786
849.22         78.4272
849.62         78.6378
850.03        79.19196
850.43        79.89013
850.84         80.2266
851.24        80.14078
851.65         79.7498
852.05        79.32632
852.46        79.26563
852.86         79.6313
853.27        80.24217
853.67        80.90614
854.07        81.59538
854.48        82.19572
854.88        82.86202
855.29        83.24308
855.69        82.99888
856.10        81.96706
856.50        80.39759
856.90        78.81507
857.31        77.97724
857.71        78.02192
858.12        78.69167
858.52        79.70414
858.92        80.26001
859.33        80.07838
859.73        79.46335
860.13        78.56971
860.54         77.6746
860.94        76.91585
861.34        76.17628
861.75        75.63995
862.15        75.69622
862.55        76.36134
862.96        77.52415
863.36        78.78514
863.76        79.38245
864.17        79.13591
864.57        78.26234
864.97         77.1683
865.38        76.55183
865.78        76.64095
866.18        77.20203
866.58          77.952
866.99        78.37858
867.39        78.34548
867.79        78.03802
868.19        77.57573
868.60        77.07458
869.00        76.59486
869.40        76.08244
869.80        75.68756
870.21        75.70323
870.61        76.22311
871.01        77.09255
871.41        77.97454
871.81        78.35277
872.22        78.10992
872.62        77.39715
873.02        76.47725
873.42        75.79698
873.82        75.52424
874.22        75.56874
874.63        75.80708
875.03        76.03207
875.43        76.17957
875.83        76.30529
876.23        76.52158
876.63        76.99444
877.03           77.72
877.44        78.57882
877.84        79.35402
878.24          79.644
878.64        79.37173
879.04        78.69129
879.44        77.86665
879.84        77.29939
880.24        77.09254
880.64        77.11847
881.04        77.29353
881.44        77.46377
881.84         77.5741
882.24        77.71985
882.65        77.77802
883.05        77.64963
883.45        77.29104
883.85        76.71839
884.25        76.24197
884.65        76.32966
885.05        77.04119
885.45        78.25866
885.85        79.52778
886.25        80.05732
886.65        79.64431
887.05        78.50543
887.45        77.19876
887.85        76.60931
888.25        76.94337
888.65          77.939
889.04         79.0655
889.44        79.44128
889.84        78.87434
890.24        77.66518
890.64        76.33978
891.04        75.63685
891.44        75.73214
891.84        76.43387
892.24        77.30295
892.64        77.60532
893.04        77.17123
893.44        76.23663
893.83          75.353
894.23        75.36584
894.63         76.3928
895.03        78.14792
895.43        79.98557
895.83        80.74567
896.23         80.1359
896.63        78.61707
897.02        76.80074
897.42        75.65937
897.82        75.35638
898.22        75.64387
898.62        76.30077
899.01         76.9831
899.41         77.4741
899.81        77.91294
900.21        78.35438
900.61        78.86243
901.00        79.43223
901.40        79.95535
901.80        80.31135
902.20        80.36149
902.59        80.10677
902.99        79.61962
903.39        79.08225
903.79        78.77678
904.18        78.75777
904.58        78.95892
904.98        79.24683
905.38        79.42239
905.77        79.42158
906.17         79.3378
906.57        79.15749
906.96         78.8753
907.36        78.50724
907.76        78.06965
908.15        77.73308
908.55        77.72588
908.95        78.10249
909.34         78.8033
909.74        79.57682
910.14        80.08502
910.53        80.21199
910.93        80.03751
911.33        79.70676
911.72        79.46041
912.12        79.38737
912.52        79.40276
912.91         79.3987
913.31        79.19668
913.70        78.77761
914.10          78.236
914.49        77.71692
914.89        77.40432
915.29        77.35313
915.68        77.50977
916.08        77.78474
916.47        78.04768
916.87        78.24197
917.26        78.39973
917.66        78.54391
918.05         78.7116
918.45        78.89742
918.84        79.09908
919.24         79.2806
919.64        79.47604
920.03         79.6955
920.42        79.91838
920.82        80.09963
921.21        80.18694
921.61        80.14013
922.00        79.97686
922.40        79.75548
922.79        79.67327
923.19        79.74902
923.58        79.93224
923.98        80.05118
924.37        79.78049
924.77        79.12848
925.16        78.19492
925.55        77.26765
925.95        76.81411
926.34        76.99951
926.74        77.63538
927.13        78.56283
927.52        79.41356
927.92        80.03482
928.31        80.53526
928.70        80.87522
929.10        81.02598
929.49        81.02374
929.89        80.82597
930.28        80.56158
930.67        80.41963
931.07        80.43438
931.46        80.56658
931.85        80.72398
932.24        80.74426
932.64        80.58992
933.03        80.37294
933.42         80.0763
933.82        79.68777
934.21        79.23415
934.60        78.70143
934.99        78.31487
935.39        78.37989
935.78        78.96992
936.17        80.03545
936.56        81.15894
936.96        81.57569
937.35         81.1399
937.74        80.02059
938.13        78.81236
938.53        78.32204
938.92        78.65079
939.31        79.61684
939.70        80.74242
940.09        81.14796
940.49        80.61535
940.88        79.48147
941.27        78.26168
941.66        77.72173
942.05        78.04303
942.44        78.97029
942.84         80.1634
943.23        81.10577
943.62        81.50262
944.01        81.53297
944.40        81.28425
944.79        80.89978
945.18        80.47398
945.57         79.9429
945.97        79.43331
946.36        79.25891
946.75        79.44254
947.14        79.95094
947.53        80.56397
947.92         80.8541
948.31        80.70088
948.70        80.22277
949.09        79.67495
949.48        79.44724
949.87        79.64962
950.26        80.19918
950.65        80.88757
951.04        81.35509
951.43        81.48213
951.82        81.32569
952.21        81.15122
952.60        81.38193
952.99        82.05233
953.38        82.99187
953.77        83.76643
954.16         83.6232
954.55        82.45467
954.94        80.66084
955.33         78.7335
955.72        77.39714
956.11        76.87867
956.50        76.91468
956.89        77.51949
957.28        78.72315
957.66        80.43037
958.05        82.47932
958.44        84.25855
958.83        84.58886
959.22        83.25868
959.61        80.74992
960.00        77.89577
960.39        75.88451
960.78        75.03521
961.16        75.06313
961.55        75.78794
961.94        76.99342
962.33        78.47707
962.72        80.31184
963.11        82.05073
963.49        82.85504
963.88        82.46396
964.27        81.13213
964.66        79.44374
965.04         78.2671
965.43        77.79836
965.82        77.80125
966.21        78.11538
966.60         78.4031
966.98         78.5397
967.37        78.66595
967.76        78.71932
968.15        78.53482
968.53        78.11626
968.92        77.43147
969.31        76.77202
969.69        76.64944
970.08        77.09354
970.47        77.96642
970.86        78.83411
971.24        78.91564
971.63        77.96358
972.02        76.34238
972.40        74.50617
972.79        73.16317
973.17        72.54998
973.56        72.47093
973.95        72.82165
974.33        73.46468
974.72        74.24183
975.11        75.14433
975.49        76.15076
975.88        77.10675
976.26        77.95519
976.65        78.59496
977.04        78.72872
977.42        77.90685
977.81        76.17195
978.19         73.7413
978.58        71.63169
978.96        71.09779
979.35        72.35397
979.74        75.14346
980.12        78.72816
980.51        80.93973
980.89        81.22374
981.28        79.96976
981.66        78.07143
982.05        77.11855
982.43         77.5219
982.82        78.73228
983.20        80.44456
983.59        81.96162
983.97        83.08526
984.35         84.0012
984.74        84.42545
985.12        84.00476
985.51        82.73941
985.89        80.71708
986.28        78.64671
986.66        77.53023
987.04        77.72717
987.43        78.96059
987.81         80.6634
988.20        81.61551
988.58        81.49414
988.96        80.47164
989.35        79.18851
989.73        78.65469
990.12        79.06967
990.50        80.21346
990.88        81.24577
991.27        80.84578
991.65        78.89017
992.03        75.89213
992.42        73.03946
992.80        71.88567
993.18        72.86148
993.56        75.39529
993.95        78.47233
994.33        80.61934
994.71         81.0807
995.10        80.34732
995.48         78.7686
995.86        76.94473
996.24        75.28069
996.63        73.63245
997.01        72.36321
997.39        72.02551
997.77        72.65465
998.15        74.16847
998.54        76.06962
998.92        77.37922
999.30        77.73235
999.68        77.32375
1000.06        76.47343
1000.45        75.77516
1000.83        75.60734
1001.21         75.7329
1001.59        76.06163
1001.97        76.45358
1002.35        76.81357
1002.73         77.1794
1003.12        77.58124
1003.50        77.96075
1003.88         78.3169
1004.26        78.68685
1004.64        78.86102
1005.02        78.53682
1005.40        77.72929
1005.78        76.52176
1006.16        75.44638
1006.54        75.45492
1006.92        76.70089
1007.30        78.79288
1007.69        80.89458
1008.07        81.87866
1008.45        81.32923
1008.83        79.68745
1009.21        77.35001
1009.59        74.98623
1009.97        72.99068
1010.35        71.25725
1010.73         70.2019
1011.11        70.52376
1011.49        72.38197
1011.86        75.86004
1012.24        80.06817
1012.62        83.66464
1013.00        86.01165
1013.38        87.13789
1013.76        87.42876
1014.14        87.89324
1014.52        88.84389
1014.90        89.91801
1015.28        90.56489
1015.66        89.93603
1016.04        88.06474
1016.41        85.59139
1016.79        83.28067
1017.17        81.48259
1017.55        80.04973
1017.93        78.65768
1018.31        77.11711
1018.69        75.51747
1019.06        74.29258
1019.44        73.77405
1019.82        73.61399
1020.20        73.29211
1020.58        72.72967
1020.95        71.90466
1021.33        71.36204
1021.71        72.21954
1022.09        74.82885
1022.46        78.59338
1022.84        82.32829
1023.22        84.81243
1023.60        85.74614
1023.97        85.53931
1024.35         84.1666
1024.73         81.7855
