SpectraSmart Spectrum 2.9.0.0
--------- Device Information -----------
Spectrum Name :  反射率_0
Saving Time :  2024/05/01 16:18:24
Spectro-Module Model Name : SE2030-DUVN
Spectro-Module Serial Number : OS361AC55029948
Wavelength Start : 200
Wavelength End : 1025
Wavelength Unit : Wavelength(nm)
Spectrum Unit : Reflectance(%)
-----------Spectrum Setting ------------
Integration Time : 20ms
Average : 10
Boxcar : 0
Background removal :  enabled
linearity correction :  enabled
SC :  disabled
Intensity correction :  disabled
DWT denoise :  enabled
savitzky-golay :  disabled
FFT :  disabled
Running average :  disabled
Kalman :  disabled
High pass :  disabled
---------------BEGIN--------------------
Wavelength(nm)             Reflectance(%)
200.29               0
200.75        6.868716
201.21        238.9495
201.67       -143.1089
202.13       -48.43151
202.58       -6.493846
203.04        23.07082
203.50        42.61308
203.96          50.689
204.42        48.66002
204.88        28.34143
205.34       -512.0132
205.80        125.3257
206.26        70.52911
206.72        6.300013
207.18       -276.7643
207.64        517.4575
208.10        232.8501
208.55        160.4309
209.01        121.9924
209.47         97.4282
209.93        79.77738
210.39        62.74543
210.85        47.62716
211.31        36.97835
211.77         29.0729
212.23         21.3622
212.69        22.94721
213.14        31.72015
213.60        69.36012
214.06       -342.3897
214.52       -55.78917
214.98       -34.18005
215.44       -24.02232
215.90        -8.99119
216.36        165.3011
216.81        -90.7188
217.27       -81.58931
217.73        6.400123
218.19       -39.21653
218.65       -47.75974
219.11        -58.5822
219.57       -84.56152
220.02       -146.1141
220.48       -26.26277
220.94        5.021561
221.40        8.808739
221.86        10.37336
222.32        13.64549
222.77        19.41067
223.23        28.33905
223.69        39.03302
224.15        41.80998
224.61        34.54027
225.06        24.90326
225.52         18.4402
225.98        16.75988
226.44        19.01954
226.90        24.49171
227.36        32.56338
227.81        38.28452
228.27        38.45044
228.73        35.81758
229.19        32.77582
229.65        30.52569
230.10        28.88788
230.56        27.35493
231.02        26.02027
231.48        25.69612
231.93        26.59769
232.39        28.36247
232.85        30.39585
233.31        32.21379
233.77        33.74238
234.22        35.10099
234.68         36.2398
235.14        37.30648
235.60        38.45889
236.05        39.85578
236.51         41.6839
236.97        43.87632
237.43         45.9173
237.88        47.43365
238.34        48.11029
238.80        48.61252
239.26        49.32138
239.71        50.50422
240.17        51.99087
240.63        52.76314
241.08        52.26413
241.54        51.51547
242.00        52.30199
242.46        56.85873
242.91         67.2703
243.37        85.79936
243.83        116.5839
244.28        142.8736
244.74        140.7612
245.20        125.1576
245.66        110.2236
246.11         99.3242
246.57        89.83196
247.03        77.00632
247.48        56.98075
247.94        31.75872
248.40        12.22274
248.85        3.737519
249.31        8.558155
249.77        20.81476
250.22        33.94844
250.68        45.68012
251.14        54.68916
251.59        61.41273
252.05        68.02798
252.51        77.90934
252.96        98.37323
253.42        134.7778
253.88         146.152
254.33         120.842
254.79        101.0369
255.25        91.36116
255.70        86.04832
256.16        83.34148
256.62        80.75626
257.07        76.81284
257.53        72.95134
257.99        69.54487
258.44        67.11945
258.90        66.69401
259.35         67.4564
259.81        68.96436
260.27         70.3371
260.72        70.50395
261.18        69.69319
261.63        68.14397
262.09        66.37299
262.55         64.4258
263.00        62.32642
263.46        60.22371
263.91        58.24498
264.37        56.93644
264.83        56.18961
265.28        55.81765
265.74        55.47562
266.19        54.38944
266.65         52.6161
267.11        50.33241
267.56        48.08093
268.02        46.80843
268.47        46.62797
268.93        47.18316
269.38        47.88582
269.84        47.73725
270.30        46.52697
270.75        44.60922
271.21        42.45444
271.66        40.62843
272.12         39.3796
272.57        38.45575
273.03        37.83696
273.48        37.44728
273.94        37.22477
274.39        37.14317
274.85        37.05831
275.31          36.674
275.76        35.94805
276.22        35.03284
276.67        34.02655
277.13        33.19203
277.58        32.52663
278.04        31.99553
278.49         31.5493
278.95        31.23664
279.40        30.97907
279.86        30.79773
280.31        30.55494
280.77        30.15257
281.22        29.53921
281.68        28.83212
282.13        28.06359
282.59        27.36821
283.04         26.7625
283.50        26.27183
283.95         25.9156
284.41        25.77565
284.86        25.83148
285.32        26.05428
285.77        26.37203
286.22        26.72478
286.68        27.08041
287.13         27.4159
287.59        27.68184
288.04        27.76068
288.50        27.67107
288.95        27.41944
289.41        27.14972
289.86        26.99014
290.32        27.00591
290.77        27.16033
291.22        27.40222
291.68        27.63171
292.13        27.83664
292.59        28.10355
293.04        28.48426
293.50         29.1029
293.95        29.96839
294.40        31.04043
294.86        32.28341
295.31        33.65296
295.77        35.09811
296.22        36.59219
296.68        38.07898
297.13        39.46359
297.58         40.7617
298.04        42.03691
298.49        43.32965
298.95         44.7446
299.40        46.28086
299.85        47.89554
300.31        49.64535
300.76        51.60194
301.21         53.7785
301.67         56.1723
302.12        58.55281
302.58        60.57485
303.03        62.12838
303.48        63.33857
303.94        64.55344
304.39        66.19331
304.84        68.39669
305.30        71.00841
305.75        73.72792
306.20        76.11255
306.66         78.0387
307.11        79.58917
307.57        80.96529
308.02        82.35202
308.47        83.85915
308.93        85.42963
309.38        86.95869
309.83        88.38591
310.29         89.7101
310.74        90.95632
311.19        92.18974
311.65         93.4753
312.10        94.79671
312.55        96.11454
313.00        97.41045
313.46        98.66733
313.91        99.85355
314.36        100.9724
314.82        101.9305
315.27        102.5969
315.72         102.945
316.18        103.0568
316.63        103.0539
317.08        103.1983
317.53         103.562
317.99        104.0868
318.44        104.6858
318.89        105.1761
319.35         105.505
319.80        105.7503
320.25        105.9664
320.70        106.2447
321.16        106.6007
321.61         107.007
322.06        107.4573
322.51        107.9696
322.97        108.4983
323.42         109.067
323.87        109.5665
324.32        109.8441
324.78        109.8619
325.23        109.7085
325.68        109.4672
326.13        109.3016
326.59        109.2552
327.04        109.3467
327.49        109.5646
327.94        109.9062
328.39        110.3485
328.85        110.8459
329.30        111.4161
329.75        111.9129
330.20         112.297
330.66        112.5584
331.11        112.7685
331.56        112.9233
332.01        113.0578
332.46         113.175
332.92        113.3364
333.37         113.761
333.82        114.4544
334.27        115.3918
334.72        116.4317
335.17        117.3106
335.63         117.904
336.08        118.3029
336.53        118.5947
336.98        119.0082
337.43        119.6066
337.88        120.3275
338.34        120.9979
338.79        121.4291
339.24        121.5345
339.69        121.3952
340.14        121.2253
340.59        121.3485
341.05        121.8344
341.50        122.6189
341.95        123.4668
342.40        123.9955
342.85        124.1251
343.30        123.9826
343.75        123.8396
344.20        124.1193
344.66        124.8932
345.11        125.9907
345.56        127.1536
346.01        127.9488
346.46        128.2519
346.91         128.231
347.36         128.021
347.81        127.8235
348.26        127.7318
348.72        127.6859
349.17        127.7377
349.62        128.0494
350.07        128.5884
350.52        129.2679
350.97        129.8657
351.42        129.9999
351.87        129.6051
352.32        128.8657
352.77        127.8902
353.22         126.861
353.67        125.8841
354.13        124.9185
354.58         124.169
355.03        124.0656
355.48        124.6219
355.93        125.7475
356.38        126.8376
356.83        126.8713
357.28        125.6608
357.73        123.5299
358.18        121.2862
358.63        120.1361
359.08        120.3022
359.53        121.3995
359.98        122.7174
360.43        123.0622
360.88        122.1137
361.33        120.2865
361.78        118.1723
362.23        116.6128
362.68        115.8184
363.13        115.5144
363.58        115.3556
364.03        114.8244
364.48        113.7768
364.93        112.3935
365.38        110.9675
365.83        109.9039
366.28        109.2882
366.73        108.9967
367.18        108.7024
367.63        107.9052
368.08         106.538
368.53        104.7999
368.98        103.1303
369.43        102.1579
369.88        101.9827
370.33        102.3884
370.78         102.948
371.23        102.9217
371.68        102.1016
372.13        100.7439
372.58        99.20366
373.03        98.00497
373.48        97.28223
373.93        96.84451
374.38        96.55759
374.83        96.22107
375.28        95.75111
375.72        95.22076
376.17        94.62914
376.62        93.89233
377.07        93.02055
377.52        92.02647
377.97        91.03492
378.42        90.25925
378.87        89.74482
379.32        89.43665
379.77         89.2093
380.22        88.85683
380.67        88.32803
381.11        87.69007
381.56        87.02844
382.01        86.50726
382.46         86.1744
382.91        85.97033
383.36        85.81902
383.81        85.60893
384.26        85.29951
384.71        84.91887
385.15         84.4899
385.60        84.09681
386.05        83.74503
386.50         83.4171
386.95        83.07185
387.40        82.66068
387.85        82.17844
388.29        81.59262
388.74        81.07088
389.19        80.65514
389.64        80.35795
390.09        80.15888
390.54        79.95156
390.98        79.59132
391.43        79.12157
391.88        78.47124
392.33        77.83204
392.78        77.69061
393.23         77.9205
393.67        77.90672
394.12        77.69227
394.57        77.32359
395.02        77.28421
395.47        76.89819
395.91        75.88852
396.36        75.48548
396.81        75.58354
397.26        75.91434
397.71         76.2037
398.15        76.16369
398.60        75.83044
399.05        75.09372
399.50        74.28271
399.95        74.23257
400.39        74.84243
400.84         75.0173
401.29        74.64863
401.74         74.4146
402.18        74.30779
402.63        73.84885
403.08        73.17471
403.53        72.72295
403.97        72.53194
404.42        72.47421
404.87        72.47468
405.32        72.40819
405.76        72.23708
406.21        72.11055
406.66          71.992
407.11        71.73527
407.55         71.4626
408.00        71.26398
408.45        71.18951
408.90        71.58743
409.34        72.12082
409.79        71.57552
410.24        70.24435
410.68        69.66981
411.13        69.95499
411.58        70.23135
412.03        70.36131
412.47        70.51852
412.92        70.61639
413.37        70.62225
413.81         70.5535
414.26        70.49582
414.71        70.45053
415.15        70.41668
415.60        70.37071
416.05        70.33074
416.49        70.30232
416.94        70.28227
417.39        70.27228
417.83         70.2525
418.28        70.22427
418.73        70.20226
419.17        70.17154
419.62        70.11405
420.07        70.02242
420.51        69.88239
420.96        69.78908
421.41        69.76331
421.85        69.78711
422.30        70.03861
422.74        70.36098
423.19        70.28334
423.64        69.90027
424.08         69.9736
424.53        70.47137
424.98        70.69019
425.42        70.55646
425.87        70.71246
426.31        71.08714
426.76        70.64404
427.21        69.72648
427.65         70.1411
428.10        71.50319
428.54        71.79996
428.99        71.08903
429.44        70.11428
429.88        69.33947
430.33        70.24964
430.77        72.12918
431.22        72.07397
431.66        70.29984
432.11        69.55687
432.56        70.10474
433.00        70.72052
433.45        71.10675
433.89        71.48392
434.34        70.79022
434.78        71.79193
435.23        71.89537
435.67        71.90386
436.12        71.39249
436.57        71.80092
437.01        72.92281
437.46        73.45634
437.90        73.37965
438.35        72.28949
438.79        72.62183
439.24        72.14215
439.68        71.69003
440.13        71.79368
440.57        72.38789
441.02        72.80135
441.46        72.89889
441.91        73.16294
442.35        73.43668
442.80        73.44749
443.24        73.22874
443.69        73.16299
444.13        73.25317
444.58        73.29991
445.02         73.2889
445.47        73.37865
445.91        73.58383
446.36        73.83815
446.80        74.10788
447.24        74.48344
447.69        74.86942
448.13        74.91465
448.58        74.70107
449.02        74.65739
449.47        74.81206
449.91        74.81942
450.36        74.70301
450.80        74.64986
451.25        74.67322
451.69        74.63846
452.13        74.55248
452.58        74.47337
453.02        74.36607
453.47        74.23851
453.91        74.07912
454.36        73.82235
454.80        73.56752
455.24        73.52486
455.69         73.5759
456.13        73.57533
456.58        73.65238
457.02        72.66155
457.46        72.86464
457.91         73.2812
458.35        74.20499
458.79        74.33856
459.24        73.62221
459.68        72.86964
460.13        72.46604
460.57        71.34501
461.01        71.62747
461.46        71.85155
461.90        72.39401
462.34        72.16066
462.79        71.66976
463.23        71.65518
463.68         72.1425
464.12        72.27303
464.56        71.98075
465.01        71.58212
465.45        71.13921
465.89        71.08154
466.34        71.31905
466.78        71.17035
467.22        70.67296
467.67        70.56531
468.11        70.60672
468.55        70.71718
468.99        70.75886
469.44        70.78027
469.88        70.77412
470.32        70.73637
470.77        70.68645
471.21        70.66354
471.65        70.66068
472.10        70.67572
472.54         70.6824
472.98        70.64965
473.42        70.56284
473.87        70.52181
474.31        70.47598
474.75        70.22332
475.20        69.84879
475.64        69.82574
476.08        70.10442
476.52        70.06403
476.97        69.63504
477.41        70.05412
477.85        69.11375
478.29        69.78377
478.74        70.07797
479.18        69.97656
479.62        69.23023
480.06        69.04255
480.50        69.49441
480.95        68.91396
481.39        69.64074
481.83        68.98273
482.27        69.14375
482.72        69.12109
483.16        68.97082
483.60        69.06223
484.04        69.20074
484.48        69.27705
484.93        69.58119
485.37        69.86277
485.81        69.79179
486.25        70.77287
486.69        70.63889
487.14        68.14644
487.58        67.34212
488.02        69.45483
488.46        69.04278
488.90         68.3713
489.34        69.29011
489.79        68.54691
490.23        69.05824
490.67        68.81251
491.11        68.52937
491.55        68.59291
491.99         68.9146
492.43        69.00101
492.88        68.79208
493.32        68.60388
493.76        68.49515
494.20         68.4446
494.64        68.44991
495.08        68.53774
495.52        68.70159
495.96        68.69743
496.41        68.51174
496.85        68.88095
497.29        69.07487
497.73        68.67071
498.17        68.29438
498.61        67.83206
499.05        67.68758
499.49        68.04091
499.93        68.69524
500.37        68.91457
500.82        68.71362
501.26        68.39304
501.70        68.80968
502.14        68.75176
502.58        68.48357
503.02        68.28955
503.46        68.20747
503.90        68.13785
504.34        68.09865
504.78          68.158
505.22        68.29078
505.66         68.4885
506.10        68.70956
506.54        68.79813
506.98        68.59864
507.42        68.76292
507.86        67.75059
508.30        67.50985
508.74        67.60583
509.18        67.79877
509.62        67.99536
510.06        68.17896
510.50        68.31863
510.94        68.40534
511.38        68.44443
511.82        68.44106
512.26        68.39989
512.70        68.31068
513.14        68.19665
513.58        68.10184
514.02        68.03739
514.46        68.00037
514.90        67.96788
515.34        67.89531
515.78         67.7793
516.22        67.64542
516.66        67.52274
517.10        67.45228
517.54        67.44475
517.98        67.48261
518.42        67.55895
518.86        67.65983
519.30        67.77123
519.74        67.89763
520.18        68.00952
520.62        68.04785
521.06        68.01219
521.50        67.94552
521.93        67.87714
522.37        67.81441
522.81        67.77544
523.25        67.77696
523.69        67.78745
524.13        67.74382
524.57        67.64169
525.01        67.50543
525.45        67.38969
525.89        67.37933
526.32        67.48776
526.76        67.67827
527.20        67.88475
527.64        68.02435
528.08        68.07211
528.52        68.00417
528.96        67.85722
529.40        67.82145
529.83        67.84833
530.27        67.64587
530.71        67.29749
531.15        67.20762
531.59        67.40318
532.03        67.67633
532.46        67.91946
532.90        68.05676
533.34        68.04937
533.78         67.8725
534.22        67.60125
534.66        67.46925
535.09        67.44598
535.53        67.26035
535.97        66.94592
536.41        66.79639
536.85        66.82607
537.28        66.88046
537.72        66.93417
538.16        67.00237
538.60        67.06668
539.04        67.11841
539.47        67.14303
539.91        67.15941
540.35        67.15411
540.79        67.14896
541.22          67.157
541.66        67.10606
542.10        67.16977
542.54        67.20477
542.97        67.24067
543.41        67.27619
543.85         67.2952
544.29        67.30313
544.72        67.29138
545.16        67.27658
545.60         67.2471
546.04        67.21481
546.47        67.18504
546.91        67.13093
547.35        67.08542
547.79        67.13354
548.22        67.19115
548.66        67.18204
549.10        67.09667
549.53        66.69647
549.97        66.63275
550.41        66.56662
550.84        66.69354
551.28        66.95381
551.72        67.26077
552.15        67.46548
552.59        67.53217
553.03        67.46881
553.46        67.31041
553.90        67.27321
554.34        67.38512
554.77        67.40287
555.21        67.25378
555.65        67.67003
556.08        67.32839
556.52        67.14315
556.96        66.81314
557.39        66.65217
557.83        66.70474
558.27        66.77879
558.70          66.825
559.14        67.06628
559.57        66.91236
560.01         67.0975
560.45        67.33109
560.88        67.25915
561.32        66.98784
561.75        66.66274
562.19        66.44084
562.63        66.71249
563.06        67.28561
563.50        67.08898
563.93        66.28512
564.37         66.2067
564.80        66.78519
565.24        67.05172
565.68        66.92653
566.11        66.89679
566.55        66.98308
566.98        66.86261
567.42        66.65579
567.85         66.7224
568.29        67.04598
568.72        67.18817
569.16        67.19916
569.60        67.27197
570.03        67.30666
570.47        67.25722
570.90        67.40209
571.34        66.55701
571.77        66.97379
572.21        66.96587
572.64        67.20983
573.08        66.84657
573.51        67.24341
573.95         67.5117
574.38        67.17671
574.82        67.24557
575.25        67.55021
575.69        67.83054
576.12        67.42128
576.56         66.8803
576.99        67.39394
577.42        67.67239
577.86        67.25072
578.29        67.33324
578.73         68.2054
579.16        67.22382
579.60        66.55635
580.03        66.61475
580.47        67.24004
580.90        66.38789
581.33        67.53486
581.77        67.74139
582.20        68.01081
582.64        67.55055
583.07        67.42453
583.51        66.98734
583.94         66.8518
584.37        67.14299
584.81         67.7711
585.24        67.94882
585.68        67.64336
586.11        67.45944
586.54        67.44064
586.98         66.7457
587.41        66.42828
587.85        67.16737
588.28        67.33102
588.71        66.41478
589.15        67.00505
589.58        66.37148
590.01        66.51803
590.45         66.5481
590.88        66.76939
591.31        66.90884
591.75        66.87527
592.18        66.71423
592.61        66.46481
593.05        66.64402
593.48        66.51091
593.91        66.81575
594.35        66.61533
594.78        66.57766
595.21        66.33343
595.65        67.15324
596.08        67.03625
596.51        66.49542
596.94        66.52847
597.38        66.34106
597.81        66.49006
598.24        66.20729
598.68        66.71477
599.11        66.32379
599.54        67.37225
599.97        67.02681
600.41        66.51402
600.84        66.98937
601.27        66.72475
601.70        67.11545
602.14        67.44054
602.57        66.92316
603.00        66.57638
603.43        66.22875
603.87        66.57092
604.30        67.04642
604.73        66.58778
605.16        66.27029
605.60        66.23158
606.03        66.55817
606.46         67.0957
606.89        66.93079
607.32         66.3321
607.76         66.0864
608.19        66.31027
608.62        66.89737
609.05        67.01846
609.48        66.85349
609.92         66.4652
610.35        65.78801
610.78        67.12318
611.21        67.18401
611.64        66.58276
612.07        66.97118
612.50        66.99638
612.94        66.93658
613.37         66.3355
613.80        66.85751
614.23        66.26295
614.66        66.64478
615.09        66.31456
615.52        66.48085
615.96        66.73518
616.39        66.82792
616.82        66.58607
617.25        66.62638
617.68         66.9696
618.11         66.9715
618.54        66.66599
618.97        66.37402
619.40        66.20146
619.84        66.09721
620.27        66.09621
620.70        66.44296
621.13        66.94916
621.56        66.72723
621.99        65.86036
622.42        66.07328
622.85        66.08739
623.28        66.61383
623.71        66.27943
624.14        66.80817
624.57        66.59812
625.00        66.60027
625.43        66.88652
625.86        66.61929
626.29        66.43494
626.72         66.1358
627.15         66.0766
627.58        65.94358
628.01        65.81775
628.44        65.92802
628.87        66.21062
629.30        66.30505
629.73        66.18803
630.16        66.35593
630.59        66.33283
631.02        66.35274
631.45        66.27753
631.88        66.15887
632.31        65.99806
632.74        65.96304
633.17        65.78465
633.60        65.75826
634.03        65.80061
634.46        65.90744
634.89        66.03391
635.32        66.10696
635.75        66.10614
636.18        66.04623
636.61        65.95078
637.04        65.86229
637.47        65.80177
637.89        65.75301
638.32         65.6898
638.75        65.65827
639.18        65.66845
639.61        65.51157
640.04        65.57121
640.47        65.56461
640.90        65.60239
641.33        65.65482
641.76        65.68444
642.18        65.72456
642.61        65.76791
643.04        65.66787
643.47        65.38818
643.90        65.79823
644.33        65.48893
644.76        65.49353
645.18        65.43699
645.61         65.6377
646.04         65.9899
646.47        65.97205
646.90        65.64187
647.33        65.54465
647.75        65.70303
648.18        65.75175
648.61        65.71084
649.04        65.75817
649.47        65.83544
649.89        65.97476
650.32        66.07744
650.75        65.62082
651.18        64.85609
651.61        64.98468
652.03        65.90866
652.46        66.09866
652.89        65.50855
653.32        65.46912
653.74        66.11054
654.17         65.6058
654.60        65.70578
655.03        66.07578
655.46        64.86203
655.88        65.59493
656.31        73.24202
656.74         71.4253
657.16        65.49555
657.59         63.9809
658.02        65.67575
658.45        65.76206
658.87        65.86499
659.30        64.84711
659.73        65.41174
660.15        65.57705
660.58        65.72201
661.01        65.48759
661.44         64.9964
661.86        65.07287
662.29        65.64952
662.72        66.04018
663.14        66.13551
663.57        66.09322
664.00        65.97465
664.42        65.88945
664.85        65.86903
665.27        65.77994
665.70        65.64924
666.13        65.60181
666.55        65.65721
666.98        65.76516
667.41        65.89838
667.83        66.01701
668.26        66.08436
668.69        66.10841
669.11        66.10812
669.54        66.12606
669.96        66.15969
670.39         66.1752
670.82        66.17019
671.24         66.0927
671.67        65.99114
672.09        66.03665
672.52        66.20316
672.94        66.23651
673.37        66.12522
673.80        66.00171
674.22        65.90226
674.65        65.79536
675.07        65.71261
675.50        65.65307
675.92        65.62609
676.35        65.63492
676.77        65.67916
677.20        65.74551
677.62        65.82795
678.05        65.90195
678.47        65.95822
678.90        66.00967
679.32        66.03561
679.75        66.03002
680.17        65.98604
680.60        65.90213
681.02        65.82616
681.45         65.8073
681.87        65.86745
682.30        66.02876
682.72        66.21982
683.15        66.19088
683.57        65.96727
684.00        65.80032
684.42        65.76251
684.85        65.77151
685.27         65.8202
685.70        66.05451
686.12        66.34808
686.54         66.2939
686.97        65.92153
687.39        65.74921
687.82        65.77536
688.24         65.5303
688.66        65.11397
689.09        65.12141
689.51        65.53263
689.94        65.78818
690.36        65.84943
690.78        66.02073
691.21        66.29299
691.63        66.43385
692.06        66.48274
692.48        66.71265
692.90        67.04414
693.33        67.13563
693.75        66.96648
694.17        66.64552
694.60        66.31792
695.02        66.18355
695.44        66.22057
695.87        66.33504
696.29         66.4352
696.71        66.11939
697.14        65.59518
697.56        65.81528
697.98        66.64662
698.41        67.02132
698.83        66.86942
699.25        66.79649
699.68        66.82545
700.10        66.77803
700.52        66.66544
700.94        66.49894
701.37        66.33215
701.79        66.37517
702.21        66.57144
702.64        66.70258
703.06        66.74287
703.48         66.7211
703.90        66.60848
704.33        66.80202
704.75        66.47233
705.17        66.38536
705.59        66.31051
706.01        66.23807
706.44        66.20572
706.86        66.29981
707.28        66.51147
707.70        66.85632
708.12        67.22635
708.55        67.32046
708.97        67.15751
709.39        67.06956
709.81        67.08986
710.23        67.03255
710.66        66.91428
711.08        66.88402
711.50        66.92501
711.92        66.94736
712.34        66.94246
712.76        66.94684
713.19        66.93763
713.61        66.91931
714.03        66.87505
714.45        66.80363
714.87        66.74791
715.29        66.77568
715.71        66.89487
716.13        67.09057
716.56        67.27852
716.98        67.38877
717.40        67.37202
717.82        67.27969
718.24        67.17625
718.66        67.14445
719.08        67.20724
719.50        67.34422
719.92        67.49342
720.34        67.54848
720.76        67.48432
721.19        67.33816
721.61        67.16705
722.03        67.05013
722.45        67.01907
722.87        67.06077
723.29        67.14126
723.71        67.20631
724.13        67.23453
724.55        67.22426
724.97        67.22655
725.39          67.323
725.81        67.51755
726.23        67.78402
726.65        67.99635
727.07        67.95506
727.49        67.63785
727.91         67.1226
728.33        66.59844
728.75        66.36419
729.17        66.48577
729.59        66.86655
730.01        67.35171
730.43        67.66888
730.85         67.7329
731.27        67.64053
731.69        67.44998
732.10        67.25715
732.52        67.11448
732.94        66.94115
733.36        66.79453
733.78        66.85224
734.20        67.13319
734.62        67.29139
735.04        67.94158
735.46        67.88213
735.88        67.45602
736.30        67.44282
736.72        67.80277
737.13        67.90756
737.55        67.68522
737.97        67.29903
738.39         66.9342
738.81        67.14219
739.23        67.82072
739.65        68.07377
740.06        67.83833
740.48        67.86076
740.90        68.11168
741.32        68.17532
741.74        68.02306
742.16        67.84808
742.57        67.67541
742.99        67.47216
743.41        67.32885
743.83        67.30406
744.25        67.43849
744.67        67.85563
745.08        68.40151
745.50        68.59142
745.92        68.36266
746.34         67.9022
746.75        67.38153
747.17        67.04247
747.59        66.94036
748.01        67.06699
748.42        67.33032
748.84        67.40755
749.26        67.31667
749.68        67.40739
750.09        67.65508
750.51        67.77986
750.93        67.76732
751.35          67.768
751.76        67.80115
752.18        67.82211
752.60        67.84057
753.01        67.89021
753.43        67.93732
753.85        67.96478
754.27        67.97617
754.68        67.98467
755.10        68.01638
755.52        68.10891
755.93        68.24623
756.35        68.38793
756.77        68.52441
757.18        68.57674
757.60        68.53822
758.02        68.62358
758.43        68.70719
758.85        68.29455
759.26        67.60959
759.68        67.41021
760.10        67.93973
760.51        68.42522
760.93        68.55883
761.34         68.3648
761.76        67.93646
762.18        67.69456
762.59        67.78232
763.01        68.09588
763.42        68.53498
763.84        68.74928
764.26         68.7043
764.67        68.39899
765.09        68.04227
765.50        68.11645
765.92        68.52505
766.33        68.42007
766.75        67.79688
767.16        67.67009
767.58        68.07364
768.00        68.29265
768.41        68.36227
768.83        68.97327
769.24        69.89928
769.66        70.09619
770.07        69.61735
770.49         69.3082
770.90        69.28112
771.32        69.27575
771.73        69.26035
772.15        69.17325
772.56        69.02649
772.97        68.93829
773.39        68.92667
773.80        68.99035
774.22        69.09608
774.63        69.29237
775.05        69.49045
775.46        69.61241
775.88        69.60499
776.29        69.51517
776.70         69.3902
777.12        69.33511
777.53        69.39288
777.95         69.5083
778.36        69.63788
778.77        69.68076
779.19        69.62164
779.60        69.52103
780.02        69.40699
780.43        69.33216
780.84        69.35821
781.26        69.38246
781.67        69.40558
782.09        69.75265
782.50        70.19204
782.91         69.7671
783.33        68.72952
783.74        68.41057
784.15        68.93258
784.57        69.54057
784.98        70.11029
785.39        70.70573
785.81        71.23771
786.22        71.46293
786.63         71.7569
787.04        71.73827
787.46        71.57665
787.87        71.23637
788.28        70.90014
788.70        70.82072
789.11        71.01341
789.52        71.43835
789.93        71.89239
790.35        72.02022
790.76        71.76862
791.17        71.23759
791.58        70.63386
792.00        70.29798
792.41        70.33681
792.82        70.55134
793.23        70.81743
793.65        71.19557
794.06        71.50118
794.47        71.17316
794.88        70.47896
795.29        70.27346
795.71        70.55061
796.12        71.02701
796.53        71.49287
796.94         71.6221
797.35         71.3529
797.76        71.04726
798.18        70.84354
798.59        70.66563
799.00        70.57111
799.41         70.6464
799.82        70.85295
800.23        71.04937
800.64        71.19316
801.06        71.31297
801.47        71.40211
801.88        71.34108
802.29        71.12963
802.70        70.80141
803.11        70.47489
803.52        70.34941
803.93        70.47607
804.34          70.789
804.75        71.20961
805.17        71.61557
805.58        71.97974
805.99        72.18224
806.40        72.19662
806.81         72.2636
807.22        72.27045
807.63         71.6203
808.04        70.54386
808.45        69.99201
808.86        70.09312
809.27        70.40312
809.68        70.77139
810.09        71.09888
810.50        71.29498
810.91        71.39379
811.32        71.41819
811.73        71.41008
812.14        71.39709
812.55        71.34973
812.96        71.32847
813.37        71.44762
813.78        71.72031
814.19        72.11472
814.60        72.52283
815.01        72.77481
815.42        72.83076
815.83        72.72768
816.24        72.54088
816.65        72.42079
817.05        72.42398
817.46        72.48465
817.87        72.56243
818.28        72.55188
818.69        72.42741
819.10        72.22289
819.51        72.00257
819.92        71.88018
820.33        71.88848
820.74        71.98582
821.14        72.09117
821.55        72.11137
821.96         72.0128
822.37         71.8472
822.78         71.6695
823.19        71.57339
823.60        71.60213
824.00        71.74647
824.41        71.96363
824.82        72.29276
825.23        72.70197
825.64        73.15106
826.04        73.57747
826.45        73.79913
826.86        73.79787
827.27         73.6256
827.68        73.29136
828.08        72.84142
828.49        72.29564
828.90         71.6753
829.31        71.15378
829.72        70.98962
830.12        71.26447
830.53        71.89548
830.94         72.6323
831.35        72.96058
831.75        72.76041
832.16        72.12174
832.57        71.43845
832.97         71.3142
833.38        71.85206
833.79        72.84877
834.20        73.92587
834.60        74.44248
835.01         74.1952
835.42        73.43288
835.82        72.45405
836.23        71.70366
836.64        71.33974
837.04         71.2524
837.45         71.3563
837.86        71.57632
838.26        71.85844
838.67        72.18295
839.08        72.51457
839.48        72.75208
839.89        72.84674
840.29        72.81503
840.70         72.6402
841.11        72.27999
841.51        71.78286
841.92        71.16249
842.33        70.62743
842.73        70.51582
843.14        70.85099
843.54        71.59963
843.95        72.48312
844.35        73.08688
844.76        73.24334
845.17        73.04402
845.57        72.70517
845.98        72.57449
846.38         72.7561
846.79        73.11916
847.19         73.4706
847.60        73.40884
848.00         72.8814
848.41        72.03406
848.81        71.16161
849.22        70.66962
849.62        70.67448
850.03        71.03241
850.43        71.55707
850.84        71.77948
851.24        71.63505
851.65        71.22934
852.05        70.81026
852.46        70.74049
852.86        71.07529
853.27        71.64955
853.67        72.25861
854.07        72.82983
854.48        73.25495
854.88        73.67012
855.29         73.8313
855.69        73.57285
856.10        72.78997
856.50        71.66489
856.90        70.53419
857.31        69.88355
857.71        69.80855
858.12        70.13343
858.52        70.73148
858.92         71.1319
859.33        71.15018
859.73         70.9582
860.13        70.57396
860.54        70.06468
860.94        69.49775
861.34        68.83863
861.75        68.24709
862.15        68.06214
862.55        68.33346
862.96        68.95937
863.36        69.72813
863.76        70.19239
864.17        70.22583
864.57        69.95772
864.97        69.54472
865.38        69.26504
865.78        69.22999
866.18        69.31998
866.58        69.45177
866.99        69.48959
867.39        69.42635
867.79        69.33585
868.19        69.20615
868.60         68.9701
869.00         68.6273
869.40        68.17639
869.80        67.80852
870.21        67.87226
870.61        68.47038
871.01        69.42718
871.41        70.34652
871.81        70.63599
872.22        70.18018
872.62        69.16599
873.02        67.97279
873.42        67.23562
873.82        67.15276
874.22        67.55897
874.63        68.19269
875.03        68.62602
875.43        68.73789
875.83        68.66398
876.23        68.58802
876.63        68.78819
877.03        69.31731
877.44        70.03053
877.84        70.74792
878.24        71.14075
878.64        71.11487
879.04        70.77204
879.44        70.29305
879.84        69.94653
880.24        69.80573
880.64        69.80516
881.04        69.83932
881.44        69.72571
881.84         69.4369
882.24        69.06699
882.65        68.71093
883.05        68.63421
883.45        68.85107
883.85        69.24096
884.25        69.74037
884.65        70.27846
885.05        70.81046
885.45        71.36375
885.85         71.7784
886.25        71.78786
886.65        71.35255
887.05        70.53886
887.45        69.67215
887.85        69.26554
888.25        69.43546
888.65        70.06757
889.04        70.80709
889.44         71.0358
889.84        70.63029
890.24        69.77592
890.64        68.88001
891.04         68.5306
891.44        68.84859
891.84         69.6758
892.24        70.59578
892.64        70.90913
893.04        70.45472
893.44        69.45103
893.83        68.42564
894.23        68.18419
894.63        68.85255
895.03        70.17972
895.43        71.59865
895.83        72.08974
896.23        71.40959
896.63        69.97681
897.02        68.34737
897.42        67.39346
897.82        67.25675
898.22        67.71692
898.62        68.53171
899.01        69.31967
899.41        69.85828
899.81        70.26031
900.21         70.6459
900.61        71.20321
901.00        71.94241
901.40        72.72485
901.80        73.28467
902.20        73.25459
902.59        72.60644
902.99        71.49979
903.39        70.31287
903.79        69.64599
904.18        69.63225
904.58        70.09811
904.98        70.75104
905.38        71.14008
905.77        71.13479
906.17        70.91745
906.57         70.5469
906.96        70.13078
907.36         69.7349
907.76        69.32857
908.15        69.08837
908.55          69.269
908.95         69.9041
909.34        70.90942
909.74        71.97327
910.14        72.65054
910.53        72.79388
910.93        72.51691
911.33        71.97854
911.72        71.44657
912.12        71.04766
912.52         70.7128
912.91        70.42435
913.31        70.14626
913.70        69.89277
914.10        69.72926
914.49        69.69488
914.89        69.80344
915.29        70.04929
915.68        70.38358
916.08        70.78157
916.47        71.22826
916.87        71.67629
917.26        72.10755
917.66        72.41322
918.05        72.44059
918.45        72.16928
918.84         71.6775
919.24        71.12667
919.64        70.88431
920.03        71.06526
920.42        71.55602
920.82        72.14812
921.21        72.54273
921.61        72.62463
922.00         72.4752
922.40        72.19512
922.79        72.04466
923.19        72.07538
923.58        72.20175
923.98        72.25755
924.37        71.95461
924.77        71.29477
925.16        70.37548
925.55        69.46375
925.95        68.98224
926.34        69.08488
926.74        69.61735
927.13        70.42178
927.52        71.13851
927.92         71.6227
928.31        71.96041
928.70        72.18189
929.10        72.37077
929.49        72.57082
929.89         72.7243
930.28        72.78577
930.67        72.66235
931.07        72.34045
931.46        71.85966
931.85        71.39771
932.24        71.23157
932.64        71.41786
933.03        71.93214
933.42         72.4618
933.82        72.53569
934.21        72.07008
934.60        71.17609
934.99        70.32122
935.39        70.19519
935.78         70.9593
936.17        72.45155
936.56        74.02785
936.96        74.50415
937.35        73.63364
937.74        71.78616
938.13        69.82759
938.53        68.90816
938.92        69.20431
939.31        70.41011
939.70        71.94218
940.09        72.72477
940.49        72.43349
940.88        71.45179
941.27        70.28993
941.66        69.70274
942.05        69.88741
942.44        70.58666
942.84        71.51338
943.23        72.24482
943.62        72.55084
944.01         72.6088
944.40        72.51144
944.79        72.39444
945.18         72.3165
945.57        72.17168
945.97        72.02434
946.36        72.10296
946.75        72.38725
947.14        72.85109
947.53        73.23591
947.92        73.06637
948.31        72.27195
948.70        71.05861
949.09        69.81641
949.48        69.11577
949.87        69.10905
950.26         69.6493
950.65        70.54153
951.04         71.4181
951.43        72.09585
951.82        72.61691
952.21        73.00907
952.60        73.35139
952.99        73.63962
953.38        73.78277
953.77        73.70033
954.16        73.28215
954.55        72.57995
954.94        71.78796
955.33        70.99848
955.72        70.31548
956.11        69.79921
956.50        69.36018
956.89        69.26837
957.28        69.96398
957.66        71.48592
958.05        73.58199
958.44        75.46971
958.83        75.68918
959.22        73.96494
959.61        70.89241
960.00        67.55434
960.39        65.46806
960.78        64.99148
961.16        65.73189
961.55         67.1871
961.94        68.59853
962.33        69.62289
962.72        70.46693
963.11        71.09086
963.49        71.41193
963.88        71.38788
964.27        71.01439
964.66        70.42048
965.04        69.85425
965.43        69.38557
965.82        68.96678
966.21         68.7072
966.60        68.76624
966.98        69.15988
967.37        69.83044
967.76        70.47751
968.15        70.56534
968.53         70.0014
968.92        68.95248
969.31        67.78259
969.69        67.07797
970.08         66.9532
970.47        67.22928
970.86        67.73806
971.24        68.17462
971.63         68.3399
972.02        68.37901
972.40         68.2156
972.79        67.75623
973.17        67.08663
973.56        66.27193
973.95        65.57597
974.33         65.4266
974.72        65.85176
975.11        66.68404
975.49        67.85639
975.88        69.13683
976.26        70.38126
976.65        71.55513
977.04        72.21535
977.42        71.66177
977.81         69.8895
978.19        67.15047
978.58        64.63506
978.96        63.89416
979.35        65.20877
979.74        68.25032
980.12         72.1262
980.51        74.37595
980.89        74.34449
981.28        72.56207
981.66        70.08599
982.05        68.76481
982.43        69.07557
982.82        70.36819
983.20        72.30072
983.59        74.12624
983.97        75.57998
984.35        76.87507
984.74        77.54986
985.12        76.97362
985.51        75.11731
985.89        72.13045
986.28        69.05015
986.66        67.41511
987.04        67.71152
987.43          69.554
987.81        72.00178
988.20        73.18026
988.58        72.60655
988.96        70.68529
989.35        68.47997
989.73        67.67583
990.12        68.63461
990.50        70.87238
990.88        73.23055
991.27        73.86649
991.65        72.45228
992.03        69.65383
992.42        66.73184
992.80        65.34607
993.18        66.01349
993.56        68.14671
993.95        70.83425
994.33        72.80293
994.71        73.35107
995.10        72.88909
995.48        71.74176
995.86        70.43669
996.24        69.29279
996.63        68.19038
997.01        67.21684
997.39        66.50754
997.77        66.08562
998.15        65.98578
998.54        66.25703
998.92        66.91917
999.30         67.9122
999.68         69.1706
1000.06        70.39378
1000.45        71.06274
1000.83        71.14629
1001.21        70.64622
1001.59        69.82487
1001.97         69.2139
1002.35        68.98641
1002.73        68.99805
1003.12        69.13815
1003.50        69.13462
1003.88        68.95928
1004.26        68.81059
1004.64        68.63042
1005.02        68.28111
1005.40        67.79181
1005.78        67.15636
1006.16        66.76358
1006.54        67.30646
1006.92        68.86106
1007.30        71.14153
1007.69        73.36574
1008.07        74.51797
1008.45        74.21964
1008.83        72.77887
1009.21        70.75304
1009.59         69.1018
1009.97        68.20226
1010.35        67.88042
1010.73        67.98452
1011.11        68.20312
1011.49        68.46537
1011.86        69.10287
1012.24        70.03476
1012.62        71.50188
1013.00        73.50645
1013.38         75.7945
1013.76        78.16516
1014.14        80.41163
1014.52         82.3085
1014.90        83.79789
1015.28        84.36142
1015.66        83.25346
1016.04        80.74256
1016.41        77.52742
1016.79        74.58238
1017.17        72.56075
1017.55        71.33415
1017.93        70.52423
1018.31        70.07533
1018.69        69.92284
1019.06        69.98428
1019.44        70.39857
1019.82        70.55097
1020.20        69.73792
1020.58        67.94029
1020.95        65.05479
1021.33        61.95415
1021.71        61.04548
1022.09        63.50615
1022.46        68.47817
1022.84         74.1207
1023.22        78.09247
1023.60        79.74059
1023.97        79.81451
1024.35        78.18949
1024.73        74.90812
