SpectraSmart Spectrum 2.9.0.0
--------- Device Information -----------
Spectrum Name :  反射率_0
Saving Time :  2024/05/01 16:16:25
Spectro-Module Model Name : SE2030-DUVN
Spectro-Module Serial Number : OS361AC55029948
Wavelength Start : 200
Wavelength End : 1025
Wavelength Unit : Wavelength(nm)
Spectrum Unit : Reflectance(%)
-----------Spectrum Setting ------------
Integration Time : 20ms
Average : 10
Boxcar : 0
Background removal :  enabled
linearity correction :  enabled
SC :  disabled
Intensity correction :  disabled
DWT denoise :  enabled
savitzky-golay :  disabled
FFT :  disabled
Running average :  disabled
Kalman :  disabled
High pass :  disabled
---------------BEGIN--------------------
Wavelength(nm)             Reflectance(%)
200.29               0
200.75       -2.904464
201.21        275.1284
201.67       -181.7549
202.13       -69.58449
202.58       -20.30755
203.04        13.67689
203.50        37.20229
203.96         51.1353
204.42        60.46196
204.88        75.40577
205.34        403.4302
205.80       -5.913998
206.26        -4.29286
206.72       -34.63258
207.18       -228.3887
207.64        370.9993
208.10        177.1694
208.55        138.6946
209.01        121.7544
209.47        108.7111
209.93        95.94462
210.39        81.25665
210.85        69.20438
211.31         69.5588
211.77        108.8223
212.23       -280.1225
212.69        -48.4283
213.14       -26.95031
213.60       -14.03319
214.06       -62.84289
214.52       -22.08737
214.98       -13.97126
215.44       -2.093524
215.90        29.96091
216.36        525.0909
216.81       -257.5028
217.27       -359.8132
217.73        770.9418
218.19         149.515
218.65        80.81561
219.11        40.45252
219.57       -45.41447
220.02       -409.0942
220.48       -243.6774
220.94       -53.11454
221.40        1.412911
221.86        21.83635
222.32        29.32718
222.77        31.45112
223.23         30.7937
223.69        27.90398
224.15        25.24751
224.61        24.77541
225.06        25.02428
225.52        25.51537
225.98        25.81183
226.44         25.9133
226.90        26.01501
227.36         26.2605
227.81        26.67898
228.27         27.0687
228.73        27.30768
229.19        27.24912
229.65         26.7408
230.10        25.77163
230.56        24.52407
231.02        23.25338
231.48        22.92711
231.93        23.88851
232.39        25.57894
232.85        27.58155
233.31        29.67711
233.77        31.73719
234.22        33.77495
234.68        35.57803
235.14        37.11557
235.60        38.53004
236.05        40.02988
236.51        41.80587
236.97        43.83609
237.43        45.62802
237.88        46.78499
238.34        46.91947
238.80        46.44608
239.26        45.49752
239.71        44.01401
240.17        41.67596
240.63        38.98705
241.08        37.74332
241.54        38.97314
242.00        42.64842
242.46        49.46703
242.91        61.59729
243.37        82.11066
243.83        115.5378
244.28        143.9796
244.74        141.9766
245.20        125.2472
245.66        109.4956
246.11        98.95659
246.57        91.05423
247.03        81.23267
247.48        66.12901
247.94        45.93707
248.40        28.26591
248.85        18.86731
249.31        20.25735
249.77        27.72508
250.22        36.49882
250.68        44.65598
251.14         51.4358
251.59        57.63624
252.05        65.30987
252.51        78.56314
252.96        107.0723
253.42        153.2505
253.88         159.542
254.33        122.7104
254.79        96.87979
255.25        85.20543
255.70        79.82656
256.16        77.64809
256.62        76.38708
257.07        74.74622
257.53        73.40572
257.99        72.24513
258.44        71.36108
258.90        71.42212
259.35        71.78157
259.81        72.37971
260.27        72.53417
260.72         71.4922
261.18        69.65633
261.63        67.19803
262.09        64.78436
262.55        62.60502
263.00        60.61467
263.46        58.88855
263.91        57.26283
264.37        55.90331
264.83        54.71624
265.28        53.66242
265.74        52.72464
266.19        51.59367
266.65        50.34755
267.11        48.97334
267.56        47.66505
268.02        46.83354
268.47        46.48862
268.93        46.47189
269.38        46.47868
269.84        45.96976
270.30        44.85572
270.75        43.30532
271.21        41.64408
271.66        40.23542
272.12        39.23609
272.57        38.46193
273.03        37.83504
273.48        37.17799
273.94        36.46898
274.39        35.76149
274.85        35.07316
275.31        34.34491
275.76        33.57777
276.22        32.83047
276.67        32.13335
277.13        31.64521
277.58        31.31286
278.04        31.11374
278.49         30.9278
278.95        30.69502
279.40        30.33389
279.86        29.90461
280.31        29.37631
280.77        28.80459
281.22        28.16747
281.68        27.53241
282.13        26.87255
282.59        26.22911
283.04        25.60315
283.50        25.05942
283.95        24.64352
284.41        24.47248
284.86        24.53703
285.32        24.78372
285.77        25.14806
286.22        25.58251
286.68        26.05273
287.13        26.53901
287.59        26.94722
288.04        27.08705
288.50        26.96464
288.95        26.60451
289.41         26.2293
289.86        26.08191
290.32        26.24225
290.77        26.64454
291.22        27.13673
291.68        27.46561
292.13        27.59516
292.59        27.65957
293.04        27.84228
293.50        28.47069
293.95        29.59228
294.40        31.10349
294.86        32.81403
295.31        34.43357
295.77        35.86192
296.22        37.15615
296.68        38.42023
297.13        39.80388
297.58        41.37083
298.04        43.09263
298.49        44.87823
298.95        46.62576
299.40        48.28087
299.85        49.88197
300.31        51.56168
300.76        53.49994
301.21        55.74779
301.67        58.25985
302.12        60.80885
302.58        63.05705
303.03         64.8779
303.48        66.39944
303.94        67.91419
304.39        69.75445
304.84        72.05779
305.30        74.69597
305.75        77.44559
306.20        79.99002
306.66        82.22428
307.11        84.17825
307.57         85.9718
308.02        87.66334
308.47        89.33669
308.93        90.97601
309.38         92.5267
309.83        94.01028
310.29        95.45109
310.74         96.8475
311.19        98.23813
311.65        99.64853
312.10        101.0484
312.55        102.4104
313.00        103.7397
313.46        105.0538
313.91        106.3241
314.36        107.5403
314.82        108.5675
315.27         109.211
315.72        109.4371
316.18        109.3607
316.63        109.1589
317.08        109.1781
317.53        109.5137
317.99         110.089
318.44        110.7822
318.89         111.349
319.35        111.7134
319.80        111.9602
320.25        112.1702
320.70        112.4809
321.16        112.9068
321.61        113.3942
322.06        113.8797
322.51         114.293
322.97        114.5763
323.42        114.8007
323.87        114.9237
324.32        114.9007
324.78        114.7414
325.23        114.5189
325.68        114.3132
326.13        114.2764
326.59        114.4303
327.04        114.7887
327.49        115.2976
327.94        115.8846
328.39        116.4967
328.85        117.0858
329.30        117.6775
329.75        118.1452
330.20        118.4648
330.66        118.6238
331.11        118.7207
331.56        118.7884
332.01        118.8741
332.46        118.9779
332.92        119.1492
333.37         119.583
333.82        120.2719
334.27        121.2002
334.72        122.2137
335.17        123.0287
335.63        123.5227
336.08        123.7979
336.53        123.9749
336.98        124.3417
337.43        124.9712
337.88        125.7774
338.34         126.558
338.79        127.0745
339.24        127.2204
339.69        127.0983
340.14        126.9051
340.59        126.9426
341.05         127.282
341.50        127.8505
341.95        128.4911
342.40        128.9504
342.85        129.1653
343.30        129.2336
343.75        129.2846
344.20        129.5112
344.66        129.9557
345.11        130.5367
345.56        131.1841
346.01        131.7757
346.46        132.2563
346.91        132.6705
347.36        133.0012
347.81        133.2211
348.26        133.3456
348.72        133.3825
349.17        133.3936
349.62        133.5583
350.07        133.8757
350.52        134.2528
350.97        134.5445
351.42        134.5073
351.87        134.1001
352.32        133.4635
352.77        132.6359
353.22        131.6764
353.67        130.6581
354.13         129.594
354.58        128.6797
355.03        128.3357
355.48         128.595
355.93        129.3633
356.38        130.1518
356.83        130.1356
357.28        129.1532
357.73        127.4631
358.18        125.6831
358.63        124.7364
359.08        124.7848
359.53        125.5137
359.98        126.3775
360.43        126.4715
360.88        125.5561
361.33        123.9607
361.78        122.1145
362.23         120.616
362.68        119.6276
363.13         118.958
363.58        118.4146
364.03        117.7233
364.48         116.792
364.93        115.7062
365.38         114.605
365.83        113.6609
366.28        112.9044
366.73        112.2966
367.18        111.6147
367.63        110.5298
368.08        109.0344
368.53        107.2718
368.98        105.6454
369.43        104.7327
369.88        104.6073
370.33        105.0717
370.78        105.6789
371.23         105.646
371.68        104.7577
372.13        103.2765
372.58        101.5854
373.03        100.2585
373.48        99.44219
373.93        98.93073
374.38        98.58857
374.83        98.20816
375.28        97.70477
375.72          97.167
376.17        96.56968
376.62        95.78762
377.07         94.8285
377.52        93.70875
377.97        92.61815
378.42        91.87407
378.87        91.52817
379.32        91.48454
379.77           91.51
380.22        91.23432
380.67        90.57891
381.11        89.66885
381.56        88.69643
382.01        88.00446
382.46        87.68956
382.91         87.6318
383.36        87.68648
383.81        87.63432
384.26        87.40064
384.71        87.05335
385.15        86.62016
385.60        86.19316
386.05        85.78519
386.50        85.36249
386.95        84.92663
387.40         84.4961
387.85        84.07716
388.29        83.63261
388.74        83.24491
389.19         82.8252
389.64        82.36338
390.09        81.86585
390.54        81.37096
390.98        80.92807
391.43        80.60806
391.88        80.37163
392.33        80.17068
392.78        79.96738
393.23        79.75108
393.67        79.41291
394.12        79.05616
394.57        78.91588
395.02        78.88718
395.47        78.42226
395.91        77.66808
396.36        77.32614
396.81        77.44135
397.26        77.66563
397.71        77.82416
398.15        77.72697
398.60        77.40663
399.05        76.93342
399.50        76.46555
399.95        76.09813
400.39          75.938
400.84        76.14978
401.29        76.54573
401.74        76.52995
402.18        76.01807
402.63        75.27273
403.08        74.52452
403.53        74.00027
403.97        73.76309
404.42        73.74979
404.87        73.84706
405.32        73.85404
405.76        73.69855
406.21        73.55999
406.66        73.44067
407.11        73.10903
407.55        72.72089
408.00        72.77164
408.45        73.16103
408.90        73.26715
409.34        72.96368
409.79        72.40808
410.24         71.8006
410.68        71.50491
411.13        71.58823
411.58        71.84353
412.03        72.14626
412.47        72.36689
412.92        72.40863
413.37        72.32534
413.81        72.16291
414.26        72.05225
414.71        72.00658
415.15        72.00007
415.60        71.99578
416.05        71.99803
416.49        72.00112
416.94        72.00344
417.39        71.99899
417.83        71.95589
418.28        71.87764
418.73        71.78619
419.17         71.6846
419.62         71.5839
420.07        71.48612
420.51        71.36977
420.96        71.32486
421.41        71.35825
421.85        71.43599
422.30        71.74691
422.74         72.1305
423.19        72.06007
423.64        71.66523
424.08        71.84919
424.53        72.50964
424.98        72.76802
425.42        72.55457
425.87        72.41479
426.31        72.43224
426.76        72.28756
427.21        72.11763
427.65        72.47385
428.10        73.10211
428.54        73.28269
428.99        73.04667
429.44        72.39481
429.88        71.66501
430.33        72.23436
430.77        73.54843
431.22        73.44777
431.66        72.13255
432.11        71.37464
432.56        71.36468
433.00        72.08824
433.45        73.37675
433.89        72.78239
434.34        72.10974
434.78        73.59754
435.23        73.04507
435.67        73.04967
436.12        72.46372
436.57        72.92768
437.01        74.20989
437.46        74.71024
437.90        74.34292
438.35        74.06035
438.79        73.95222
439.24         73.6155
439.68         73.1958
440.13        73.29865
440.57        73.87994
441.02        74.27188
441.46        74.35545
441.91        74.72088
442.35         75.1991
442.80        74.91015
443.24        74.80011
443.69        74.63733
444.13        74.70544
444.58        74.69249
445.02        74.57385
445.47         74.6303
445.91        74.87474
446.36        75.02763
446.80        75.01325
447.24        75.77521
447.69        75.69037
448.13          75.916
448.58         75.9855
449.02        75.94447
449.47        75.85562
449.91        75.79224
450.36         75.8127
450.80        75.87236
451.25        75.93385
451.69        75.88161
452.13        75.70494
452.58        75.45395
453.02         75.2201
453.47        75.08241
453.91        75.02774
454.36        75.22923
454.80        75.62769
455.24        75.08195
455.69        75.04517
456.13        74.64052
456.58        74.52109
457.02        73.77551
457.46        73.69724
457.91        74.41595
458.35        74.99981
458.79        75.16978
459.24         74.5742
459.68        73.89149
460.13        73.47816
460.57        72.38486
461.01        72.70061
461.46        72.84334
461.90        73.21337
462.34        73.23779
462.79        72.83376
463.23        72.95593
463.68        73.43362
464.12         73.4922
464.56         73.0969
465.01        72.71944
465.45         72.4435
465.89        72.45658
466.34        72.56904
466.78        72.93962
467.22        71.92323
467.67        71.83488
468.11        71.92762
468.55        72.00586
468.99        71.92952
469.44        71.88062
469.88        71.87628
470.32        71.84742
470.77        71.80601
471.21        71.78621
471.65        71.77361
472.10        71.77545
472.54         71.7647
472.98        71.69695
473.42        71.56315
473.87        71.49579
474.31        71.45461
474.75        71.20831
475.20        70.88129
475.64        70.99841
476.08        71.44752
476.52        71.56886
476.97        71.29103
477.41        71.31631
477.85         70.6361
478.29        71.15322
478.74        70.81989
479.18        71.14035
479.62        70.77666
480.06        70.73037
480.50        70.74762
480.95        70.25801
481.39        70.61569
481.83        69.79961
482.27        70.56998
482.72        70.54318
483.16         70.4282
483.60        70.48814
484.04        70.64133
484.48        70.75117
484.93        70.60709
485.37        71.14278
485.81        70.70835
486.25         72.2383
486.69        71.36711
487.14        69.22993
487.58         68.6491
488.02        70.47919
488.46         70.2016
488.90        69.43269
489.34        70.19079
489.79        70.24788
490.23        70.19183
490.67        69.95142
491.11        69.60228
491.55        69.69577
491.99         70.1176
492.43        70.24223
492.88         70.0238
493.32        69.85715
493.76        69.80603
494.20        69.80336
494.64        69.84567
495.08        69.95629
495.52        70.15051
495.96        70.15446
496.41        69.88705
496.85        70.11839
497.29        70.50388
497.73        69.18285
498.17        69.46805
498.61        69.13327
499.05        68.85352
499.49        69.05214
499.93        69.50101
500.37        69.69581
500.82        69.57531
501.26        69.59661
501.70        69.75191
502.14        69.73851
502.58        69.57456
503.02        69.45815
503.46        69.41448
503.90        69.37785
504.34        69.37658
504.78        69.46366
505.22        69.61789
505.66        69.84834
506.10        70.09085
506.54        70.13105
506.98        69.85021
507.42        69.90385
507.86         69.0069
508.30        68.81087
508.74         68.9495
509.18        69.24333
509.62        69.56416
510.06        69.79443
510.50        69.88447
510.94        69.85574
511.38         69.7541
511.82        69.65253
512.26        69.57641
512.70        69.49335
513.14        69.39455
513.58        69.30127
514.02        69.21893
514.46         69.1066
514.90        68.94442
515.34        68.97232
515.78        68.74823
516.22        68.64626
516.66        68.55617
517.10        68.52187
517.54        68.54726
517.98        68.62165
518.42        68.74038
518.86        68.88174
519.30        69.03143
519.74         69.1856
520.18        69.31525
520.62        69.38276
521.06        69.37743
521.50         69.2968
521.93        69.18056
522.37        69.08703
522.81        69.03855
523.25        69.03265
523.69        69.01339
524.13        68.88778
524.57        68.65348
525.01        68.35263
525.45        68.09338
525.89        68.04198
526.32        68.22694
526.76        68.58347
527.20        68.99043
527.64        69.27818
528.08        69.39281
528.52         69.3204
528.96        69.12873
529.40        69.08332
529.83        69.13917
530.27        68.93547
530.71        68.55104
531.15         68.4331
531.59        68.60931
532.03        68.84801
532.46        69.05637
532.90        69.19285
533.34         69.2215
533.78        69.10629
534.22        68.89616
534.66        68.78893
535.09        68.74876
535.53        68.51103
535.97        68.14189
536.41        68.00436
536.85        68.12425
537.28        68.28226
537.72        68.41933
538.16        68.59465
538.60        68.72803
539.04        68.61672
539.47        68.32821
539.91         68.1876
540.35        68.21272
540.79        68.28071
541.22        68.34803
541.66        68.30553
542.10        68.31095
542.54        68.23287
542.97        68.15594
543.41        68.16154
543.85        68.24786
544.29        68.38982
544.72        68.51757
545.16        68.56203
545.60        68.49393
546.04        68.33758
546.47        68.15436
546.91        68.05473
547.35        68.07358
547.79        68.16187
548.22        68.22547
548.66        68.26602
549.10        68.26447
549.53        67.92348
549.97        67.90308
550.41        67.87158
550.84        68.02264
551.28        68.31086
551.72        68.63881
552.15        68.78165
552.59        68.73587
553.03        68.65856
553.46        68.56646
553.90        68.51642
554.34        68.52824
554.77        68.46569
555.21        68.29377
555.65        68.62122
556.08        68.36968
556.52        68.23455
556.96        67.95543
557.39        67.78611
557.83        67.78841
558.27        67.83291
558.70        67.87145
559.14        68.15012
559.57        68.07155
560.01        68.22259
560.45        68.34175
560.88        68.47203
561.32        68.57977
561.75        68.06335
562.19        67.25433
562.63        67.47325
563.06        68.49707
563.50        68.56161
563.93        67.73831
564.37        67.54005
564.80         67.9595
565.24        68.21548
565.68        68.22228
566.11        68.17143
566.55        68.17211
566.98        68.01931
567.42        67.87075
567.85        67.95403
568.29        68.24388
568.72        68.47784
569.16        68.68385
569.60        68.69773
570.03        68.41924
570.47        68.71034
570.90        68.69233
571.34        67.78181
571.77        68.32166
572.21        68.16788
572.64         68.0804
573.08        68.35941
573.51        68.16231
573.95        68.83872
574.38        68.35738
574.82        68.43094
575.25        68.66175
575.69        69.02417
576.12        68.55759
576.56        68.02802
576.99        68.67602
577.42        68.68362
577.86        68.54221
578.29        68.91871
578.73        69.43771
579.16        68.15131
579.60        67.87833
580.03         67.6754
580.47        68.63069
580.90        67.73818
581.33        68.45022
581.77        68.83195
582.20        69.26226
582.64        68.51347
583.07        68.66985
583.51        68.19911
583.94        68.03845
584.37        68.31554
584.81        68.98786
585.24         69.0517
585.68        68.43493
586.11        68.64083
586.54        68.48119
586.98        67.69228
587.41        67.45815
587.85        68.78553
588.28        68.77743
588.71        67.51902
589.15        68.48219
589.58        67.77336
590.01        67.86875
590.45        67.86018
590.88         68.1181
591.31         68.1778
591.75        67.94493
592.18        67.94695
592.61        67.71312
593.05        67.87757
593.48        68.04018
593.91        68.27782
594.35        67.83199
594.78        67.68452
595.21        67.57015
595.65        68.10957
596.08         67.6498
596.51         67.8653
596.94        67.45072
597.38        67.40096
597.81        67.49487
598.24        67.47839
598.68        68.02883
599.11        67.36423
599.54        68.60197
599.97        68.29191
600.41        67.43022
600.84        68.06023
601.27        67.71166
601.70        68.30891
602.14        68.57082
602.57        68.33153
603.00        67.67237
603.43        67.37171
603.87        67.88545
604.30        68.26349
604.73        67.75912
605.16         67.4388
605.60        67.40283
606.03        67.63863
606.46          67.952
606.89        68.07464
607.32        67.38335
607.76        67.20939
608.19        67.40063
608.62        68.00481
609.05        68.02837
609.48        67.96708
609.92        67.65569
610.35        67.00434
610.78        68.42181
611.21        68.48499
611.64        67.90386
612.07        68.16185
612.50        68.59801
612.94        68.12041
613.37        68.00523
613.80         67.9157
614.23        67.53069
614.66        67.85182
615.09        67.59809
615.52        67.70151
615.96        67.72391
616.39        68.03519
616.82        67.73907
617.25        67.73024
617.68          67.934
618.11        68.02229
618.54        67.89105
618.97        67.64275
619.40        67.35274
619.84        67.22908
620.27        67.32722
620.70        67.64723
621.13        68.06428
621.56         67.9328
621.99        67.65582
622.42        67.63467
622.85        67.70122
623.28        67.78899
623.71        67.42474
624.14        67.72418
624.57        67.78748
625.00        67.90678
625.43        67.83519
625.86        67.73612
626.29        67.63052
626.72        67.49281
627.15        67.41925
627.58        67.31387
628.01        67.20696
628.44        67.21215
628.87        67.34085
629.30        67.17126
629.73        67.36862
630.16        67.36427
630.59         67.3461
631.02         67.2928
631.45        67.22701
631.88        67.17819
632.31        67.14919
632.74        67.13935
633.17         67.1384
633.60        67.12788
634.03        67.10464
634.46        67.08214
634.89        67.06957
635.32        67.06866
635.75        67.08522
636.18        67.13384
636.61        67.19576
637.04        67.22446
637.47        67.21693
637.89        67.18255
638.32        67.09711
638.75        67.02158
639.18        66.97992
639.61        66.69392
640.04        66.68824
640.47        66.59452
640.90        66.57126
641.33        66.58305
641.76        66.61088
642.18        66.71216
642.61        66.87435
643.04        66.93677
643.47        66.81075
643.90        67.30478
644.33        66.96101
644.76        66.85754
645.18        66.65865
645.61        66.77214
646.04        67.10923
646.47        67.10991
646.90         66.8129
647.33        66.72675
647.75        66.86994
648.18        66.93603
648.61        66.92047
649.04        66.92416
649.47        66.93308
649.89         67.0208
650.32        67.14211
650.75        66.99644
651.18        66.68899
651.61        66.86002
652.03        67.41889
652.46        67.40955
652.89        66.85366
653.32        66.61307
653.74         66.8945
654.17        66.54304
654.60         67.1656
655.03        67.45103
655.46        66.51506
655.88        67.09595
656.31        74.01373
656.74        72.36434
657.16         66.4751
657.59        64.91431
658.02        66.41624
658.45        67.05341
658.87        67.21737
659.30        65.87089
659.73        66.36803
660.15        67.21233
660.58        66.74355
661.01        66.77567
661.44        66.61427
661.86         66.5954
662.29        66.70421
662.72        66.84867
663.14         67.0219
663.57        67.13545
664.00        67.18759
664.42        67.22363
664.85        67.24639
665.27        67.18344
665.70        67.06995
666.13        67.00847
666.55         67.0246
666.98        67.07385
667.41        67.14888
667.83         67.2421
668.26        67.32651
668.69        67.40621
669.11        67.46933
669.54        67.51965
669.96        67.54443
670.39        67.47734
670.82        67.35698
671.24        67.29356
671.67        67.30318
672.09        67.32883
672.52        67.34968
672.94        67.30183
673.37        67.18153
673.80        67.00899
674.22         66.8428
674.65         66.7439
675.07        66.74954
675.50        66.82605
675.92        66.94192
676.35        67.03662
676.77        67.09279
677.20        67.11726
677.62        67.12815
678.05        67.14275
678.47         67.1647
678.90        67.18967
679.32        67.19833
679.75        67.18628
680.17        67.14767
680.60        67.09337
681.02        67.04195
681.45        67.00535
681.87        67.00336
682.30        67.02424
682.72        67.07032
683.15        67.10912
683.57        67.13793
684.00        67.15488
684.42        67.17348
684.85        67.20908
685.27        67.24165
685.70         67.3284
686.12        67.41344
686.54        67.27569
686.97        66.96388
687.39        66.90252
687.82        67.05004
688.24        66.90007
688.66        66.53033
689.09        66.55511
689.51        66.94614
689.94        67.12894
690.36         67.0756
690.78        67.09149
691.21        67.22803
691.63         67.3605
692.06        67.53706
692.48        67.98203
692.90        68.53843
693.33        68.74095
693.75        68.54141
694.17        68.08928
694.60        67.58131
695.02        67.34641
695.44        67.39964
695.87        67.48002
696.29        67.52101
696.71        67.45463
697.14        67.34226
697.56        67.48489
697.98        67.82825
698.41        67.99067
698.83        67.94596
699.25        67.90926
699.68        67.89321
700.10        67.89334
700.52        67.91474
700.94        67.90469
701.37         67.8716
701.79        68.00413
702.21        68.14678
702.64        68.17426
703.06        68.06731
703.48        67.90519
703.90         67.6809
704.33        67.78926
704.75        67.42038
705.17        67.36789
705.59        67.39204
706.01        67.53041
706.44        67.76939
706.86        67.82005
707.28        68.13198
707.70        68.30684
708.12        68.45198
708.55        68.48951
708.97        68.41261
709.39        68.24709
709.81        68.03855
710.23        67.88966
710.66        67.83299
711.08        67.85555
711.50        67.92894
711.92        68.01852
712.34        68.10642
712.76        68.20473
713.19        68.27309
713.61        68.29229
714.03         68.2383
714.45        68.11917
714.87        67.99317
715.29        67.95169
715.71        68.01407
716.13        68.16162
716.56        68.31217
716.98        68.41032
717.40        68.40001
717.82        68.30306
718.24        68.19339
718.66         68.1889
719.08        68.31216
719.50        68.52693
719.92        68.73551
720.34        68.78266
720.76        68.63622
721.19        68.34595
721.61        68.03381
722.03         67.8835
722.45        67.94592
722.87        68.17764
723.29        68.46417
723.71        68.61334
724.13        68.56848
724.55        68.37985
724.97        68.17856
725.39        68.15307
725.81        68.33888
726.23        68.76059
726.65        69.08644
727.07        69.16745
727.49        68.90505
727.91        68.40257
728.33        67.86358
728.75        67.60708
729.17        67.71001
729.59        68.07665
730.01        68.54226
730.43        68.80341
730.85        68.78493
731.27        68.63541
731.69        68.43716
732.10        68.26942
732.52        68.18471
732.94        68.16318
733.36        68.20873
733.78         68.3273
734.20        68.50263
734.62        68.72231
735.04        68.95054
735.46        69.12557
735.88        69.23216
736.30        69.28991
736.72        69.27322
737.13        69.19417
737.55        69.04494
737.97        68.75375
738.39        68.44534
738.81        68.54028
739.23        68.96855
739.65        69.14503
740.06        69.00431
740.48        69.02171
740.90        69.16216
741.32        69.16186
741.74        69.02321
742.16        68.90983
742.57        68.84293
742.99        68.78749
743.41        68.78259
743.83         68.8074
744.25        68.88937
744.67        69.18314
745.08        69.56826
745.50        69.60983
745.92        69.27669
746.34        68.75637
746.75         68.2093
747.17        67.87058
747.59        67.79106
748.01        67.91147
748.42        68.15781
748.84         68.3635
749.26         68.4836
749.68        68.56415
750.09        68.61176
750.51        68.65698
750.93        68.70325
751.35        68.72358
751.76        68.75091
752.18        68.83443
752.60        68.96699
753.01            69.2
753.43        69.46403
753.85        69.51639
754.27        69.30096
754.68         69.5383
755.10        69.12744
755.52        69.14038
755.93        69.24586
756.35        69.42905
756.77        69.62198
757.18        69.70132
757.60        69.66476
758.02        69.63085
758.43        69.57576
758.85        69.36825
759.26        69.12904
759.68        69.04184
760.10        69.54674
760.51        69.76046
760.93        69.71704
761.34        69.73035
761.76        69.78152
762.18        69.42326
762.59        68.85554
763.01        68.86775
763.42        69.45664
763.84        69.69782
764.26        69.54861
764.67        69.46802
765.09        69.52281
765.50        69.55023
765.92        69.55743
766.33        69.44585
766.75        69.20087
767.16        69.18664
767.58        69.39758
768.00        69.53521
768.41        69.66082
768.83        70.23592
769.24        71.06802
769.66        71.34052
770.07        71.04874
770.49        70.75516
770.90        70.57684
771.32        70.47348
771.73        70.44296
772.15        70.33083
772.56        70.15919
772.97        70.10453
773.39        70.16743
773.80        70.28799
774.22        70.41904
774.63         70.6209
775.05         70.8148
775.46        70.94234
775.88        70.95412
776.29        70.89061
776.70        70.77882
777.12         70.6959
777.53        70.68278
777.95        70.69295
778.36        70.72057
778.77        70.73138
779.19        70.72314
779.60        70.71436
780.02        70.68519
780.43        70.67098
780.84          70.697
781.26        70.53827
781.67        70.26909
782.09        70.52225
782.50        71.11987
782.91        70.70412
783.33         69.9708
783.74        69.75137
784.15        70.28777
784.57        70.84712
784.98        71.33311
785.39        71.84174
785.81         72.2984
786.22        72.44876
786.63        72.68719
787.04        72.64967
787.46        72.50841
787.87        72.22657
788.28        71.95349
788.70        71.88725
789.11        72.03315
789.52          72.364
789.93         72.7212
790.35        72.82724
790.76        72.65214
791.17        72.27089
791.58        71.83318
792.00         71.6287
792.41        71.74771
792.82        71.89102
793.23        71.99274
793.65        72.48218
794.06        73.07371
794.47        72.58368
794.88        71.38088
795.29        70.94692
795.71        71.29755
796.12        71.77852
796.53        72.17099
796.94        72.42103
797.35        72.41368
797.76        72.18824
798.18        71.90305
798.59        71.76311
799.00        71.83729
799.41        72.04861
799.82        72.34494
800.23         72.6394
800.64        72.88567
801.06        73.09792
801.47        73.26054
801.88        73.23846
802.29        73.02317
802.70        72.64273
803.11        72.24078
803.52        72.05573
803.93        72.15128
804.34        72.46775
804.75        72.87051
805.17        73.15855
805.58        73.30611
805.99        73.16794
806.40        72.85062
806.81        72.95455
807.22        73.33234
807.63         72.9752
808.04        72.04513
808.45        71.69248
808.86         72.0109
809.27        72.37968
809.68        72.66848
810.09        72.92471
810.50        73.08257
810.91        73.13253
811.32        73.07807
811.73        72.93436
812.14        72.72718
812.55        72.45144
812.96        72.21281
813.37        72.19022
813.78        72.41537
814.19        72.84161
814.60        73.30737
815.01         73.5556
815.42         73.5265
815.83        73.28166
816.24        72.94543
816.65        72.76488
817.05        72.82684
817.46        73.02584
817.87        73.27936
818.28        73.42554
818.69        73.41757
819.10          73.304
819.51        73.13887
819.92        73.01624
820.33        72.97137
820.74        72.97206
821.14        72.96989
821.55        72.92175
821.96        72.81057
822.37        72.68396
822.78        72.58862
823.19        72.59676
823.60        72.73574
824.00        72.99037
824.41        73.31273
824.82        73.73902
825.23        74.22934
825.64        74.73779
826.04         75.1738
826.45        75.31161
826.86        75.13799
827.27        74.73395
827.68        74.17162
828.08         73.5983
828.49         73.0611
828.90        72.54833
829.31        72.19777
829.72         72.2084
830.12        72.62947
830.53        73.38445
830.94        74.18848
831.35         74.4697
831.75        74.10683
832.16        73.21685
832.57        72.25562
832.97         71.9213
833.38        72.34745
833.79        73.31161
834.20        74.43534
834.60        75.06799
835.01        74.98273
835.42        74.41846
835.82        73.61948
836.23        72.94975
836.64        72.54894
837.04        72.32371
837.45        72.22932
837.86        72.26987
838.26          72.426
838.67        72.66872
839.08        72.95919
839.48        73.18304
839.89        73.28568
840.29        73.29125
840.70        73.18389
841.11        72.91732
841.51        72.53328
841.92        72.03698
842.33        71.61402
842.73        71.57311
843.14         71.9264
843.54        72.63953
843.95        73.46071
844.35          74.025
844.76        74.18077
845.17        74.01994
845.57        73.71649
845.98        73.54672
846.38        73.60836
846.79        73.79466
847.19        74.00095
847.60        73.97209
848.00        73.68214
848.41        73.22112
848.81        72.76278
849.22        72.53596
849.62        72.61295
850.03        72.88774
850.43        73.26078
850.84        73.41756
851.24         73.3399
851.65        73.08311
852.05        72.81113
852.46        72.74433
852.86        72.91463
853.27        73.23391
853.67        73.58027
854.07        73.98045
854.48        74.34695
854.88        74.78518
855.29        75.03296
855.69        74.89148
856.10        74.22279
856.50        73.20887
856.90        72.16903
857.31        71.56996
857.71        71.50609
858.12        71.80254
858.52        72.33446
858.92        72.64017
859.33        72.55149
859.73        72.24821
860.13        71.78016
860.54         71.2609
860.94        70.75663
861.34        70.20676
861.75         69.7293
862.15        69.59109
862.55        69.81741
862.96        70.33763
863.36         70.9354
863.76        71.15652
864.17        70.89983
864.57        70.31223
864.97        69.64422
865.38        69.32058
865.78        69.48431
866.18        69.98027
866.58        70.61583
866.99        71.04537
867.39        71.17152
867.79        71.09221
868.19        70.87545
868.60        70.58415
869.00        70.26177
869.40        69.89484
869.80        69.58937
870.21        69.55235
870.61        69.86883
871.01          70.405
871.41        70.97496
871.81        71.29184
872.22        71.27165
872.62        71.00497
873.02        70.54326
873.42        69.98063
873.82        69.40544
874.22        68.83347
874.63         68.3871
875.03        68.24964
875.43         68.4558
875.83        68.95708
876.23        69.63997
876.63        70.31066
877.03        70.88131
877.44        71.34254
877.84        71.70084
878.24        71.92955
878.64        72.01935
879.04         71.9604
879.44        71.77018
879.84        71.48941
880.24        71.15108
880.64        70.78066
881.04         70.4391
881.44        70.19746
881.84         70.0864
882.24        70.11443
882.65        70.21237
883.05        70.35608
883.45        70.46968
883.85        70.53548
884.25        70.62313
884.65        70.84776
885.05        71.22277
885.45        71.72401
885.85        72.16415
886.25        72.23473
886.65        71.87276
887.05        71.15844
887.45        70.41916
887.85        70.16161
888.25        70.49419
888.65        71.29326
889.04        72.15903
889.44        72.41496
889.84        71.92927
890.24        70.89899
890.64        69.81619
891.04        69.39362
891.44        69.77322
891.84        70.77424
892.24        71.87136
892.64        72.17326
893.04        71.49302
893.44        70.13165
893.83        68.77416
894.23        68.45627
894.63        69.34972
895.03        71.12287
895.43        73.09074
895.83        74.00899
896.23        73.53471
896.63        72.14245
897.02        70.42837
897.42        69.33062
897.82        69.01959
898.22        69.25287
898.62        69.82146
899.01        70.41165
899.41        70.82832
899.81        71.19747
900.21        71.60894
900.61        72.17986
901.00        72.90327
901.40         73.6552
901.80        74.21955
902.20        74.30925
902.59        73.90038
902.99        73.11111
903.39        72.23293
903.79        71.73157
904.18        71.70917
904.58        72.03941
904.98         72.5079
905.38        72.78402
905.77        72.77309
906.17        72.62308
906.57        72.35379
906.96        72.01216
907.36        71.63242
907.76         71.1879
908.15        70.87224
908.55        70.96252
908.95        71.50163
909.34        72.41619
909.74        73.33999
910.14         73.7438
910.53        73.48859
910.93        72.72708
911.33         71.7806
911.72        71.16349
912.12        71.04089
912.52        71.26656
912.91        71.60577
913.31        71.66062
913.70        71.34434
914.10        70.81255
914.49        70.30474
914.89        70.15609
915.29         70.4455
915.68        71.03777
916.08         71.7373
916.47        72.24844
916.87        72.45875
917.26        72.45138
917.66        72.31887
918.05        72.19756
918.45         72.1318
918.84        72.12134
919.24        72.11879
919.64        72.13194
920.03        72.17442
920.42        72.22981
920.82         72.3439
921.21        72.59893
921.61        72.95692
922.00        73.39266
922.40        73.73269
922.79        73.75202
923.19        73.39236
923.58        72.76119
923.98        72.02693
924.37        71.35711
924.77        70.84776
925.16        70.45718
925.55        70.23357
925.95        70.21175
926.34        70.40715
926.74        70.76951
927.13        71.30293
927.52         71.9056
927.92        72.50385
928.31        73.09814
928.70        73.58109
929.10        73.82207
929.49        73.82474
929.89        73.62425
930.28         73.3343
930.67        73.11122
931.07        72.99517
931.46        72.91627
931.85        72.91728
932.24        73.06206
932.64        73.32399
933.03        73.74387
933.42         74.0164
933.82        73.67863
934.21        72.70013
934.60        71.22913
934.99        69.83868
935.39        69.37896
935.78        70.05149
936.17        71.65272
936.56        73.52361
936.96        74.41246
937.35        73.98931
937.74        72.59972
938.13        70.97997
938.53        70.12454
938.92        70.20271
939.31        70.94612
939.70        71.92848
940.09        72.38203
940.49        72.09472
940.88        71.38736
941.27        70.62463
941.66        70.33736
942.05         70.6546
942.44        71.35156
942.84        72.24391
943.23        73.09567
943.62        73.70689
944.01        74.18698
944.40        74.40611
944.79        74.16341
945.18        73.49488
945.57        72.45338
945.97        71.43303
946.36        71.16694
946.75         71.7571
947.14        73.01927
947.53        74.46346
947.92        75.18279
948.31        74.91484
948.70        73.95438
949.09        72.73478
949.48        71.91676
949.87         71.6999
950.26        71.88515
950.65        72.33318
951.04        72.80792
951.43        73.18153
951.82        73.51579
952.21        73.79045
952.60        73.96664
952.99         74.0234
953.38        73.91961
953.77        73.64056
954.16         73.1952
954.55        72.64789
954.94         72.1012
955.33        71.60091
955.72        71.19254
956.11        70.89955
956.50        70.66695
956.89        70.65559
957.28        71.12502
957.66         72.1165
958.05        73.43992
958.44         74.6073
958.83         74.6916
959.22        73.52924
959.61        71.50317
960.00        69.34263
960.39        68.06793
960.78        67.90802
961.16         68.6058
961.55        69.75857
961.94        70.78786
962.33         71.4376
962.72        71.85597
963.11        72.05389
963.49        72.06548
963.88        71.88763
964.27         71.5218
964.66        71.02875
965.04        70.52556
965.43        70.04602
965.82        69.57304
966.21        69.22403
966.60        69.17976
966.98        69.48582
967.37         70.0878
967.76        70.71558
968.15        70.89685
968.53        70.52798
968.92        69.70528
969.31        68.79338
969.69        68.38042
970.08        68.56565
970.47        69.21272
970.86        69.94161
971.24        70.07888
971.63        69.39829
972.02        68.17698
972.40        66.86693
972.79        66.16673
973.17        66.24703
973.56        66.87631
973.95        67.71101
974.33        68.24963
974.72        68.29395
975.11        67.93694
975.49        67.51608
975.88        67.62962
976.26        68.49477
976.65        69.84821
977.04        71.05601
977.42        71.09403
977.81        69.79654
978.19        67.51642
978.58        65.37464
978.96        64.79735
979.35        66.05209
979.74        68.79565
980.12        72.21839
980.51        74.08635
980.89        73.85485
981.28        72.04431
981.66        69.66924
982.05        68.47217
982.43        68.90247
982.82        70.35386
983.20        72.52106
983.59         74.7063
983.97        76.62685
984.35        78.42491
984.74         79.5647
985.12         79.3186
985.51        77.63159
985.89        74.69951
986.28        71.56219
986.66        69.76453
987.04        69.82869
987.43        71.37542
987.81        73.59199
988.20        74.82196
988.58        74.59968
988.96        73.22383
989.35        71.56393
989.73        70.98486
990.12        71.76996
990.50        73.57626
990.88        75.28958
991.27        75.15958
991.65        72.96542
992.03        69.35834
992.42        65.86403
992.80        64.54298
993.18        65.95185
993.56        69.41409
993.95        73.55728
994.33        76.25391
994.71        76.53699
995.10        75.00916
995.48        72.48966
995.86        70.38731
996.24        69.24679
996.63        68.63611
997.01        68.26966
997.39        67.72578
997.77        66.88894
998.15         66.0362
998.54        65.33504
998.92        65.00162
999.30         65.1378
999.68        65.63049
1000.06        66.38515
1000.45         67.2468
1000.83        68.20899
1001.21        69.14692
1001.59        69.94625
1001.97        70.45023
1002.35        70.59341
1002.73        70.41369
1003.12        69.90122
1003.50        69.01928
1003.88        67.92822
1004.26        66.78687
1004.64        65.87129
1005.02        65.53239
1005.40         65.8318
1005.78        66.65339
1006.16        67.86909
1006.54        69.19149
1006.92        70.40579
1007.30        71.48398
1007.69        72.17051
1008.07         72.3507
1008.45        71.93768
1008.83        71.00549
1009.21        69.81904
1009.59        68.84227
1009.97        68.27203
1010.35        68.07575
1010.73          68.259
1011.11        68.76501
1011.49        69.57352
1011.86        70.87559
1012.24         72.3472
1012.62         73.8261
1013.00        75.18986
1013.38        76.35216
1013.76        77.37659
1014.14        78.50935
1014.52        79.75821
1014.90        80.97412
1015.28        81.76617
1015.66        81.52782
1016.04        80.26289
1016.41        78.35643
1016.79        76.41251
1017.17        74.74263
1017.55        73.21648
1017.93          71.576
1018.31        69.62126
1018.69        67.53579
1019.06        65.95532
1019.44        65.19927
1019.82        65.01821
1020.20        64.97604
1020.58        64.98621
1020.95         65.0741
1021.33        65.56784
1021.71          66.799
1022.09         68.7142
1022.46        70.87453
1022.84        72.79931
1023.22        74.30101
1023.60        75.27994
1023.97        75.85804
1024.35        75.49262
1024.73        73.39362
