SpectraSmart Spectrum 2.9.0.0
--------- Device Information -----------
Spectrum Name :  光譜_0
Saving Time :  2024/04/26 20:38:09
Spectro-Module Model Name : SE2030-DUVN
Spectro-Module Serial Number : OS361AC55029948
Wavelength Start : 200
Wavelength End : 1025
Wavelength Unit : Wavelength(nm)
Spectrum Unit : Intensity(Counts)
-----------Spectrum Setting ------------
Integration Time : 1ms
Average : 1
Boxcar : 0
Background removal :  enabled
linearity correction :  enabled
SC :  disabled
Intensity correction :  disabled
DWT denoise :  enabled
savitzky-golay :  disabled
FFT :  disabled
Running average :  disabled
Kalman :  disabled
High pass :  disabled
---------------BEGIN--------------------
Wavelength(nm)          Intensity(Counts)
200.29       -3.142519
200.75      -0.6245525
201.21        1.798022
201.67        3.824126
202.13        4.822857
202.58        4.702946
203.04        3.539555
203.50        1.402309
203.96       -1.313103
204.42       -4.372347
204.88       -7.901646
205.34        -10.8975
205.80       -11.94804
206.26       -10.73254
206.72       -7.164831
207.18       -3.271646
207.64       -2.388967
208.10        -5.07608
208.55       -10.69666
209.01       -15.74949
209.47       -14.48814
209.93       -6.226244
210.39         6.82432
210.85        19.44687
211.31        23.35405
211.77        16.85406
212.23        2.952688
212.69       -13.50928
213.14       -24.75227
213.60       -28.39248
214.06       -26.76509
214.52       -21.91743
214.98       -17.29186
215.44       -14.22453
215.90        -11.3337
216.36       -9.079028
216.81       -8.379288
217.27       -9.239511
217.73       -12.04252
218.19       -14.97738
218.65       -14.73411
219.11       -10.84378
219.57       -4.193034
220.02        2.389366
220.48        4.195665
220.94       0.4590507
221.40         -6.9439
221.86       -14.83754
222.32       -18.19289
222.77       -15.61953
223.23       -8.763073
223.69       0.6149724
224.15        9.635453
224.61        17.14002
225.06        23.95637
225.52        29.90067
225.98        34.70092
226.44        38.43063
226.90        40.77393
227.36        42.76188
227.81        46.27359
228.27         51.7337
228.73         58.9341
229.19        66.40009
229.65        71.59283
230.10        74.07518
230.56        74.61282
231.02        75.23244
231.48        79.20422
231.93        87.00454
232.39        97.21954
232.85        107.3958
233.31        113.7113
233.77        115.1003
234.22        112.7298
234.68        108.0173
235.14        103.3276
235.60        99.49143
236.05        95.71997
236.51        91.87271
236.97        87.74909
237.43        83.16769
237.88        78.47949
238.34         73.0814
238.80        65.83525
239.26        56.64674
239.71        45.85126
240.17        34.71662
240.63        25.28545
241.08        18.14781
241.54        13.01582
242.00         8.71259
242.46        3.219479
242.91       -3.790834
243.37       -11.55947
243.83       -18.41995
244.28        -21.8065
244.74       -21.18495
245.20       -17.42723
245.66       -12.35679
246.11       -8.834414
246.57       -7.666277
247.03       -8.169055
247.48       -8.901649
247.94       -7.460653
248.40       -3.389802
248.85        2.320019
249.31         8.19088
249.77        11.93271
250.22        13.07976
250.68        12.65735
251.14        11.72472
251.59        11.96243
252.05        13.89721
252.51        16.78613
252.96        20.86097
253.42        26.42629
253.88        33.42091
254.33        42.29618
254.79        51.39937
255.25        57.92777
255.70        61.80586
256.16        64.03649
256.62        68.40477
257.07        80.92029
257.53        102.7347
257.99        132.0134
258.44        164.3022
258.90        192.3987
259.35        214.4053
259.81        232.2909
260.27        249.8027
260.72        272.9788
261.18        303.4679
261.63        339.4687
262.09        377.6448
262.55        412.8495
263.00        443.5953
263.46        470.9586
263.91        498.0419
264.37        529.9035
264.83        566.8931
265.28        606.3414
265.74        643.2269
266.19        669.9442
266.65        684.8362
267.11        690.6776
267.56         691.592
268.02        694.2629
268.47        700.9761
268.93        709.9019
269.38          720.27
269.84        730.5761
270.30        740.1884
270.75        750.4976
271.21        760.3022
271.66        767.1301
272.12        771.2483
272.57        773.7637
273.03        778.2569
273.48        790.5615
273.94        811.8804
274.39        840.2592
274.85        872.5148
275.31        903.4252
275.76        931.1417
276.22        956.9796
276.67        981.9058
277.13        1007.463
277.58        1034.731
278.04        1063.714
278.49        1094.597
278.95        1127.945
279.40        1163.671
279.86        1200.811
280.31        1240.512
280.77        1284.533
281.22        1332.022
281.68        1381.776
282.13        1427.976
282.59        1461.681
283.04        1481.658
283.50        1490.979
283.95        1497.641
284.41        1514.584
284.86        1545.238
285.32        1586.243
285.77         1631.59
286.22        1671.079
286.68        1702.018
287.13         1728.04
287.59        1752.897
288.04        1782.424
288.50         1818.19
288.95        1857.294
289.41        1897.972
289.86        1938.047
290.32        1975.944
290.77        2011.809
291.22        2044.229
291.68        2070.957
292.13        2091.712
292.59        2107.164
293.04        2118.881
293.50        2129.643
293.95        2140.711
294.40        2151.913
294.86        2163.681
295.31        2176.352
295.77        2189.864
296.22        2204.351
296.68        2219.041
297.13        2232.417
297.58        2244.278
298.04        2255.364
298.49        2266.464
298.95        2278.818
299.40        2293.292
299.85         2310.13
300.31        2330.132
300.76        2354.342
301.21        2382.968
301.67        2415.721
302.12        2451.954
302.58        2490.521
303.03         2530.65
303.48        2572.045
303.94        2614.146
304.39        2656.248
304.84        2698.173
305.30        2740.021
305.75        2781.527
306.20        2822.685
306.66        2863.194
307.11        2901.998
307.57        2940.307
308.02        2980.163
308.47        3021.347
308.93        3063.358
309.38        3101.321
309.83        3127.607
310.29        3141.256
310.74        3144.627
311.19        3145.755
311.65        3157.501
312.10         3182.65
312.55        3217.598
313.00        3253.582
313.46        3276.306
313.91         3282.38
314.36        3276.256
314.82        3266.048
315.27        3264.738
315.72        3275.583
316.18        3294.227
316.63         3313.98
317.08        3324.388
317.53        3322.644
317.99        3312.334
318.44        3298.422
318.89        3288.499
319.35        3284.738
319.80        3284.518
320.25        3284.165
320.70        3278.301
321.16        3265.073
321.61        3245.655
322.06        3223.127
322.51        3202.089
322.97        3183.793
323.42        3167.626
323.87        3148.885
324.32        3120.221
324.78        3080.835
325.23        3033.081
325.68        2985.928
326.13        2953.463
326.59            2938
327.04        2934.933
327.49        2932.304
327.94        2910.964
328.39        2866.647
328.85        2805.435
329.30        2738.856
329.75        2685.534
330.20        2650.494
330.66        2628.035
331.11        2610.101
331.56        2583.656
332.01        2545.308
332.46        2500.271
332.92        2453.623
333.37        2412.901
333.82        2380.523
334.27        2353.265
334.72         2329.56
335.17        2307.534
335.63         2285.68
336.08        2264.479
336.53        2242.422
336.98        2216.679
337.43        2187.394
337.88        2156.389
338.34        2125.729
338.79        2098.823
339.24        2077.376
339.69        2060.668
340.14        2050.753
340.59        2050.582
341.05        2059.416
341.50        2075.458
341.95        2092.729
342.40        2101.742
342.85        2100.251
343.30        2090.857
343.75         2078.38
344.20        2071.061
344.66        2071.657
345.11        2077.962
345.56        2088.278
346.01        2099.844
346.46         2111.13
346.91        2122.588
347.36        2133.956
347.81        2144.467
348.26        2153.924
348.72        2162.594
349.17        2169.191
349.62        2172.134
350.07        2171.756
350.52        2168.613
350.97        2167.316
351.42        2175.026
351.87        2192.795
352.32        2218.509
352.77        2245.138
353.22        2261.376
353.67        2264.547
354.13        2257.585
354.58        2247.781
355.03        2247.036
355.48        2258.307
355.93        2278.248
356.38        2299.887
356.83        2312.021
357.28        2312.323
357.73        2304.942
358.18        2297.219
358.63        2300.496
359.08        2317.476
359.53        2344.194
359.98        2374.174
360.43         2397.35
360.88        2410.629
361.33        2416.648
361.78        2419.541
362.23        2426.018
362.68        2437.704
363.13        2452.058
363.58        2465.487
364.03        2472.534
364.48        2472.272
364.93        2467.432
365.38        2461.413
365.83        2459.292
366.28        2462.449
366.73         2468.72
367.18        2476.752
367.63        2484.508
368.08         2490.54
368.53        2495.137
368.98         2496.16
369.43        2490.328
369.88        2477.395
370.33        2458.433
370.78        2437.279
371.23        2420.114
371.68        2409.168
372.13        2404.091
372.58        2402.392
373.03        2399.502
373.48        2394.565
373.93        2389.108
374.38        2387.261
374.83         2395.14
375.28        2413.858
375.72        2441.525
376.17        2471.576
376.62        2494.091
377.07        2506.267
377.52        2509.263
377.97        2511.113
378.42        2524.997
378.87        2553.127
379.32        2591.829
379.77        2628.258
380.22        2642.006
380.67          2629.9
381.11        2599.096
381.56        2566.904
382.01        2561.002
382.46        2587.131
382.91        2635.762
383.36        2690.905
383.81         2726.38
384.26        2736.024
384.71        2730.666
385.15        2719.611
385.60        2717.487
386.05        2730.252
386.50        2751.976
386.95        2786.631
387.40        2841.081
387.85        2913.336
388.29        3001.147
388.74        3088.825
389.19        3150.084
389.64        3180.945
390.09        3190.756
390.54        3196.547
390.98        3227.051
391.43        3289.334
391.88        3371.451
392.33        3465.979
392.78        3561.351
393.23        3649.477
393.67        3732.731
394.12        3799.758
394.57        3831.479
395.02         3829.11
395.47        3803.422
395.91        3774.258
396.36        3773.964
396.81        3811.192
397.26        3874.594
397.71        3960.873
398.15        4058.618
398.60        4157.113
399.05        4269.549
399.50        4370.315
399.95        4385.674
400.39        4326.267
400.84        4279.892
401.29        4260.694
401.74        4225.523
402.18        4183.047
402.63        4172.698
403.08        4189.033
403.53        4200.789
403.97        4202.723
404.42        4201.867
404.87        4204.872
405.32        4221.314
405.76        4251.224
406.21        4289.407
406.66        4317.537
407.11        4309.139
407.55        4260.626
408.00        4180.373
408.45        4097.514
408.90        4058.579
409.34        4074.046
409.79         4131.35
410.24        4199.384
410.68        4227.793
411.13        4204.569
411.58        4144.449
412.03         4077.92
412.47        4054.153
412.92        4083.691
413.37        4148.398
413.81        4218.519
414.26        4247.914
414.71        4224.773
415.15        4164.966
415.60        4091.151
416.05        4038.893
416.49        4019.166
416.94        4021.373
417.39        4034.229
417.83         4039.15
418.28        4032.356
418.73        4024.839
419.17        4022.554
419.62        4032.915
420.07        4058.171
420.51        4091.682
420.96        4137.065
421.41        4199.971
421.85        4276.227
422.30        4365.659
422.74        4446.545
423.19        4472.663
423.64        4442.799
424.08        4394.681
424.53        4345.141
424.98        4293.369
425.42         4248.09
425.87        4232.934
426.31        4237.969
426.76        4211.394
427.21         4164.69
427.65        4167.405
428.10        4218.515
428.54        4270.648
428.99        4319.337
429.44         4367.99
429.88        4420.428
430.33        4508.433
430.77         4610.53
431.22        4644.162
431.66        4599.241
432.11        4542.819
432.56        4479.379
433.00        4356.597
433.45        4225.821
433.89         4204.94
434.34        4275.679
434.78        4448.623
435.23         4440.88
435.67        4481.664
436.12        4492.796
436.57        4476.057
437.01        4448.583
437.46        4434.627
437.90        4446.979
438.35        4491.731
438.79         4549.26
439.24         4576.25
439.68        4566.151
440.13        4535.455
440.57        4515.126
441.02        4546.314
441.46        4635.369
441.91        4780.765
442.35        4942.354
442.80        5018.729
443.24        5012.528
443.69        5028.495
444.13        5075.838
444.58        5093.393
445.02        5086.712
445.47        5098.386
445.91        5128.088
446.36        5152.105
446.80          5169.4
447.24        5190.152
447.69        5214.113
448.13        5238.408
448.58        5263.002
449.02        5286.623
449.47        5311.719
449.91        5344.003
450.36        5383.032
450.80        5425.003
451.25        5464.781
451.69        5494.552
452.13        5512.763
452.58        5523.445
453.02        5528.697
453.47        5532.045
453.91        5536.513
454.36        5542.033
454.80        5556.497
455.24        5591.088
455.69        5648.332
456.13        5728.076
456.58         5816.75
457.02        5891.613
457.46        5947.862
457.91         5988.65
458.35        6032.616
458.79        6112.414
459.24        6228.754
459.68        6363.007
460.13        6486.233
460.57        6552.988
461.01        6554.612
461.46        6514.504
461.90        6447.666
462.34         6376.97
462.79        6319.368
463.23        6271.868
463.68        6263.739
464.12        6340.089
464.56        6500.385
465.01        6724.499
465.45        6955.913
465.89         7103.57
466.34        7142.259
466.78        7094.137
467.22        6996.068
467.67        6912.602
468.11        6866.553
468.55        6841.776
468.99        6829.211
469.44        6813.192
469.88        6789.895
470.32         6772.53
470.77        6764.987
471.21        6767.391
471.65        6781.589
472.10        6806.184
472.54        6842.152
472.98        6893.266
473.42        6957.898
473.87          7030.5
474.31        7107.979
474.75        7186.808
475.20        7262.617
475.64         7333.51
476.08        7390.872
476.52          7423.1
476.97        7430.936
477.41        7418.197
477.85        7398.389
478.29        7402.034
478.74        7431.059
479.18        7459.251
479.62        7492.425
480.06        7546.726
480.50        7616.958
480.95          7711.4
481.39        7814.354
481.83        7811.166
482.27         7819.35
482.72        7803.947
483.16        7807.417
483.60        7779.442
484.04        7742.421
484.48        7763.024
484.93         7827.64
485.37        7915.036
485.81        8252.627
486.25        8554.902
486.69         11890.7
487.14        12733.31
487.58        9274.521
488.02        8262.322
488.46        8327.726
488.90        8055.906
489.34        7682.584
489.79        7521.474
490.23        7671.152
490.67         7774.16
491.11        7805.939
491.55        7793.071
491.99        7742.695
492.43         7705.78
492.88        7696.404
493.32        7695.854
493.76        7695.774
494.20        7678.978
494.64        7641.842
495.08        7614.358
495.52        7605.359
495.96        7569.701
496.41        7524.073
496.85        7582.675
497.29        7711.118
497.73        7677.299
498.17        7591.914
498.61        7514.281
499.05        7496.434
499.49        7482.172
499.93        7491.292
500.37        7478.711
500.82        7452.974
501.26        7449.532
501.70        7467.318
502.14        7479.472
502.58        7477.143
503.02        7461.384
503.46        7431.281
503.90        7386.675
504.34        7339.208
504.78        7308.444
505.22        7298.872
505.66        7305.339
506.10        7318.154
506.54        7320.616
506.98        7308.008
507.42        7285.882
507.86        7259.168
508.30         7235.62
508.74        7218.113
509.18        7203.634
509.62        7191.691
510.06        7182.109
510.50        7174.111
510.94        7168.126
511.38        7162.322
511.82        7153.247
512.26        7140.173
512.70        7123.892
513.14        7106.141
513.58        7090.088
514.02        7076.864
514.46        7065.985
514.90        7057.333
515.34        7050.241
515.78        7045.098
516.22        7043.472
516.66        7045.096
517.10         7049.38
517.54        7055.913
517.98        7063.082
518.42        7073.651
518.86        7092.318
519.30        7118.598
519.74        7150.762
520.18        7179.198
520.62        7188.958
521.06        7177.948
521.50        7150.988
521.93        7122.264
522.37        7114.649
522.81        7133.446
523.25         7172.27
523.69        7217.918
524.13        7248.346
524.57        7258.696
525.01        7257.508
525.45        7255.219
525.89        7268.257
526.32        7301.206
526.76        7346.921
527.20        7401.239
527.64        7458.491
528.08        7514.202
528.52        7568.715
528.96        7616.792
529.40         7649.86
529.83        7667.537
530.27        7673.917
530.71        7675.775
531.15        7684.158
531.59        7704.002
532.03        7734.147
532.46        7776.459
532.90        7831.506
533.34        7896.782
533.78        7973.752
534.22        8055.177
534.66        8119.192
535.09        8166.625
535.53        8222.726
535.97        8281.497
536.41        8314.137
536.85        8321.044
537.28         8318.89
537.72        8320.781
538.16        8341.266
538.60        8384.725
539.04        8447.252
539.47        8517.855
539.91        8577.333
540.35        8620.886
540.79        8655.462
541.22        8686.093
541.66        8721.458
542.10        8764.484
542.54        8809.767
542.97         8861.02
543.41        8924.928
543.85        9000.492
544.29        9086.433
544.72        9167.595
545.16         9219.48
545.60        9238.396
546.04        9231.302
546.47        9219.899
546.91        9240.831
547.35        9301.961
547.79        9389.786
548.22         9482.19
548.66        9553.455
549.10        9582.474
549.53        9585.858
549.97        9575.519
550.41         9590.61
550.84        9627.802
551.28        9654.989
551.72        9683.038
552.15        9721.664
552.59        9760.566
553.03        9944.198
553.46        9956.983
553.90        10039.26
554.34        10096.15
554.77        10130.76
555.21        10156.52
555.65        10201.41
556.08        10273.22
556.52        10372.58
556.96        10481.04
557.39        10541.11
557.83        10559.35
558.27        10608.66
558.70         10696.6
559.14        10774.02
559.57        10847.15
560.01        10963.37
560.45        11110.25
560.88        11233.13
561.32        11324.79
561.75        11407.86
562.19        11486.19
562.63        11560.42
563.06           11634
563.50        11705.98
563.93        11787.85
564.37        11877.78
564.80        11967.41
565.24        12092.07
565.68        12265.28
566.11        12236.61
566.55        12459.32
566.98        12568.66
567.42        12690.52
567.85        12805.28
568.29        12920.73
568.72        13032.01
569.16        13159.59
569.60        13384.76
570.03        13639.11
570.47        13947.08
570.90        14261.71
571.34        14477.11
571.77        14591.15
572.21        14760.31
572.64        14977.03
573.08           14850
573.51        14533.77
573.95        14832.89
574.38        15620.97
574.82        15804.61
575.25        16073.85
575.69        15855.96
576.12        15555.58
576.56        15288.08
576.99        15165.27
577.42        15709.75
577.86        16063.98
578.29        16236.88
578.73           17414
579.16        16996.41
579.60        15775.58
580.03        15173.92
580.47        15475.08
580.90         15619.2
581.33        15753.21
581.77        15744.83
582.20        17614.14
582.64        18678.28
583.07        17738.38
583.51        16635.26
583.94        15332.63
584.37        14554.22
584.81        14506.44
585.24        14997.22
585.68        15670.12
586.11        16204.79
586.54        16091.62
586.98        15566.63
587.41        14802.84
587.85        14830.35
588.28        15528.17
588.71        15329.88
589.15        14687.01
589.58        14358.37
590.01        13934.13
590.45        13751.75
590.88        13623.23
591.31        13555.96
591.75        13473.45
592.18        13414.97
592.61        13574.53
593.05         13521.8
593.48        14258.17
593.91        15226.38
594.35        14897.63
594.78        14673.96
595.21        14215.98
595.65        14228.35
596.08        14567.64
596.51        14491.44
596.94        14110.99
597.38        13966.77
597.81        14081.28
598.24        14196.23
598.68        14368.02
599.11        14375.36
599.54        14678.82
599.97        15553.09
600.41        15249.64
600.84        15494.33
601.27        15490.43
601.70        15380.95
602.14        15168.38
602.57        14989.79
603.00        14896.49
603.43           15205
603.87        15219.92
604.30         15309.6
604.73        15236.66
605.16        14956.16
605.60        14606.44
606.03        14657.04
606.46        14990.96
606.89        15203.32
607.32        14688.33
607.76        14544.05
608.19        14608.29
608.62        14549.48
609.05        14329.79
609.48        14174.22
609.92        13991.54
610.35        13827.44
610.78        14180.96
611.21        14391.28
611.64        14049.87
612.07        13851.25
612.50        13751.14
612.94        13622.99
613.37        13502.47
613.80        13481.51
614.23        13529.85
614.66        13491.76
615.09        13374.35
615.52        13325.55
615.96        13332.47
616.39        13276.92
616.82         13157.7
617.25        13017.01
617.68        12878.29
618.11        12801.75
618.54        12764.59
618.97        12652.59
619.40        12492.04
619.84        12345.03
620.27        12337.43
620.70         12340.5
621.13        12356.45
621.56        12257.88
621.99        12083.58
622.42        12075.47
622.85        12214.66
623.28        12244.35
623.71        12142.74
624.14        12152.98
624.57        12069.11
625.00        12029.47
625.43        11978.65
625.86        11890.42
626.29        11754.05
626.72        11775.46
627.15        11615.37
627.58         11547.2
628.01        11476.24
628.44        11423.42
628.87        11386.84
629.30        11364.38
629.73        11347.41
630.16        11312.93
630.59        11256.29
631.02        11183.49
631.45         11102.1
631.88        11024.92
632.31        10957.99
632.74        10900.05
633.17        10851.43
633.60           10812
634.03        10780.76
634.46        10758.09
634.89        10744.59
635.32        10737.63
635.75        10734.02
636.18         10744.3
636.61        10753.78
637.04        10733.04
637.47        10678.85
637.89        10602.61
638.32        10524.16
638.75        10473.15
639.18        10456.55
639.61        10465.48
640.04         10480.4
640.47        10469.22
640.90        10424.01
641.33        10355.51
641.76        10278.81
642.18        10217.97
642.61        10180.05
643.04        10156.78
643.47        10140.53
643.90        10119.49
644.33        10090.06
644.76        10057.94
645.18        10024.99
645.61        9993.193
646.04        9964.009
646.47        9935.317
646.90        9910.762
647.33         9898.44
647.75        9903.295
648.18        9913.667
648.61        9915.406
649.04        9926.677
649.47        9952.295
649.89        9828.835
650.32        9833.378
650.75        9809.123
651.18        9820.195
651.61        9780.546
652.03        9691.155
652.46        9622.194
652.89        9613.769
653.32        9607.166
653.74        9616.584
654.17        9788.456
654.60        9573.712
655.03        9375.129
655.46        9591.372
655.88        9778.176
656.31        10500.24
656.74        25559.86
657.16        36098.11
657.59        20824.47
658.02        11409.66
658.45        9626.638
658.87        9515.764
659.30        9535.062
659.73        9390.809
660.15        9072.258
660.58        9225.582
661.01          9250.4
661.44        9258.504
661.86        9295.641
662.29        9327.034
662.72        9199.818
663.14        9124.432
663.57        9108.583
664.00        9188.017
664.42        9202.206
664.85        9139.314
665.27        9071.719
665.70        9019.502
666.13        8990.938
666.55        8989.326
666.98        9011.407
667.41        9047.455
667.83         9028.73
668.26        9046.191
668.69        9027.138
669.11        9000.904
669.54        8967.723
669.96        8932.342
670.39        8892.643
670.82        8862.551
671.24        8867.614
671.67         8909.46
672.09        8978.689
672.52        9050.884
672.94        9086.367
673.37        9074.988
673.80        9028.104
674.22        8963.699
674.65        8911.868
675.07        8883.094
675.50         8869.97
675.92        8866.669
676.35         8863.15
676.77        8856.615
677.20         8852.81
677.62        8853.885
678.05        8861.553
678.47        8875.235
678.90        8890.405
679.32         8905.32
679.75        8919.139
680.17        8929.261
680.60        8934.722
681.02        8930.647
681.45        8907.849
681.87        8866.845
682.30        8818.535
682.72         8771.28
683.15        8726.296
683.57        8694.144
684.00        8697.638
684.42        8730.658
684.85        8759.675
685.27        8778.235
685.70        8800.706
686.12        8822.689
686.54        8830.916
686.97        8823.364
687.39        8802.559
687.82         8771.32
688.24        8735.624
688.66        8699.172
689.09        8662.596
689.51        8629.632
689.94        8604.991
690.36        8590.278
690.78        8585.677
691.21        8587.688
691.63        8590.115
692.06        8589.521
692.48         8584.21
692.90        8576.762
693.33         8570.87
693.75        8566.669
694.17        8567.536
694.60         8563.52
695.02        8530.266
695.44         8470.19
695.87        8411.297
696.29        8372.803
696.71         8354.06
697.14        8367.809
697.56        8451.606
697.98        8568.501
698.41        8617.897
698.83        8583.665
699.25        8507.781
699.68        8415.978
700.10        8339.062
700.52        8290.936
700.94        8262.924
701.37        8246.232
701.79        8227.118
702.21        8200.349
702.64        8171.466
703.06        8144.052
703.48        8121.022
703.90        8104.245
704.33        8094.187
704.75        8084.547
705.17        8066.785
705.59         8039.78
706.01        8003.758
706.44        7976.057
706.86        7982.605
707.28        8024.783
707.70        8097.929
708.12        8168.233
708.55        8169.008
708.97        8095.965
709.39        7995.705
709.81        7897.873
710.23        7823.403
710.66        7786.143
711.08        7791.558
711.50        7817.172
711.92        7817.783
712.34        7783.353
712.76        7726.943
713.19        7670.266
713.61        7647.518
714.03        7663.472
714.45            7702
714.87        7735.698
715.29        7722.854
715.71        7655.229
716.13        7550.873
716.56        7432.542
716.98        7335.638
717.40        7273.588
717.82        7236.657
718.24        7223.258
718.66        7230.417
719.08        7251.295
719.50        7283.766
719.92        7313.239
720.34        7315.776
720.76        7285.465
721.19        7228.327
721.61        7153.483
722.03        7077.735
722.45         7010.11
722.87        6949.835
723.29        6902.785
723.71        6876.969
724.13        6872.213
724.55        6885.003
724.97        6907.806
725.39        6925.956
725.81        6932.203
726.23         6930.01
726.65        6915.857
727.07        6870.166
727.49        6820.135
727.91        6750.207
728.33        6677.952
728.75        6619.239
729.17        6579.902
729.59        6556.051
730.01         6547.71
730.43        6553.376
730.85        6569.693
731.27        6597.051
731.69        6622.483
732.10        6625.705
732.52        6603.216
732.94         6557.38
733.36        6503.667
733.78        6481.258
734.20        6498.008
734.62        6519.449
735.04        6517.819
735.46        6570.933
735.88        6474.569
736.30        6399.715
736.72        6307.444
737.13        6225.706
737.55        6161.395
737.97        6129.869
738.39        6125.134
738.81        6079.764
739.23        6013.401
739.65        6047.464
740.06        6148.317
740.48        6156.928
740.90         6060.89
741.32        5941.216
741.74        5830.619
742.16        5751.146
742.57        5716.304
742.99        5719.205
743.41        5740.958
743.83        5750.229
744.25        5737.106
744.67        5710.831
745.08         5678.61
745.50        5652.027
745.92         5634.86
746.34        5621.258
746.75        5609.694
747.17        5599.494
747.59        5590.601
748.01        5585.646
748.42        5584.105
748.84        5584.161
749.26          5585.5
749.68         5586.65
750.09        5591.083
750.51        5605.932
750.93        5630.202
751.35        5658.375
751.76        5681.453
752.18        5687.812
752.60        5674.822
753.01        5645.511
753.43        5610.411
753.85        5587.023
754.27         5580.75
754.68        5588.417
755.10        5602.353
755.52        5609.807
755.93        5607.991
756.35        5599.761
756.77        5591.418
757.18        5604.609
757.60         5644.08
758.02         5680.87
758.43        5694.911
758.85        5778.335
759.26        5729.664
759.68        5706.294
760.10        5667.631
760.51        5644.526
760.93        5640.829
761.34        5660.282
761.76        5675.978
762.18         5623.48
762.59        5506.971
763.01        5380.426
763.42        5281.839
763.84        5244.256
764.26        5278.521
764.67        5367.324
765.09        5473.296
765.50         5554.83
765.92        5579.581
766.33        5507.485
766.75          5367.1
767.16        5260.861
767.58        5207.799
768.00        5158.863
768.41        5117.977
768.83        5106.759
769.24        5122.077
769.66        5167.678
770.07        5221.599
770.49        5225.569
770.90        5179.952
771.32        5138.616
771.73        5109.316
772.15        5066.536
772.56         5014.94
772.97        4975.869
773.39        4946.046
773.80        4907.706
774.22        4859.389
774.63        4808.423
775.05        4759.549
775.46        4718.504
775.88        4687.126
776.29        4663.447
776.70        4643.063
777.12        4619.635
777.53        4591.651
777.95        4560.632
778.36         4532.18
778.77        4515.425
779.19        4512.088
779.60        4518.695
780.02        4527.378
780.43        4528.043
780.84        4518.012
781.26        4493.719
781.67        4462.754
782.09        4452.735
782.50        4459.099
782.91        4443.976
783.33        4409.114
783.74         4387.13
784.15        4379.843
784.57        4370.506
784.98        4357.712
785.39        4347.438
785.81        4340.496
786.22          4335.4
786.63        4337.641
787.04        4355.984
787.46        4390.375
787.87        4436.136
788.28        4482.777
788.70        4514.384
789.11        4525.278
789.52        4517.543
789.93        4497.871
790.35         4477.43
790.76        4461.102
791.17        4449.779
791.58        4436.938
792.00         4411.63
792.41        4373.891
792.82        4327.466
793.23          4291.1
793.65        4294.076
794.06        4337.904
794.47        4408.899
794.88        4475.647
795.29         4488.79
795.71        4436.896
796.12        4336.321
796.53         4211.81
796.94        4104.051
797.35        4027.627
797.76          3972.3
798.18        3932.939
798.59        3900.227
799.00        3869.266
799.41         3844.79
799.82        3822.042
800.23        3791.213
800.64        3750.403
801.06        3700.416
801.47        3646.747
801.88        3600.375
802.29        3564.156
802.70        3534.806
803.11        3509.512
803.52        3483.322
803.93        3454.628
804.34        3425.915
804.75        3396.604
805.17        3365.408
805.58        3332.542
805.99        3297.466
806.40        3263.951
806.81         3238.39
807.22        3221.471
807.63        3211.144
808.04        3200.125
808.45        3177.143
808.86        3139.079
809.27        3087.807
809.68        3031.862
810.09        2984.902
810.50        2950.765
810.91        2927.938
811.32        2905.284
811.73        2864.604
812.14        2803.737
812.55         2728.91
812.96         2659.95
813.37        2627.925
813.78        2637.825
814.19        2678.461
814.60          2724.2
815.01         2734.46
815.42        2699.037
815.83        2629.701
816.24        2548.062
816.65        2489.374
817.05        2463.505
817.46        2459.804
817.87        2463.297
818.28        2450.123
818.69        2414.219
819.10        2364.917
819.51        2313.449
819.92        2276.523
820.33        2258.323
820.74        2251.699
821.14        2248.902
821.55        2238.547
821.96        2216.934
822.37        2188.296
822.78         2155.19
823.19        2121.337
823.60        2088.836
824.00        2056.371
824.41        2026.035
824.82        2001.463
825.23         1983.08
825.64        1970.341
826.04        1959.492
826.45         1944.07
826.86         1922.26
827.27        1895.137
827.68        1866.071
828.08        1840.908
828.49        1820.925
828.90        1804.382
829.31         1787.64
829.72        1764.792
830.12        1735.308
830.53         1702.52
830.94        1671.043
831.35        1647.789
831.75        1634.737
832.16        1629.369
832.57        1629.851
832.97        1633.181
833.38        1637.271
833.79        1642.158
834.20        1644.847
834.60        1641.088
835.01        1629.664
835.42        1610.479
835.82        1587.441
836.23        1567.254
836.64        1552.099
837.04        1542.023
837.45         1532.22
837.86        1514.406
838.26        1487.972
838.67        1455.993
839.08        1428.432
839.48         1420.87
839.89        1435.303
840.29        1465.395
840.70        1497.622
841.11        1510.683
841.51        1499.056
841.92        1469.098
842.33        1430.778
842.73        1400.509
843.14        1383.716
843.54        1375.887
843.95        1372.891
844.35        1368.037
844.76        1359.166
845.17        1349.226
845.57        1340.018
845.98        1333.535
846.38        1330.179
846.79        1328.307
847.19        1326.046
847.60        1321.305
848.00        1313.154
848.41        1301.675
848.81        1288.547
849.22        1276.337
849.62        1265.977
850.03        1257.906
850.43        1249.445
850.84        1236.027
851.24        1217.744
851.65        1196.565
852.05        1179.174
852.46        1176.062
852.86        1188.403
853.27        1211.568
853.67        1236.606
854.07        1249.455
854.48        1245.911
854.88         1229.64
855.29        1205.477
855.69        1181.729
856.10        1161.589
856.50        1142.948
856.90        1125.277
857.31        1107.701
857.71        1090.067
858.12        1073.913
858.52        1059.326
858.92        1045.578
859.33        1032.516
859.73        1019.927
860.13        1008.115
860.54        997.8137
860.94        989.0153
861.34        981.3715
861.75        973.8879
862.15        965.1168
862.55        954.7355
862.96        943.0698
863.36        931.5153
863.76        922.2404
864.17        915.8527
864.57        912.0455
864.97        908.9534
865.38        903.6452
865.78        895.3635
866.18        884.4186
866.58        873.6593
866.99        867.6834
867.39        867.0983
867.79        870.5543
868.19        873.0646
868.60        866.6705
869.00        850.2625
869.40        826.8767
869.80        803.2205
870.21         789.972
870.61        789.5875
871.01        798.4757
871.41        811.1907
871.81        818.8486
872.22        818.7722
872.62        813.9169
873.02        806.4194
873.42        799.7354
873.82        795.3248
874.22        791.6246
874.63        789.6111
875.03          791.16
875.43        796.1993
875.83        804.5336
876.23        813.1539
876.63        816.9022
877.03        814.7708
877.44        808.1224
877.84        800.4971
878.24        797.7988
878.64        801.3777
879.04         809.282
879.44        818.3015
879.84        823.3275
880.24        822.9019
880.64        818.6237
881.04        812.6522
881.44        808.3401
881.84        806.8001
882.24          807.12
882.65        807.9459
883.05        807.2339
883.45        804.4945
883.85        800.4211
884.25        796.6583
884.65        795.6575
885.05        797.7664
885.45        802.0302
885.85        806.0074
886.25        805.9525
886.65         801.072
887.05         792.555
887.45        783.1439
887.85        777.1643
888.25        775.8933
888.65        778.4468
889.04        782.5405
889.44        784.3751
889.84        783.1611
890.24        780.1396
890.64        777.9335
891.04        780.6965
891.44        788.9401
891.84        800.5822
892.24        812.3724
892.64        819.4097
893.04        820.2316
893.44        816.3143
893.83        809.3751
894.23         802.217
894.63         796.184
895.03        790.9232
895.43        786.6853
895.83        783.7435
896.23        782.2596
896.63        782.5933
897.02        784.8006
897.42        788.6277
897.82        793.7066
898.22        799.6039
898.62        805.5258
899.01        810.4775
899.41         813.951
899.81        815.8038
900.21        816.2556
900.61         815.837
901.00        814.8662
901.40        813.5783
901.80        811.7893
902.20        809.1222
902.59         805.814
902.99        802.2237
903.39        799.7509
903.79        800.4525
904.18        804.5154
904.58         811.087
904.98        817.9084
905.38        821.4777
905.77        820.7101
906.17        816.1765
906.57        809.6466
906.96        804.1678
907.36        800.5598
907.76        798.1711
908.15        795.3069
908.55        789.1177
908.95        779.5486
909.34        768.4284
909.74        758.4951
910.14        753.8011
910.53        755.3281
910.93        761.4019
911.33         770.357
911.72        779.6639
912.12        787.6639
912.52        794.2134
912.91        798.1749
913.31        797.9048
913.70        793.4606
914.10        785.8809
914.49        776.1997
914.89        766.2717
915.29         757.308
915.68        749.1428
916.08        744.1663
916.47        745.7922
916.87        754.0013
917.26        767.5355
917.66        781.2266
918.05        786.8145
918.45        782.3005
918.84        769.5997
919.24        753.8304
919.64        743.5737
920.03        741.1122
920.42        744.2048
920.82        748.4751
921.21        746.7793
921.61        737.6692
922.00        723.9378
922.40        710.1274
922.79        703.2273
923.19         704.743
923.58        711.8929
923.98        720.8771
924.37        725.7337
924.77        724.8053
925.16        720.4155
925.55        714.1165
925.95        708.3323
926.34        704.2539
926.74         700.778
927.13        699.2195
927.52        701.9617
927.92        708.6307
928.31        718.0658
928.70        726.6871
929.10        728.5578
929.49        722.5349
929.89        710.9141
930.28        696.3571
930.67        683.3342
931.07        673.7175
931.46        666.2393
931.85        662.0353
932.24        662.7603
932.64        667.8629
933.03        676.6901
933.42        685.0254
933.82        685.9987
934.21        678.1203
934.60        663.1765
934.99        645.5853
935.39        632.7015
935.78        626.8594
936.17        626.5984
936.56        628.9608
936.96        628.9786
937.35        625.4055
937.74        619.7344
938.13        615.1392
938.53        616.5035
938.92        624.3515
939.31        636.3523
939.70        647.7959
940.09        651.5198
940.49        645.9581
940.88        633.5623
941.27        618.4913
941.66        607.5179
942.05        602.5723
942.44        601.4191
942.84        602.1019
943.23        601.3972
943.62        598.1316
944.01        593.8118
944.40        588.1172
944.79        580.2196
945.18        570.6232
945.57        559.7001
945.97        549.8527
946.36        545.1133
946.75        546.1475
947.14        551.4782
947.53        558.6184
947.92        563.4933
948.31        564.5645
948.70        562.6652
949.09        558.2557
949.48        552.2256
949.87         545.322
950.26        537.6354
950.65        529.8094
951.04          522.96
951.43        517.5461
951.82         513.399
952.21        511.0183
952.60        510.9885
952.99        512.7935
953.38        515.7176
953.77        517.6013
954.16        515.0579
954.55        507.5562
954.94        496.5251
955.33        483.8327
955.72        472.5989
956.11        464.1281
956.50        457.6639
956.89        453.9772
957.28         454.056
957.66        457.5767
958.05        464.2835
958.44         471.274
958.83        473.8117
959.22        470.8448
959.61        463.3471
960.00        454.5978
960.39        450.1652
960.78        451.3137
961.16        456.3177
961.55         461.834
961.94        462.5804
962.33        457.1414
962.72         447.049
963.11         435.349
963.49        426.7582
963.88        422.6474
964.27        422.0047
964.66        421.8338
965.04        417.3693
965.43        407.8136
965.82        394.8189
966.21        382.8134
966.60        378.6408
966.98        383.5306
967.37        395.1012
967.76        407.7934
968.15        412.8831
968.53        408.1596
968.92             396
969.31        381.4858
969.69         372.866
970.08        372.2264
970.47        377.0818
970.86        382.9036
971.24        382.4798
971.63        374.2664
972.02        361.0243
972.40        347.1296
972.79        339.3357
973.17        339.2406
973.56         344.275
973.95        351.0785
974.33        354.4039
974.72        352.6694
975.11        347.7543
975.49         340.961
975.88        334.3297
976.26        328.7625
976.65        323.3292
977.04        318.7783
977.42        316.4799
977.81        316.4108
978.19        318.4074
978.58        320.3641
978.96        318.6608
979.35         312.694
979.74        303.5938
980.12        293.8846
980.51        287.7859
980.89         286.203
981.28        287.5027
981.66        289.7938
982.05         290.037
982.43        287.2244
982.82        282.5259
983.20        276.0816
983.59         268.061
983.97        259.0638
984.35        249.1345
984.74        240.0835
985.12        234.8575
985.51        233.9532
985.89        236.5791
986.28        240.4858
986.66        241.8857
987.04        239.7247
987.43        234.9789
987.81        229.2362
988.20        225.1355
988.58        223.5141
988.96        223.6275
989.35        224.4515
989.73        224.4515
990.12        223.1549
990.50        220.9389
990.88        218.8849
991.27        218.5968
991.65        220.2798
992.03         223.365
992.42        225.8815
992.80        224.8206
993.18        219.6373
993.56        211.1998
993.95        202.1797
994.33        196.8804
994.71        196.2017
995.10        198.8633
995.48        202.0426
995.86        201.0756
996.24         195.106
996.63        186.0985
997.01        176.5972
997.39        170.6407
997.77        169.2796
998.15        170.6995
998.54        174.0748
998.92        178.1658
999.30        181.9787
999.68        185.9071
1000.06        187.7939
1000.45        184.1859
1000.83        174.8665
1001.21        160.8946
1001.59        146.2561
1001.97        137.5401
1002.35        136.1995
1002.73        140.3294
1003.12        146.3039
1003.50        147.9862
1003.88        143.8652
1004.26        136.2537
1004.64         127.312
1005.02        120.4892
1005.40        116.9716
1005.78        115.2024
1006.16        115.3656
1006.54        117.9689
1006.92        122.4141
1007.30        128.5172
1007.69         133.644
1008.07         133.405
1008.45        127.2225
1008.83        116.6715
1009.21          105.06
1009.59        97.85963
1009.97         96.5994
1010.35        99.59573
1010.73        105.1684
1011.11        110.4818
1011.49        114.2408
1011.86        117.1506
1012.24        118.6271
1012.62        117.7248
1013.00        114.4866
1013.38        109.0413
1013.76        102.7142
1014.14        97.87476
1014.52        95.24661
1014.90        94.44057
1015.28        94.70487
1015.66        94.62218
1016.04        93.71629
1016.41         92.3643
1016.79        90.94028
1017.17        89.99017
1017.55        89.64727
1017.93        89.68559
1018.31        89.56972
1018.69        88.57254
1019.06         86.5925
1019.44        83.86684
1019.82        81.37469
1020.20        80.59162
1020.58        81.84901
1020.95        84.82581
1021.33        88.11138
1021.71        89.50362
1022.09        88.39868
1022.46        85.07751
1022.84        81.38515
1023.22        80.30847
1023.60        82.38791
1023.97        86.89506
1024.35        90.88519
1024.73        89.64931
