SpectraSmart Spectrum 2.9.0.0
--------- Device Information -----------
Spectrum Name :  光譜_0
Saving Time :  2024/05/03 19:50:36
Spectro-Module Model Name : SE2030-DUVN
Spectro-Module Serial Number : OS361AC55029948
Wavelength Start : 200
Wavelength End : 1025
Wavelength Unit : Wavelength(nm)
Spectrum Unit : Intensity(Counts)
-----------Spectrum Setting ------------
Integration Time : 1ms
Average : 1
Boxcar : 0
Background removal :  enabled
linearity correction :  enabled
SC :  disabled
Intensity correction :  disabled
DWT denoise :  enabled
savitzky-golay :  disabled
FFT :  disabled
Running average :  disabled
Kalman :  disabled
High pass :  disabled
---------------BEGIN--------------------
Wavelength(nm)          Intensity(Counts)
200.29       -40.28249
200.75       -38.06411
201.21       -33.90007
201.67       -28.54846
202.13       -23.09009
202.58       -18.22821
203.04       -13.67526
203.50       -10.56695
203.96       -10.65672
204.42       -14.10078
204.88       -20.50595
205.34       -27.57613
205.80           -31.6
206.26       -31.55109
206.72        -27.9384
207.18       -23.25431
207.64       -21.69745
208.10       -24.12243
208.55       -29.38926
209.01       -34.10209
209.47       -32.86618
209.93       -24.82194
210.39       -11.97098
210.85        1.087241
211.31          7.1755
211.77        4.621427
212.23       -4.410079
212.69       -15.54758
213.14       -21.71637
213.60       -21.10941
214.06       -15.97529
214.52       -9.779964
214.98       -8.038628
215.44       -12.18231
215.90       -20.14561
216.36        -29.3318
216.81       -35.87558
217.27       -38.41394
217.73       -37.90785
218.19       -35.75069
218.65        -34.0881
219.11       -33.51781
219.57       -33.40725
220.02        -32.2239
220.48       -27.69083
220.94       -19.60978
221.40       -9.039792
221.86        1.317083
222.32        7.394895
222.77        8.276153
223.23        5.044865
223.69       0.5996219
224.15      -0.3098752
224.61        3.421859
225.06        10.36808
225.52        17.83597
225.98        21.42279
226.44        20.25737
226.90        16.24848
227.36        11.81945
227.81        10.63966
228.27         13.9008
228.73        20.41782
229.19        29.27075
229.65        39.02325
230.10        48.82993
230.56        58.83788
231.02        68.43909
231.48        76.72279
231.93        83.27086
232.39        87.78836
232.85        90.52296
233.31        92.16406
233.77        93.00535
234.22        93.14993
234.68        92.26077
235.14        89.76739
235.60        85.68968
236.05        80.19611
236.51        74.58028
236.97        70.79557
237.43        69.07138
237.88        68.86331
238.34         67.8968
238.80        62.51658
239.26        52.14347
239.71        38.09128
240.17        23.34463
240.63        12.64277
241.08        7.278307
241.54        6.046785
242.00        6.649531
242.46        5.255277
242.91       0.9075722
243.37       -5.061939
243.83       -10.81699
244.28       -13.49874
244.74       -12.44255
245.20       -8.870928
245.66       -4.188395
246.11      -0.4886286
246.57        1.556179
247.03        2.663338
247.48        3.292805
247.94        4.176297
248.40         5.57892
248.85        7.002778
249.31        8.661592
249.77        11.05339
250.22        14.05066
250.68        17.48086
251.14        20.41992
251.59        21.29665
252.05        20.01503
252.51        17.45507
252.96        14.81801
253.42        13.96599
253.88        15.70488
254.33        19.74641
254.79        26.30038
255.25        35.53824
255.70        47.25598
256.16        61.42505
256.62        77.15414
257.07        92.85886
257.53         108.331
257.99        124.2219
258.44        141.3188
258.90        161.0067
259.35        183.6954
259.81        208.6531
260.27        236.1191
260.72        266.5331
261.18        299.3502
261.63        334.0293
262.09        368.3797
262.55        398.9358
263.00        425.0834
263.46        447.9047
263.91        469.4067
264.37        493.1302
264.83        519.8076
265.28        547.6591
265.74        575.9426
266.19         603.499
266.65        629.3392
267.11        653.8486
267.56        674.4353
268.02        687.0499
268.47        691.4358
268.93        688.7961
269.38        684.2252
269.84         686.048
270.30        696.1418
270.75         712.482
271.21        730.1311
271.66        740.5707
272.12        742.4246
272.57        739.6931
273.03        736.9594
273.48        741.3708
273.94        755.0913
274.39        775.1188
274.85        801.0498
275.31        832.2625
275.76        867.2672
276.22         906.392
276.67        944.4197
277.13        972.8676
277.58        990.8521
278.04         1000.98
278.49        1011.552
278.95        1036.318
279.40        1078.162
279.86        1132.414
280.31        1191.417
280.77        1242.741
281.22        1282.365
281.68        1313.681
282.13        1339.919
282.59        1366.394
283.04        1395.295
283.50        1425.011
283.95         1455.12
284.41        1485.374
284.86        1515.656
285.32        1546.514
285.77        1578.821
286.22          1613.3
286.68        1649.838
287.13        1688.149
287.59        1725.613
288.04        1758.306
288.50        1785.468
288.95        1807.798
289.41        1829.315
289.86        1856.581
290.32        1890.783
290.77        1929.952
291.22        1968.438
291.68        1997.315
292.13        2014.454
292.59        2022.111
293.04        2026.483
293.50         2037.61
293.95        2057.719
294.40         2083.91
294.86        2109.476
295.31        2123.562
295.77         2124.43
296.22        2116.788
296.68        2108.231
297.13        2110.546
297.58        2126.851
298.04        2153.103
298.49        2184.945
298.95        2215.239
299.40        2241.486
299.85        2266.465
300.31        2289.987
300.76        2311.604
301.21        2332.189
301.67        2351.414
302.12        2373.569
302.58        2405.911
303.03        2449.463
303.48        2502.172
303.94        2557.776
304.39         2605.82
304.84        2643.869
305.30        2674.988
305.75        2704.373
306.20        2740.788
306.66        2786.105
307.11        2836.273
307.57        2887.747
308.02        2935.296
308.47         2976.53
308.93        3012.965
309.38        3043.491
309.83        3066.269
310.29        3082.014
310.74        3091.813
311.19        3099.798
311.65        3112.652
312.10        3132.284
312.55        3157.318
313.00        3184.944
313.46        3210.237
313.91         3231.06
314.36        3247.773
314.82        3261.067
315.27        3272.307
315.72        3281.587
316.18        3288.219
316.63        3289.969
317.08        3283.732
317.53         3269.65
317.99        3249.457
318.44        3228.102
318.89        3213.128
319.35        3206.261
319.80        3205.533
320.25        3206.135
320.70        3199.979
321.16        3185.064
321.61        3163.986
322.06        3140.367
322.51        3120.104
322.97        3104.713
323.42        3091.665
323.87        3078.863
324.32         3063.33
324.78        3043.606
325.23        3020.395
325.68        2993.367
326.13        2961.898
326.59         2926.32
327.04        2887.181
327.49        2845.628
327.94         2803.56
328.39        2762.067
328.85        2721.386
329.30        2682.365
329.75        2645.943
330.20        2612.086
330.66        2580.404
331.11         2549.59
331.56        2517.477
332.01         2483.34
332.46         2447.62
332.92        2410.831
333.37         2373.95
333.82        2337.709
334.27        2302.403
334.72        2268.647
335.17        2237.263
335.63        2208.768
336.08        2183.395
336.53         2161.63
336.98        2143.923
337.43        2130.105
337.88        2119.755
338.34        2111.592
338.79        2103.732
339.24        2095.388
339.69        2086.475
340.14         2077.72
340.59        2070.538
341.05        2065.301
341.50        2061.849
341.95        2058.989
342.40        2054.777
342.85        2049.218
343.30        2043.284
343.75        2039.534
344.20        2041.911
344.66        2050.998
345.11        2065.152
345.56        2081.388
346.01        2094.987
346.46        2104.397
346.91        2110.682
347.36         2115.03
347.81        2119.644
348.26        2125.236
348.72        2130.857
349.17        2136.471
349.62        2142.142
350.07         2147.89
350.52        2154.331
350.97        2160.928
351.42        2166.427
351.87        2171.035
352.32        2175.493
352.77        2181.455
353.22        2191.607
353.67        2206.182
354.13        2223.551
354.58        2242.124
355.03         2259.53
355.48        2274.419
355.93        2287.062
356.38        2296.214
356.83        2300.069
357.28        2299.065
357.73        2294.489
358.18        2289.343
358.63         2288.42
359.08        2293.196
359.53        2302.534
359.98         2315.48
360.43        2330.019
360.88         2345.03
361.33        2360.967
361.78        2376.006
362.23        2387.424
362.68         2394.58
363.13        2397.381
363.58         2398.74
364.03        2403.682
364.48        2413.235
364.93        2426.354
365.38        2438.605
365.83        2442.859
366.28        2437.715
366.73        2425.103
367.18        2411.198
367.63        2405.793
368.08        2410.859
368.53        2423.482
368.98        2435.905
369.43        2435.857
369.88        2420.636
370.33        2393.986
370.78        2364.673
371.23        2346.515
371.68        2343.175
372.13        2351.267
372.58        2362.375
373.03        2362.943
373.48        2350.183
373.93        2328.758
374.38        2308.843
374.83        2306.047
375.28        2324.103
375.72        2358.518
376.17        2398.299
376.62        2426.155
377.07        2437.663
377.52        2436.996
377.97        2435.518
378.42        2451.619
378.87         2488.47
379.32        2539.142
379.77        2589.189
380.22        2616.167
380.67         2615.25
381.11        2594.243
381.56        2567.158
382.01        2556.295
382.46        2567.763
382.91        2594.809
383.36        2628.475
383.81        2653.898
384.26        2667.552
384.71        2676.504
385.15        2685.381
385.60        2700.835
386.05        2725.552
386.50        2755.644
386.95         2793.72
387.40         2844.91
387.85        2907.689
388.29        2979.646
388.74        3050.448
389.19        3102.985
389.64         3135.61
390.09         3155.89
390.54        3174.231
390.98        3210.457
391.43        3269.764
391.88        3336.133
392.33        3409.837
392.78        3508.808
393.23        3619.269
393.67        3700.946
394.12        3745.101
394.57        3770.921
395.02        3780.956
395.47        3764.615
395.91        3738.025
396.36        3737.614
396.81        3770.954
397.26        3825.147
397.71        3902.093
398.15        3996.408
398.60        4097.965
399.05        4225.568
399.50        4345.627
399.95        4352.646
400.39         4263.81
400.84        4213.084
401.29        4210.807
401.74        4173.928
402.18        4110.986
402.63        4079.394
403.08        4076.357
403.53        4099.487
403.97        4086.425
404.42        4093.018
404.87        4104.689
405.32        4125.638
405.76        4153.989
406.21        4186.388
406.66        4209.106
407.11        4201.986
407.55        4162.531
408.00        4096.201
408.45        4027.304
408.90        3994.649
409.34        4007.231
409.79        4056.218
410.24        4113.557
410.68        4133.253
411.13        4105.035
411.58        4042.026
412.03        3975.838
412.47        3956.989
412.92        3995.852
413.37         4075.12
413.81        4159.473
414.26        4193.653
414.71        4164.445
415.15        4089.286
415.60        4000.935
416.05        3951.663
416.49        3954.803
416.94        3993.986
417.39        4043.464
417.83        4061.448
418.28        4039.566
418.73        3997.271
419.17        3954.717
419.62        3942.075
420.07        3968.278
420.51        4019.357
420.96         4091.23
421.41        4178.293
421.85        4271.651
422.30        4370.925
422.74        4454.655
423.19        4485.458
423.64        4458.482
424.08        4390.754
424.53        4306.158
424.98        4233.451
425.42         4184.75
425.87        4170.512
426.31         4174.46
426.76        4140.167
427.21        4077.795
427.65         4057.47
428.10        4085.964
428.54        4134.123
428.99        4198.669
429.44        4266.215
429.88        4339.896
430.33        4459.731
430.77        4594.564
431.22        4652.736
431.66         4614.56
432.11        4517.563
432.56         4391.02
433.00        4245.026
433.45        4143.173
433.89        4142.746
434.34        4377.438
434.78        4450.292
435.23        4366.473
435.67        4367.207
436.12        4438.445
436.57        4431.809
437.01        4359.216
437.46        4325.319
437.90        4342.301
438.35         4380.47
438.79        4424.483
439.24        4456.592
439.68        4468.528
440.13        4458.258
440.57        4452.635
441.02        4498.655
441.46        4601.116
441.91        4748.565
442.35        4902.925
442.80        4982.252
443.24         4984.82
443.69        4984.914
444.13        5000.485
444.58        5009.766
445.02        5021.422
445.47        5058.643
445.91        5111.493
446.36        5148.182
446.80        5163.927
447.24        5170.959
447.69        5176.833
448.13        5191.542
448.58        5218.229
449.02        5251.886
449.47         5288.31
449.91        5322.364
450.36        5351.585
450.80        5377.042
451.25          5399.9
451.69        5421.797
452.13         5443.57
452.58         5465.35
453.02        5485.858
453.47        5502.927
453.91        5516.823
454.36        5530.293
454.80         5550.25
455.24        5578.035
455.69          5614.1
456.13        5677.481
456.58        5764.312
457.02        5790.344
457.46        5849.343
457.91        5924.102
458.35        6036.085
458.79        6119.297
459.24        6177.302
459.68        6271.552
460.13          6386.4
460.57        6450.463
461.01        6458.802
461.46        6450.419
461.90        6433.378
462.34        6408.281
462.79        6385.978
463.23        6369.767
463.68        6378.327
464.12        6445.242
464.56        6570.992
465.01        6724.446
465.45        6874.493
465.89        7005.669
466.34        7083.871
466.78        7046.641
467.22        6925.427
467.67        6829.896
468.11        6788.024
468.55         6778.61
468.99        6785.479
469.44        6771.346
469.88         6730.93
470.32        6693.874
470.77        6670.727
471.21        6663.453
471.65         6676.57
472.10        6709.526
472.54        6759.139
472.98        6821.384
473.42        6892.072
473.87        6966.778
474.31         7044.95
474.75        7127.211
475.20         7209.47
475.64        7289.247
476.08          7356.7
476.52        7383.984
476.97        7368.318
477.41        7342.951
477.85        7336.645
478.29        7254.407
478.74        7352.394
479.18        7367.862
479.62        7381.789
480.06        7432.198
480.50        7518.036
480.95        7617.791
481.39        7707.648
481.83        7747.839
482.27        7735.352
482.72        7720.699
483.16        7724.766
483.60        7692.238
484.04        7635.999
484.48        7704.673
484.93        7871.132
485.37        7794.731
485.81        7981.643
486.25        8340.246
486.69        11623.94
487.14        12503.41
487.58        9190.368
488.02        8257.925
488.46         8037.71
488.90         7940.93
489.34        7643.169
489.79        7552.291
490.23        7624.412
490.67        7635.465
491.11        7595.772
491.55        7572.436
491.99        7568.053
492.43        7537.209
492.88        7491.039
493.32        7480.419
493.76        7498.476
494.20        7497.172
494.64        7471.993
495.08        7445.802
495.52        7426.807
495.96        7413.647
496.41        7407.056
496.85        7419.218
497.29        7432.515
497.73        7394.462
498.17        7317.771
498.61        7264.404
499.05         7246.95
499.49        7258.765
499.93        7286.776
500.37        7287.955
500.82        7265.946
501.26        7272.095
501.70        7305.343
502.14        7328.242
502.58        7331.619
503.02        7320.857
503.46        7294.863
503.90        7252.145
504.34        7203.241
504.78        7165.858
505.22        7144.601
505.66        7137.501
506.10         7141.43
506.54        7133.746
506.98         7107.73
507.42        7097.996
507.86        7116.166
508.30        7021.878
508.74        7068.542
509.18        7052.119
509.62        7042.543
510.06        7026.439
510.50        7004.453
510.94        6976.625
511.38        6948.339
511.82        6934.829
512.26        6937.815
512.70        6952.805
513.14        6970.422
513.58        6975.308
514.02         6964.15
514.46        6942.593
514.90        6918.333
515.34        6903.845
515.78        6902.711
516.22        6909.981
516.66        6923.108
517.10        6938.319
517.54        6952.844
517.98        6967.702
518.42        6978.658
518.86        6978.625
519.30        6967.367
519.74        6947.728
520.18        6926.878
520.62        6916.667
521.06        6920.646
521.50        6935.934
521.93        6959.188
522.37        6984.306
522.81         7008.64
523.25        7033.653
523.69        7058.234
524.13        7080.746
524.57        7100.748
525.01        7117.447
525.45        7132.887
525.89        7150.969
526.32        7172.913
526.76        7198.674
527.20        7225.218
527.64        7247.709
528.08        7264.972
528.52        7277.447
528.96        7291.474
529.40        7316.664
529.83        7355.125
530.27        7406.141
530.71        7458.061
531.15         7491.97
531.59        7505.584
532.03        7504.281
532.46        7507.966
532.90        7549.508
533.34        7632.458
533.78        7741.881
534.22        7852.791
534.66        7925.691
535.09        7952.166
535.53        7948.168
535.97        7925.974
536.41        7912.658
536.85         7920.17
537.28          7919.8
537.72        7926.747
538.16        8015.629
538.60        8161.985
539.04        8245.671
539.47        8262.016
539.91        8303.063
540.35        8368.678
540.79        8397.321
541.22        8400.009
541.66        8423.812
542.10        8473.307
542.54        8545.467
542.97        8628.106
543.41         8672.79
543.85        8688.208
544.29        8747.745
544.72        8840.573
545.16        8891.654
545.60        8898.387
546.04          8899.4
546.47        8914.503
546.91        8960.741
547.35        9041.777
547.79        9145.544
548.22        9246.142
548.66        9311.881
549.10        9329.505
549.53        9292.038
549.97        9226.625
550.41        9198.237
550.84        9221.564
551.28        9269.865
551.72        9338.346
552.15        9424.276
552.59        9520.406
553.03        9630.038
553.46        9736.568
553.90        9807.709
554.34        9840.756
554.77         9851.72
555.21        9860.525
555.65        9891.349
556.08        9951.848
556.52        10040.81
556.96        10138.76
557.39        10204.92
557.83        10233.82
558.27        10253.57
558.70        10282.27
559.14        10324.67
559.57        10396.52
560.01        10530.35
560.45        10705.59
560.88        10850.33
561.32        10953.59
561.75        11049.19
562.19        11133.59
562.63        11203.48
563.06        11265.08
563.50        11283.29
563.93        11289.04
564.37        11416.31
564.80        11632.66
565.24        11740.13
565.68        11744.78
566.11        11810.87
566.55        11944.41
566.98        12062.26
567.42        12168.26
567.85        12258.62
568.29        12428.14
568.72        12597.83
569.16        12804.33
569.60        13046.35
570.03        13302.01
570.47        13595.44
570.90        13911.55
571.34        14048.99
571.77        14099.13
572.21        14411.96
572.64        14571.21
573.08        14581.33
573.51        14014.62
573.95         14337.1
574.38        15259.53
574.82         15594.3
575.25        15457.28
575.69        15221.97
576.12        15078.01
576.56        14866.12
576.99        14724.74
577.42        15042.32
577.86        15545.15
578.29        15863.46
578.73        17026.04
579.16        16568.38
579.60        15229.94
580.03           14672
580.47        14971.42
580.90        15274.71
581.33           15539
581.77        15470.35
582.20        17044.04
582.64        18273.62
583.07        17139.47
583.51        16099.91
583.94        14849.28
584.37        14148.35
584.81         14159.9
585.24        14691.41
585.68        15126.52
586.11        15807.02
586.54        15590.98
586.98        15096.56
587.41        14325.86
587.85        14305.63
588.28        14920.48
588.71        14788.82
589.15        14180.89
589.58         13854.3
590.01        13505.48
590.45        13381.52
590.88        13309.37
591.31        13149.13
591.75        12889.21
592.18        12795.14
592.61        13041.59
593.05        13153.45
593.48        13792.19
593.91        14734.81
594.35        14342.62
594.78        14059.07
595.21         13555.4
595.65        13682.76
596.08        14315.91
596.51        14076.67
596.94        13622.85
597.38        13408.98
597.81        13625.32
598.24        13763.27
598.68        13877.63
599.11        13998.76
599.54        14229.42
599.97        15123.17
600.41         14760.1
600.84        14904.97
601.27         14965.5
601.70        14898.04
602.14        14730.04
602.57        14500.36
603.00        14332.28
603.43        14460.91
603.87        14771.02
604.30        14883.21
604.73        14760.62
605.16         14340.7
605.60        14147.52
606.03        14142.25
606.46        14340.42
606.89         14611.9
607.32        14178.97
607.76        14096.95
608.19        14138.45
608.62        14051.02
609.05           13836
609.48        13677.97
609.92        13620.35
610.35         13516.6
610.78        13491.25
611.21        13562.84
611.64        13354.98
612.07        13252.68
612.50         13151.8
612.94        13068.54
613.37        12999.89
613.80        12943.81
614.23        12899.91
614.66        12860.51
615.09        12826.07
615.52        12801.88
615.96        12764.96
616.39        12703.47
616.82        12619.66
617.25        12443.86
617.68        12232.78
618.11        12250.02
618.54         12421.6
618.97        12338.45
619.40        12026.05
619.84        11830.91
620.27        11783.03
620.70        11768.07
621.13        11750.57
621.56        11634.01
621.99        11452.26
622.42        11418.76
622.85        11527.84
623.28        11575.49
623.71        11546.27
624.14        11567.04
624.57        11622.54
625.00        11562.68
625.43        11506.01
625.86        11376.42
626.29        11233.33
626.72        11110.16
627.15        11021.55
627.58        10957.52
628.01        10910.96
628.44        10873.33
628.87        10838.61
629.30        10808.44
629.73        10780.61
630.16        10750.79
630.59        10716.42
631.02           10676
631.45        10626.15
631.88        10563.53
632.31        10490.34
632.74        10410.98
633.17         10335.2
633.60        10278.01
634.03        10243.18
634.46        10225.79
634.89        10221.32
635.32        10221.42
635.75        10221.16
636.18        10221.95
636.61        10216.66
637.04        10193.94
637.47        10151.83
637.89        10095.78
638.32        10039.43
638.75        9995.169
639.18        9964.896
639.61        9985.309
640.04        9968.228
640.47        9952.997
640.90        9911.781
641.33        9854.408
641.76        9787.485
642.18        9722.937
642.61         9666.58
643.04         9614.45
643.47        9569.351
643.90         9535.77
644.33        9513.952
644.76        9502.779
645.18        9492.411
645.61        9477.967
646.04        9458.141
646.47         9412.66
646.90        9344.725
647.33        9371.908
647.75        9319.807
648.18        9330.944
648.61        9339.308
649.04        9331.373
649.47         9301.97
649.89        9245.548
650.32        9184.257
650.75         9170.96
651.18        9193.288
651.61        9195.574
652.03        9162.855
652.46        9090.156
652.89         9035.35
653.32        9042.537
653.74        9111.738
654.17        9262.509
654.60        9136.265
655.03        8800.189
655.46        9002.912
655.88        9258.773
656.31        9963.732
656.74        23725.75
657.16        34969.13
657.59        21105.91
658.02        10946.89
658.45        9074.133
658.87        8841.967
659.30        9015.598
659.73        8894.299
660.15        8673.865
660.58        8735.933
661.01        8741.371
661.44        8769.878
661.86         8795.51
662.29        8783.523
662.72        8702.109
663.14        8583.073
663.57        8582.591
664.00          8681.7
664.42        8700.787
664.85        8634.129
665.27        8601.301
665.70        8606.797
666.13        8593.616
666.55            8562
666.98        8533.399
667.41        8509.679
667.83        8489.284
668.26        8473.612
668.69        8461.868
669.11        8455.084
669.54        8455.793
669.96        8463.774
670.39         8476.88
670.82        8489.396
671.24        8499.619
671.67        8506.342
672.09        8496.269
672.52        8470.422
672.94        8495.183
673.37        8470.127
673.80        8474.314
674.22        8469.839
674.65        8446.581
675.07        8403.325
675.50        8348.094
675.92        8294.086
676.35        8258.704
676.77        8247.492
677.20        8255.146
677.62        8275.115
678.05        8296.383
678.47        8313.422
678.90         8327.91
679.32         8339.19
679.75        8341.354
680.17        8332.425
680.60        8322.166
681.02        8315.178
681.45        8263.902
681.87        8259.855
682.30        8235.805
682.72        8217.494
683.15        8200.492
683.57          8185.9
684.00        8173.036
684.42        8170.816
684.85         8192.18
685.27        8235.643
685.70        8303.554
686.12         8372.95
686.54        8385.025
686.97        8342.721
687.39        8307.636
687.82         8288.45
688.24        8253.447
688.66        8208.066
689.09         8180.63
689.51        8169.504
689.94        8146.345
690.36            8108
690.78        8078.458
691.21        8074.297
691.63        8010.369
692.06        8091.314
692.48        8077.739
692.90        8037.137
693.33        8013.981
693.75        8009.015
694.17        8004.441
694.60        7994.685
695.02        7915.969
695.44        7883.207
695.87        7820.094
696.29        7779.381
696.71        7755.479
697.14        7767.621
697.56        7874.641
697.98        8031.406
698.41        8103.065
698.83        8069.522
699.25        7992.608
699.68        7898.056
700.10        7808.421
700.52          7739.8
700.94        7686.987
701.37        7650.038
701.79         7629.17
702.21        7621.114
702.64        7625.929
703.06        7636.382
703.48        7638.004
703.90        7627.018
704.33        7608.098
704.75         7579.79
705.17        7542.029
705.59        7498.102
706.01        7447.173
706.44        7407.065
706.86        7406.215
707.28        7446.931
707.70        7519.518
708.12        7592.391
708.55         7614.25
708.97        7573.236
709.39        7484.392
709.81        7377.491
710.23         7299.91
710.66        7265.947
711.08         7264.98
711.50        7273.927
711.92         7254.63
712.34        7199.093
712.76        7121.154
713.19        7046.666
713.61        7015.245
714.03        7033.875
714.45        7086.144
714.87        7143.215
715.29        7160.588
715.71        7126.891
716.13        7056.965
716.56        6971.438
716.98        6903.537
717.40        6864.028
717.82        6842.464
718.24        6831.587
718.66        6819.771
719.08        6802.363
719.50        6784.934
719.92        6765.376
720.34        6738.976
720.76        6704.669
721.19        6661.224
721.61        6616.073
722.03        6578.386
722.45        6547.981
722.87        6539.487
723.29        6543.468
723.71        6499.719
724.13        6406.853
724.55        6421.762
724.97        6354.607
725.39         6351.98
725.81        6355.065
726.23        6380.676
726.65        6409.281
727.07        6404.228
727.49        6361.532
727.91        6292.942
728.33        6215.439
728.75        6156.189
729.17        6123.841
729.59         6109.11
730.01         6108.81
730.43        6117.546
730.85        6130.723
731.27        6150.921
731.69        6167.255
732.10        6161.548
732.52        6131.481
732.94        6081.098
733.36        6027.875
733.78        6001.461
734.20        6007.611
734.62        6036.359
735.04        6069.487
735.46        6077.069
735.88        6050.478
736.30        5999.918
736.72        5936.831
737.13        5874.846
737.55        5819.996
737.97        5781.761
738.39        5757.777
738.81        5711.442
739.23        5656.842
739.65        5669.695
740.06        5729.605
740.48        5737.173
740.90        5683.029
741.32        5616.187
741.74        5553.065
742.16        5501.036
742.57        5466.995
742.99        5449.114
743.41        5436.685
743.83        5412.285
744.25        5372.412
744.67        5323.539
745.08        5276.358
745.50        5247.608
745.92        5240.719
746.34        5248.867
746.75        5263.375
747.17        5270.407
747.59        5266.897
748.01        5260.031
748.42        5252.653
748.84        5250.018
749.26        5257.498
749.68        5264.634
750.09        5272.579
750.51        5314.961
750.93        5369.947
751.35        5350.693
751.76        5270.861
752.18        5231.378
752.60         5239.59
753.01        5239.521
753.43        5226.288
753.85        5215.646
754.27        5208.524
754.68        5206.483
755.10        5207.964
755.52        5209.856
755.93        5208.768
756.35        5199.392
756.77        5198.667
757.18        5219.947
757.60        5262.451
758.02        5363.678
758.43        5473.354
758.85        5420.652
759.26        5241.356
759.68        5156.163
760.10        5188.447
760.51        5222.719
760.93         5242.29
761.34        5268.142
761.76        5277.195
762.18        5252.775
762.59        5190.022
763.01        5068.209
763.42        4932.596
763.84         4884.77
764.26        4936.751
764.67        5040.784
765.09        5151.781
765.50        5208.471
765.92        5190.776
766.33        5119.137
766.75        5013.589
767.16        4908.244
767.58        4819.178
768.00        4737.268
768.41        4677.521
768.83        4659.244
769.24         4681.31
769.66        4753.461
770.07         4844.24
770.49        4861.895
770.90        4810.513
771.32        4788.143
771.73         4794.01
772.15        4753.805
772.56        4670.583
772.97        4592.028
773.39         4528.31
773.80         4472.59
774.22        4428.231
774.63        4399.893
775.05        4381.225
775.46        4359.159
775.88        4330.382
776.29        4298.056
776.70        4264.861
777.12         4236.48
777.53        4214.228
777.95        4194.082
778.36        4177.341
778.77        4167.214
779.19         4163.81
779.60        4166.647
780.02        4168.017
780.43        4160.088
780.84        4141.802
781.26         4101.64
781.67        4052.343
782.09        4047.692
782.50        4075.921
782.91        4057.481
783.33        3997.079
783.74        3967.182
784.15        3971.351
784.57        3969.269
784.98        3958.904
785.39        3956.376
785.81        3961.793
786.22        3969.768
786.63         3983.43
787.04        4008.107
787.46         4042.67
787.87         4083.97
788.28        4122.531
788.70        4143.633
789.11        4143.264
789.52        4124.575
789.93          4095.7
790.35        4069.833
790.76        4051.285
791.17        4039.129
791.58        4027.437
792.00        4002.138
792.41        3961.698
792.82        3922.693
793.23        3896.575
793.65        3873.248
794.06        3867.388
794.47        3932.295
794.88        4035.918
795.29        4070.105
795.71        4020.636
796.12        3941.904
796.53        3851.921
796.94        3756.538
797.35        3670.636
797.76        3606.098
798.18        3563.291
798.59        3529.252
799.00        3501.338
799.41        3488.773
799.82        3481.821
800.23        3459.252
800.64        3416.841
801.06        3358.876
801.47        3294.871
801.88        3242.106
802.29        3205.329
802.70        3179.315
803.11        3158.518
803.52        3133.994
803.93        3103.934
804.34        3072.572
804.75        3042.227
805.17        3019.562
805.58        3006.116
805.99         2987.53
806.40        2965.284
806.81        2968.259
807.22        2983.084
807.63        2950.902
808.04        2878.851
808.45        2829.976
808.86        2808.334
809.27        2778.305
809.68        2738.121
810.09        2700.381
810.50        2665.404
810.91        2632.495
811.32        2599.166
811.73        2560.814
812.14         2517.44
812.55        2469.998
812.96         2428.18
813.37        2407.104
813.78        2408.172
814.19        2426.102
814.60        2443.564
815.01        2433.021
815.42         2388.66
815.83        2318.657
816.24        2241.725
816.65        2188.199
817.05        2166.128
817.46        2167.118
817.87        2175.877
818.28        2167.539
818.69        2135.842
819.10        2089.162
819.51        2040.374
819.92         2009.47
820.33        2000.995
820.74        2006.984
821.14        2016.064
821.55         2011.04
821.96        1987.147
822.37        1950.237
822.78        1907.802
823.19        1871.531
823.60        1845.121
824.00        1824.729
824.41        1806.941
824.82        1786.501
825.23        1761.924
825.64        1735.951
826.04         1709.91
826.45        1685.302
826.86        1662.716
827.27        1640.818
827.68        1620.142
828.08        1602.041
828.49        1586.119
828.90        1571.808
829.31        1556.455
829.72        1535.656
830.12        1509.098
830.53        1479.135
830.94        1449.246
831.35        1424.782
831.75        1407.881
832.16        1397.503
832.57        1393.236
832.97        1394.198
833.38         1398.91
833.79        1406.217
834.20        1413.955
834.60        1419.006
835.01        1419.671
835.42        1415.736
835.82        1406.237
836.23        1390.253
836.64        1368.833
837.04        1343.801
837.45        1318.408
837.86        1297.553
838.26        1283.095
838.67        1274.147
839.08        1270.911
839.48        1273.018
839.89        1279.221
840.29        1288.995
840.70        1298.079
841.11        1299.997
841.51        1293.081
841.92        1278.129
842.33        1259.781
842.73        1246.101
843.14        1239.131
843.54        1237.158
843.95        1235.337
844.35        1225.575
844.76        1206.702
845.17        1182.145
845.57        1158.244
845.98        1144.797
846.38        1143.812
846.79        1151.344
847.19        1161.708
847.60         1166.14
848.00        1161.486
848.41        1149.949
848.81        1133.699
849.22        1116.099
849.62        1099.391
850.03        1084.125
850.43        1070.268
850.84        1057.789
851.24        1047.306
851.65        1038.836
852.05        1036.594
852.46        1046.797
852.86        1068.815
853.27        1099.199
853.67        1127.362
854.07        1136.944
854.48        1124.304
854.88        1093.971
855.29        1056.292
855.69        1028.494
856.10        1015.527
856.50        1012.838
856.90        1013.669
857.31        1006.788
857.71        989.2511
858.12        965.4248
858.52        940.1643
858.92          920.54
859.33        908.6468
859.73        901.9357
860.13        897.3182
860.54        890.2366
860.94        879.5289
861.34        867.0391
861.75        855.0926
862.15        847.1823
862.55        844.0046
862.96        843.7725
863.36        844.7528
863.76        844.4144
864.17          841.81
864.57        837.8459
864.97        832.3171
865.38        824.9532
865.78        816.0723
866.18        805.5887
866.58        795.5708
866.99        789.3317
867.39        787.5491
867.79         789.728
868.19        792.7269
868.60        791.3395
869.00        784.4686
869.40        773.3522
869.80        762.1045
870.21        757.4233
870.61        760.4868
871.01        768.9874
871.41        777.7012
871.81        778.3624
872.22        769.2161
872.62        753.1249
873.02        735.2086
873.42        723.6318
873.82        720.5967
874.22        723.5427
874.63        729.1093
875.03         731.798
875.43         730.137
875.83        726.4305
876.23         722.194
876.63        719.6856
877.03        719.6743
877.44        720.6929
877.84        723.3737
878.24        728.9966
878.64        737.2267
879.04        747.8185
879.44        757.3511
879.84        760.3041
880.24        755.7892
880.64        745.2846
881.04        733.7522
881.44        729.3083
881.84        733.7206
882.24         744.587
882.65        756.6995
883.05        761.6141
883.45        757.2644
883.85        746.3475
884.25        733.4114
884.65        725.6696
885.05        725.0859
885.45        729.3825
885.85        735.1399
886.25        737.0117
886.65        733.6107
887.05        726.8722
887.45        719.5908
887.85        715.9535
888.25        717.1126
888.65        721.7014
889.04        727.3881
889.44        730.6351
889.84          730.46
890.24        727.7997
890.64        724.7948
891.04        724.8378
891.44        728.4913
891.84        734.3864
892.24        739.7674
892.64         740.421
893.04        735.4589
893.44        726.4355
893.83        716.1734
894.23        709.0141
894.63         706.437
895.03        707.6238
895.43        710.7195
895.83        712.7129
896.23        712.6794
896.63        711.1849
897.02        710.4219
897.42        713.7081
897.82        721.5298
898.22         732.904
898.62        743.5826
899.01        747.0995
899.41        742.2134
899.81        730.4272
900.21        718.0015
900.61        715.0292
901.00        723.3474
901.40        739.9199
901.80        756.6161
902.20        760.2863
902.59        748.4657
902.99        725.9695
903.39        701.4822
903.79        688.8477
904.18         691.504
904.58        704.5241
904.98        721.8813
905.38        734.0005
905.77        737.5446
906.17        735.5782
906.57         729.449
906.96        721.1646
907.36        712.2216
907.76        702.0056
908.15        692.4196
908.55        686.8533
908.95        686.0724
909.34        689.5724
909.74        695.5612
910.14        700.6982
910.53        703.6542
910.93        704.7374
911.33        704.3647
911.72        703.4791
912.12        702.2927
912.52        700.4393
912.91        697.2341
913.31        691.7051
913.70        684.2221
914.10        675.8881
914.49        668.5491
914.89        664.9557
915.29        665.5878
915.68        669.1032
916.08        674.4999
916.47        680.0677
916.87        684.8273
917.26        689.3076
917.66        691.5468
918.05        688.5959
918.45        680.4188
918.84        667.8219
919.24        655.3693
919.64        650.4582
920.03        654.5531
920.42        665.6248
920.82         678.213
921.21        683.3654
921.61        678.8613
922.00        667.2123
922.40        653.3678
922.79        645.3818
923.19          645.22
923.58        650.2141
923.98        656.0784
924.37         656.063
924.77         648.644
925.16        636.5251
925.55         623.351
925.95        614.6602
926.34        612.0686
926.74        613.6686
927.13        617.4537
927.52        620.3135
927.92         621.071
928.31        620.6575
928.70        619.3584
929.10        617.6169
929.49        615.5147
929.89        612.3669
930.28        608.4213
930.67        604.3051
931.07        600.2303
931.46        596.5726
931.85        592.4416
932.24        586.2536
932.64        578.0095
933.03        568.2182
933.42        559.3826
933.82        555.4683
934.21        556.9678
934.60        562.4691
934.99        568.4119
935.39        568.9963
935.78         563.092
936.17        552.9191
936.56        541.5704
936.96        534.0749
937.35        531.9312
937.74         533.174
938.13        536.9507
938.53        542.0508
938.92        547.1499
939.31        552.1772
939.70         555.041
940.09        552.2123
940.49        543.6005
940.88        531.1727
941.27        517.3025
941.66         505.958
942.05        498.7928
942.44        494.5495
942.84        494.8638
943.23        502.1125
943.62        515.3228
944.01        532.9845
944.40        548.7917
944.79        552.7491
945.18        542.8571
945.57        522.0978
945.97        496.7967
946.36        477.5686
946.75        467.6973
947.14        464.4914
947.53        465.0223
947.92        464.1563
948.31        460.3011
948.70         455.704
949.09         451.082
949.48        447.1537
949.87         444.351
950.26        441.7756
950.65        440.1414
951.04        441.0812
951.43        444.4805
951.82        449.5981
952.21        454.4287
952.60        455.7416
952.99         452.756
953.38        446.4227
953.77        438.3204
954.16        431.0745
954.55        425.6643
954.94        421.5609
955.33        418.3129
955.72        415.1196
956.11        411.6881
956.50        408.3361
956.89        405.3388
957.28        402.9788
957.66        401.2198
958.05        399.8484
958.44        398.1624
958.83        395.1375
959.22         390.711
959.61         385.345
960.00        380.1125
960.39        376.7377
960.78        375.5691
961.16        375.9125
961.55        376.9539
961.94        377.3782
962.33        376.6304
962.72        375.0412
963.11        372.4116
963.49        368.4649
963.88        363.3685
964.27        357.2614
964.66        351.0228
965.04        346.1121
965.43        342.8832
965.82        340.9949
966.21        339.7517
966.60        337.9154
966.98         335.105
967.37        331.6984
967.76        327.9605
968.15         324.318
968.53        320.9769
968.92        317.7947
969.31         314.856
969.69        312.3367
970.08        310.2418
970.47        308.5162
970.86        306.9746
971.24        305.3234
971.63        303.3358
972.02        300.8276
972.40        297.7447
972.79        294.1055
973.17        289.8583
973.56         285.051
973.95        279.4668
974.33        272.7034
974.72        265.0748
975.11        257.2934
975.49        250.2621
975.88        245.2601
976.26        242.7375
976.65         242.275
977.04        243.9127
977.42        247.6562
977.81        252.9276
978.19        259.2172
978.58        264.9554
978.96        267.7422
979.35        267.0849
979.74        263.7107
980.12        258.7424
980.51        254.2547
980.89        250.8898
981.28        247.7928
981.66         245.313
982.05        243.9217
982.43        243.3865
982.82        243.8991
983.20        243.2734
983.59        237.8414
983.97        227.3647
984.35        213.2443
984.74        199.3658
985.12        192.0042
985.51        192.4861
985.89        198.7163
986.28        207.2335
986.66        212.3284
987.04        212.3056
987.43        208.9867
987.81         203.715
988.20        198.7824
988.58        195.0505
988.96        191.3183
989.35        188.3317
989.73        187.4591
990.12        188.6963
990.50        192.1201
990.88        195.1422
991.27        193.3739
991.65        186.2066
992.03        174.9172
992.42        163.5742
992.80        158.8054
993.18        161.9015
993.56        170.6542
993.95        180.6627
994.33        184.8168
994.71        181.3451
995.10        172.6059
995.48        161.8472
995.86        154.3196
996.24        151.5583
996.63        151.6422
997.01         153.154
997.39        153.9362
997.77        153.1036
998.15        151.6312
998.54        149.1734
998.92        144.9475
999.30        139.1555
999.68        131.9944
1000.06        125.0089
1000.45        120.8417
1000.83        120.0034
1001.21        121.6807
1001.59        124.3509
1001.97        125.4439
1002.35        124.1768
1002.73        121.2935
1003.12        117.3991
1003.50        113.5456
1003.88        110.1613
1004.26        106.8374
1004.64         103.862
1005.02        101.7116
1005.40        100.5233
1005.78        100.5451
1006.16        101.0559
1006.54        100.7576
1006.92        99.42113
1007.30        97.19976
1007.69        95.50399
1008.07        96.65426
1008.45        100.8651
1008.83         107.198
1009.21          113.15
1009.59        114.8635
1009.97        111.4083
1010.35        103.7979
1010.73        94.65141
1011.11        88.17033
1011.49        85.58433
1011.86        86.08288
1012.24        87.25469
1012.62        85.13523
1013.00        79.00848
1013.38         70.2136
1013.76        62.00982
1014.14        59.51996
1014.52        63.50282
1014.90        71.82603
1015.28        80.53989
1015.66        83.43368
1016.04        79.07001
1016.41        69.78179
1016.79        58.41476
1017.17        49.51651
1017.55        44.79228
1017.93        42.92422
1018.31         43.7956
1018.69        47.15487
1019.06        52.39902
1019.44        59.64227
1019.82        67.07055
1020.20        71.65598
1020.58        72.59873
1020.95        70.22215
1021.33        66.39428
1021.71        64.43674
1022.09        65.21984
1022.46        68.03802
1022.84         70.9575
1023.22        70.79246
1023.60        67.04164
1023.97        60.94173
1024.35        55.12026
1024.73         53.6506
