SpectraSmart Spectrum 2.9.0.0
--------- Device Information -----------
Spectrum Name :  光譜_0
Saving Time :  2024/05/01 15:37:52
Spectro-Module Model Name : SE2030-DUVN
Spectro-Module Serial Number : OS361AC55029948
Wavelength Start : 200
Wavelength End : 1025
Wavelength Unit : Wavelength(nm)
Spectrum Unit : Intensity(Counts)
-----------Spectrum Setting ------------
Integration Time : 1ms
Average : 1
Boxcar : 0
Background removal :  enabled
linearity correction :  enabled
SC :  disabled
Intensity correction :  disabled
DWT denoise :  enabled
savitzky-golay :  disabled
FFT :  disabled
Running average :  disabled
Kalman :  disabled
High pass :  disabled
---------------BEGIN--------------------
Wavelength(nm)          Intensity(Counts)
200.29        -29.1377
200.75       -27.25036
201.21       -22.50791
201.67       -16.35009
202.13       -11.12925
202.58       -7.850566
203.04       -6.066253
203.50       -6.007402
203.96       -7.884815
204.42       -11.50323
204.88       -16.81645
205.34       -22.69528
205.80       -27.31182
206.26        -29.9389
206.72        -30.4325
207.18       -29.66412
207.64       -29.25975
208.10       -29.62528
208.55        -30.6207
209.01       -30.60628
209.47       -26.97825
209.93       -19.59957
210.39       -9.498679
210.85      -0.2057897
211.31        2.836393
211.77       -1.390109
212.23       -11.27749
212.69       -22.39347
213.14       -27.57342
213.60       -25.13558
214.06        -17.1681
214.52       -7.917654
214.98       -4.274776
215.44       -7.910207
215.90       -16.48433
216.36       -26.28369
216.81       -31.53678
217.27       -30.56597
217.73       -25.07737
218.19       -17.79487
218.65        -12.9415
219.11        -11.7221
219.57       -12.92561
220.02       -14.12893
220.48       -11.62688
220.94       -4.684018
221.40        5.389332
221.86        15.43153
222.32        20.63933
222.77        19.99424
223.23         14.9408
223.69        9.269396
224.15        8.957346
224.61        15.38714
225.06        26.86869
225.52        39.30972
225.98        46.16514
226.44         45.9596
226.90        40.72797
227.36          34.768
227.81        34.90426
228.27        42.64922
228.73        55.70008
229.19        69.86057
229.65        78.45157
230.10        79.96616
230.56        76.90143
231.02        72.67702
231.48        72.69238
231.93        78.33153
232.39        87.27961
232.85        97.70915
233.31        106.9355
233.77        113.5326
234.22        118.0965
234.68        119.6118
235.14        116.4781
235.60        108.7427
236.05        96.92373
236.51        83.22089
236.97        71.28323
237.43        62.39091
237.88        56.22928
238.34        51.59208
238.80        46.16955
239.26        39.36444
239.71        31.82489
240.17        24.92835
240.63         20.7762
241.08        19.61036
241.54        20.52381
242.00        21.29792
242.46        18.56701
242.91        11.74851
243.37        2.086921
243.83       -7.782883
244.28       -13.69976
244.74       -14.52196
245.20       -11.38531
245.66       -6.229929
246.11       -2.262908
246.57      -0.4391624
247.03       0.1653499
247.48        0.702327
247.94        3.031499
248.40        7.461439
248.85        12.90672
249.31        18.27512
249.77        22.08886
250.22        23.83847
250.68        24.04855
251.14        23.09855
251.59        21.54278
252.05        19.87478
252.51        18.30985
252.96        17.41273
253.42        17.93358
253.88        20.35424
254.33        25.00302
254.79        31.97782
255.25        41.18239
255.70        52.54637
256.16        65.93819
256.62        81.47321
257.07        99.34274
257.53        119.3152
257.99        141.0866
258.44        163.6322
258.90        185.4483
259.35        206.2938
259.81        226.6441
260.27        247.7816
260.72        271.7852
261.18        299.1949
261.63         329.434
262.09        361.4366
262.55        393.4148
263.00        424.7328
263.46        455.6212
263.91        486.3383
264.37        517.5604
264.83        548.8408
265.28        578.7276
265.74        606.3671
266.19        630.8103
266.65        651.4373
267.11         668.631
267.56        681.1165
268.02        686.9218
268.47        686.6092
268.93        681.6658
269.38        676.2017
269.84        676.5214
270.30        684.3111
270.75        698.2506
271.21        715.3301
271.66        730.1514
272.12        741.4078
272.57        751.2007
273.03        761.3341
273.48        774.6534
273.94        792.1691
274.39        812.5516
274.85        836.0502
275.31         863.312
275.76        893.8198
276.22        927.2468
276.67        961.3039
277.13        992.1541
277.58        1019.263
278.04        1044.084
278.49         1069.02
278.95        1098.133
279.40        1132.523
279.86        1170.546
280.31        1211.657
280.77        1254.902
281.22        1299.228
281.68        1344.706
282.13        1388.429
282.59        1425.971
283.04        1456.429
283.50        1480.342
283.95        1502.071
284.41        1528.933
284.86        1562.579
285.32        1601.479
285.77         1640.25
286.22        1669.949
286.68        1689.191
287.13        1701.424
287.59        1713.733
288.04        1737.182
288.50        1774.217
288.95        1820.911
289.41        1870.698
289.86         1913.26
290.32        1945.198
290.77        1968.907
291.22        1987.867
291.68        2007.917
292.13        2030.661
292.59        2054.003
293.04        2075.265
293.50        2090.527
293.95        2099.325
294.40        2104.015
294.86         2108.08
295.31        2116.426
295.77        2130.673
296.22        2149.731
296.68        2171.437
297.13        2192.292
297.58        2211.024
298.04        2228.215
298.49        2245.676
298.95        2266.146
299.40        2290.384
299.85          2318.2
300.31        2346.492
300.76        2370.384
301.21        2389.617
301.67        2405.984
302.12        2426.029
302.58        2460.047
303.03        2509.495
303.48        2570.477
303.94        2634.351
304.39        2687.333
304.84        2725.831
305.30        2753.838
305.75        2777.603
306.20        2807.521
306.66        2846.579
307.11        2891.104
307.57        2937.877
308.02        2981.951
308.47         3021.39
308.93        3057.879
309.38        3091.355
309.83        3121.616
310.29        3148.481
310.74        3170.737
311.19        3189.529
311.65        3207.189
312.10        3224.229
312.55        3241.008
313.00        3254.621
313.46        3260.056
313.91        3257.341
314.36        3248.819
314.82        3241.165
315.27        3244.732
315.72        3261.458
316.18        3287.826
316.63        3316.492
317.08        3335.607
317.53        3341.686
317.99          3337.7
318.44        3328.123
318.89        3320.621
319.35        3317.163
319.80        3314.625
320.25        3310.354
320.70        3300.441
321.16        3283.895
321.61        3263.086
322.06         3238.95
322.51        3212.383
322.97        3184.541
323.42        3155.469
323.87        3127.302
324.32        3103.504
324.78        3084.251
325.23        3067.988
325.68        3051.611
326.13        3030.072
326.59        3001.718
327.04        2967.839
327.49        2929.378
327.94        2888.078
328.39          2845.3
328.85        2801.223
329.30         2757.41
329.75        2716.314
330.20        2678.503
330.66        2643.399
331.11        2610.331
331.56        2577.781
332.01        2544.946
332.46        2512.269
332.92        2478.253
333.37        2440.637
333.82        2399.523
334.27        2355.818
334.72        2313.134
335.17        2277.238
335.63        2249.627
336.08        2229.133
336.53        2212.427
336.98        2193.843
337.43        2171.959
337.88        2148.414
338.34        2126.352
338.79        2110.764
339.24        2102.787
339.69        2100.702
340.14         2101.18
340.59        2099.128
341.05        2093.246
341.50        2084.914
341.95        2077.338
342.40         2075.67
342.85        2080.847
343.30        2090.885
343.75         2102.14
344.20        2108.883
344.66        2109.898
345.11        2107.416
345.56        2104.351
346.01        2105.381
346.46        2111.755
346.91        2121.379
347.36        2133.287
347.81        2146.114
348.26        2158.677
348.72        2171.356
349.17        2182.066
349.62        2187.221
350.07        2187.036
350.52        2183.548
350.97        2180.335
351.42        2183.353
351.87        2194.021
352.32        2209.718
352.77         2229.88
353.22        2253.302
353.67        2278.328
354.13        2305.331
354.58        2328.384
355.03        2338.296
355.48        2333.993
355.93        2317.721
356.38        2299.923
356.83        2297.731
357.28        2314.687
357.73        2346.043
358.18        2380.004
358.63        2397.147
359.08        2393.192
359.53        2374.761
359.98         2352.91
360.43        2345.236
360.88        2356.379
361.33        2380.259
361.78        2409.171
362.23        2431.151
362.68        2442.157
363.13        2445.828
363.58        2445.691
364.03        2446.901
364.48        2451.614
364.93        2458.614
365.38        2465.774
365.83        2470.334
366.28        2471.652
366.73        2469.998
367.18        2469.911
367.63        2478.345
368.08        2495.452
368.53        2518.429
368.98        2537.421
369.43        2536.985
369.88        2514.636
370.33        2475.919
370.78        2433.034
371.23        2405.533
371.68        2398.848
372.13        2407.788
372.58        2423.946
373.03        2433.263
373.48        2431.761
373.93        2424.361
374.38        2416.306
374.83        2415.412
375.28        2424.294
375.72        2440.299
376.17          2460.4
376.62        2480.431
377.07        2498.844
377.52        2516.278
377.97        2535.309
378.42        2559.976
378.87        2590.089
379.32         2623.16
379.77         2653.24
380.22        2671.431
380.67        2676.153
381.11        2670.637
381.56        2661.303
382.01        2658.562
382.46        2665.521
382.91        2679.595
383.36        2697.922
383.81        2715.056
384.26        2730.168
384.71        2747.188
385.15        2766.561
385.60        2788.617
386.05        2813.947
386.50        2840.464
386.95        2873.762
387.40        2923.208
387.85        2988.723
388.29        3067.443
388.74        3145.238
389.19        3198.967
389.64        3225.894
390.09        3235.314
390.54        3245.177
390.98        3284.715
391.43        3359.946
391.88        3458.255
392.33        3568.227
392.78        3670.472
393.23         3755.25
393.67        3831.604
394.12        3892.195
394.57        3913.054
395.02        3903.058
395.47        3897.418
395.91        3906.263
396.36        3923.095
396.81        3952.183
397.26        4000.802
397.71        4073.998
398.15        4166.493
398.60        4270.224
399.05        4396.391
399.50        4511.475
399.95        4528.054
400.39        4455.161
400.84        4388.396
401.29        4349.234
401.74        4303.705
402.18        4263.618
402.63        4265.617
403.08        4300.847
403.53        4331.625
403.97        4349.659
404.42         4363.79
404.87        4377.337
405.32        4394.434
405.76        4415.154
406.21         4435.97
406.66        4445.242
407.11        4428.285
407.55         4384.54
408.00        4317.593
408.45        4251.347
408.90        4228.062
409.34         4252.93
409.79        4305.014
410.24        4358.625
410.68        4381.257
411.13        4363.231
411.58        4311.075
412.03        4249.767
412.47        4222.775
412.92        4239.652
413.37        4285.177
413.81        4337.192
414.26        4361.255
414.71        4347.944
415.15        4309.065
415.60        4260.142
416.05        4225.129
416.49        4211.802
416.94        4213.435
417.39         4222.32
417.83        4225.834
418.28        4222.223
418.73        4219.578
419.17        4224.309
419.62        4245.241
420.07        4283.757
420.51          4332.3
420.96        4389.584
421.41        4455.106
421.85        4523.702
422.30        4592.196
422.74         4644.58
423.19        4657.149
423.64        4626.082
424.08        4558.269
424.53        4476.076
424.98        4415.531
425.42        4388.435
425.87         4391.13
426.31        4407.172
426.76         4406.44
427.21        4385.768
427.65        4358.244
428.10        4345.983
428.54        4386.603
428.99        4480.725
429.44        4597.278
429.88        4716.102
430.33        4813.806
430.77         4874.17
431.22        4903.938
431.66        4887.274
432.11         4798.57
432.56        4667.326
433.00        4524.263
433.45        4425.358
433.89        4480.645
434.34        4695.144
434.78        4758.464
435.23         4627.35
435.67        4604.653
436.12        4674.597
436.57         4670.24
437.01        4600.941
437.46        4573.685
437.90        4600.037
438.35        4646.159
438.79        4697.297
439.24        4746.443
439.68        4778.247
440.13        4765.097
440.57        4740.786
441.02        4776.042
441.46        4876.209
441.91         5042.77
442.35        5225.343
442.80        5263.933
443.24        5185.344
443.69        5213.204
444.13         5344.72
444.58        5395.854
445.02        5365.272
445.47        5365.955
445.91        5402.523
446.36        5427.127
446.80        5439.848
447.24        5456.513
447.69        5478.053
448.13        5503.755
448.58        5533.768
449.02        5565.733
449.47        5598.254
449.91        5631.281
450.36        5663.777
450.80        5694.187
451.25        5723.091
451.69        5752.027
452.13        5781.442
452.58         5811.83
453.02        5840.874
453.47         5865.02
453.91        5884.418
454.36        5900.533
454.80        5921.014
455.24        5957.079
455.69        6011.693
456.13        6084.079
456.58        6163.163
457.02        6230.756
457.46        6283.818
457.91          6324.8
458.35        6367.073
458.79        6446.378
459.24        6565.825
459.68        6685.507
460.13        6775.139
460.57        6910.983
461.01        6892.686
461.46        6889.002
461.90        6852.054
462.34        6825.972
462.79        6784.243
463.23        6755.937
463.68         6757.18
464.12        6829.503
464.56        6971.854
465.01        7161.524
465.45         7352.42
465.89        7473.277
466.34        7503.192
466.78        7460.544
467.22        7379.503
467.67        7300.448
468.11        7275.363
468.55        7263.082
468.99        7259.909
469.44        7242.335
469.88          7206.5
470.32        7167.455
470.77         7136.68
471.21        7128.173
471.65        7146.894
472.10        7187.148
472.54        7244.288
472.98        7312.463
473.42        7386.448
473.87        7463.461
474.31        7540.411
474.75        7613.411
475.20        7678.459
475.64        7735.776
476.08        7785.505
476.52        7806.512
476.97        7797.167
477.41        7808.165
477.85        7860.493
478.29        7766.118
478.74        7872.342
479.18        7907.606
479.62        7980.052
480.06        8044.448
480.50         8087.33
480.95         8276.77
481.39        8301.951
481.83        8338.274
482.27        8306.728
482.72        8285.271
483.16         8284.71
483.60        8254.285
484.04        8201.183
484.48        8214.802
484.93         8359.11
485.37        8390.642
485.81        8655.152
486.25        9296.702
486.69        13069.45
487.14        12937.84
487.58        9381.152
488.02        8752.307
488.46         8691.04
488.90        8468.313
489.34        8194.688
489.79        8177.031
490.23        8233.713
490.67        8301.467
491.11         8282.39
491.55        8232.426
491.99        8162.465
492.43        8102.605
492.88         8074.53
493.32        8090.089
493.76        8130.545
494.20        8139.087
494.64        8105.684
495.08        8065.644
495.52        8035.777
495.96        8003.352
496.41        7979.593
496.85        8030.612
497.29        8121.914
497.73        8093.064
498.17        7965.625
498.61        7933.371
499.05        7992.107
499.49        7988.062
499.93        7919.445
500.37        7875.154
500.82        7864.116
501.26        7859.756
501.70        7861.784
502.14        7874.896
502.58        7890.884
503.02        7896.254
503.46        7887.114
503.90        7866.567
504.34        7834.881
504.78        7794.504
505.22        7748.899
505.66        7697.923
506.10        7652.735
506.54        7631.308
506.98        7635.848
507.42        7660.637
507.86        7690.054
508.30         7698.13
508.74        7678.347
509.18        7638.514
509.62        7589.762
510.06        7550.805
510.50        7527.802
510.94        7514.917
511.38        7509.278
511.82        7506.177
512.26        7503.593
512.70        7504.738
513.14        7507.058
513.58        7505.522
514.02        7499.378
514.46        7488.362
514.90        7478.628
515.34        7480.852
515.78        7496.586
516.22        7522.738
516.66        7549.098
517.10        7559.396
517.54        7550.293
517.98        7526.505
518.42        7500.175
518.86        7490.896
519.30        7503.122
519.74        7531.029
520.18        7562.728
520.62        7578.764
521.06        7575.343
521.50         7560.46
521.93        7544.919
522.37        7545.681
522.81        7567.122
523.25        7602.019
523.69        7645.449
524.13        7689.992
524.57        7731.397
525.01        7771.897
525.45        7806.462
525.89        7826.755
526.32        7833.179
526.76         7829.01
527.20        7824.723
527.64        7838.051
528.08        7872.566
528.52        7921.636
528.96        7978.285
529.40        8030.335
529.83        8073.335
530.27        8112.572
530.71        8144.256
531.15        8162.048
531.59         8167.83
532.03         8164.16
532.46        8167.267
532.90        8201.636
533.34        8270.558
533.78        8370.873
534.22        8482.604
534.66        8557.816
535.09        8594.582
535.53        8636.664
535.97        8685.074
536.41        8712.288
536.85        8721.711
537.28        8731.034
537.72        8750.723
538.16        8788.843
538.60        8847.579
539.04        8925.259
539.47        9007.757
539.91        9072.135
540.35         9113.57
540.79        9136.678
541.22        9151.686
541.66        9191.404
542.10        9236.647
542.54        9297.917
542.97        9365.104
543.41        9434.232
543.85        9501.901
544.29        9572.058
544.72        9635.103
545.16        9674.184
545.60        9689.211
546.04        9685.563
546.47        9685.373
546.91        9724.542
547.35        9807.196
547.79        9922.518
548.22        10046.91
548.66        10129.72
549.10        10157.49
549.53        10194.37
549.97        10164.38
550.41        10154.63
550.84        10149.15
551.28        10142.02
551.72        10145.59
552.15        10188.22
552.59        10269.23
553.03        10369.26
553.46        10471.54
553.90        10549.36
554.34        10592.98
554.77        10624.21
555.21         10674.1
555.65        10672.37
556.08        10827.66
556.52        10962.22
556.96        11106.62
557.39        11201.33
557.83         11238.8
558.27        11253.03
558.70        11270.85
559.14         11279.6
559.57        11390.54
560.01        11491.94
560.45         11616.2
560.88        11776.21
561.32        11946.46
561.75        12115.78
562.19        12256.15
562.63        12256.94
563.06        12176.71
563.50        12274.28
563.93        12526.85
564.37        12666.65
564.80         12681.9
565.24        12735.06
565.68        12839.36
566.11        12935.37
566.55        13027.98
566.98        13142.82
567.42        13275.15
567.85        13411.06
568.29        13552.54
568.72        13709.71
569.16        13903.05
569.60        14148.29
570.03        14431.05
570.47        14794.78
570.90        15087.26
571.34        15323.17
571.77        15440.15
572.21        15597.94
572.64        15776.63
573.08        15692.59
573.51        15186.05
573.95        15611.42
574.38        16562.07
574.82        16664.84
575.25        16708.62
575.69        16383.12
576.12        16163.17
576.56        15833.65
576.99        15944.36
577.42        16554.22
577.86           16678
578.29        17332.04
578.73        18051.86
579.16        17529.35
579.60        16435.34
580.03        15962.91
580.47        16265.46
580.90        16694.63
581.33        16527.01
581.77        16787.78
582.20        18858.13
582.64         19357.4
583.07        18209.46
583.51        16930.78
583.94        15842.92
584.37        15235.74
584.81        15251.48
585.24        15842.54
585.68        16596.44
586.11        16972.55
586.54        16582.81
586.98        16025.17
587.41         15444.6
587.85        15582.91
588.28        16026.61
588.71        15945.05
589.15        15187.28
589.58         15093.6
590.01        14501.96
590.45        14382.06
590.88        14343.74
591.31        14252.56
591.75        14082.63
592.18        14026.69
592.61        14284.43
593.05        14327.26
593.48        15402.32
593.91        15981.19
594.35        15691.31
594.78        15288.87
595.21        14793.32
595.65        14891.93
596.08        15451.09
596.51        15333.43
596.94        14912.94
597.38         14728.8
597.81        14875.39
598.24        15203.76
598.68        15090.26
599.11        15251.11
599.54        15824.32
599.97        16312.37
600.41        16084.13
600.84        16167.39
601.27        16195.87
601.70        16028.92
602.14        15792.13
602.57           15645
603.00         15663.6
603.43        15870.82
603.87         16038.6
604.30        16102.07
604.73        15991.69
605.16        15685.53
605.60        15319.49
606.03        15314.58
606.46        15614.31
606.89        15679.16
607.32        15450.69
607.76        15353.04
608.19        15383.65
608.62        15180.72
609.05           14960
609.48        14805.85
609.92        14804.57
610.35        14706.47
610.78        14803.74
611.21        14748.83
611.64        14623.54
612.07        14452.67
612.50        14276.21
612.94        14167.41
613.37        14125.39
613.80        14098.39
614.23        14084.84
614.66        13982.85
615.09        14014.01
615.52        13985.53
615.96        13940.47
616.39        13836.22
616.82        13689.18
617.25        13513.83
617.68        13349.35
618.11        13324.16
618.54        13393.18
618.97        13322.73
619.40        13123.46
619.84        12999.93
620.27        12956.09
620.70         12899.3
621.13        12820.71
621.56        12677.97
621.99        12509.71
622.42        12506.19
622.85        12649.76
623.28        12621.11
623.71        12621.71
624.14        12561.65
624.57        12512.33
625.00        12456.19
625.43         12398.2
625.86        12313.58
626.29        12206.04
626.72        12174.64
627.15        12079.98
627.58        12058.08
628.01        12047.21
628.44        11952.74
628.87        11800.12
629.30        11748.18
629.73        11786.73
630.16        11765.13
630.59        11676.61
631.02        11605.89
631.45        11560.19
631.88        11511.39
632.31        11461.02
632.74        11417.95
633.17        11376.51
633.60         11327.5
634.03        11270.14
634.46        11205.92
634.89        11145.87
635.32        11108.28
635.75        11096.03
636.18        11103.16
636.61        11114.09
637.04        11103.53
637.47        11064.42
637.89        11006.82
638.32        10947.54
638.75         10902.3
639.18        10874.08
639.61        10901.87
640.04        10887.41
640.47        10871.86
640.90        10824.97
641.33        10760.56
641.76        10692.75
642.18        10630.39
642.61        10576.13
643.04        10549.68
643.47        10557.56
643.90        10460.24
644.33        10484.19
644.76        10464.09
645.18        10454.07
645.61        10387.85
646.04        10282.72
646.47        10226.31
646.90        10222.91
647.33        10210.93
647.75        10191.85
648.18        10211.55
648.61        10252.41
649.04        10269.81
649.47        10259.58
649.89        10206.15
650.32        10132.86
650.75        10150.37
651.18        10228.71
651.61        10182.96
652.03        10023.57
652.46        9949.014
652.89        10001.33
653.32         9994.21
653.74        9954.859
654.17        10131.54
654.60        9916.146
655.03        9658.719
655.46        9932.293
655.88        10130.81
656.31        12178.45
656.74        29992.81
657.16        36063.87
657.59        18273.76
658.02        11224.22
658.45        10042.71
658.87        9851.561
659.30        9997.422
659.73        9782.926
660.15        9487.005
660.58        9576.959
661.01        9614.577
661.44        9661.086
661.86        9652.554
662.29        9562.839
662.72        9461.017
663.14        9374.817
663.57        9351.218
664.00        9384.301
664.42        9405.042
664.85        9402.086
665.27        9407.041
665.70        9414.626
666.13        9407.265
666.55        9381.691
666.98        9334.244
667.41        9275.422
667.83        9229.079
668.26        9201.881
668.69        9190.756
669.11        9187.628
669.54        9176.054
669.96        9155.208
670.39         9136.77
670.82        9131.858
671.24        9150.655
671.67        9193.585
672.09        9255.924
672.52        9317.153
672.94        9343.908
673.37        9328.485
673.80        9280.596
674.22        9218.145
674.65         9170.45
675.07        9147.089
675.50        9141.531
675.92        9144.154
676.35        9138.503
676.77        9121.032
677.20        9099.136
677.62        9081.452
678.05        9080.584
678.47        9098.102
678.90         9125.96
679.32        9155.901
679.75        9176.401
680.17        9182.592
680.60         9177.65
681.02        9161.125
681.45        9132.331
681.87        9094.706
682.30        9051.637
682.72        9011.572
683.15        8987.757
683.57        8983.812
684.00        8995.816
684.42        9020.854
684.85         9053.38
685.27        9088.813
685.70        9125.688
686.12        9154.991
686.54        9167.204
686.97        9160.298
687.39        9125.479
687.82        9073.223
688.24        9047.275
688.66        9041.294
689.09        8995.163
689.51        8917.136
689.94        8872.046
690.36        8864.434
690.78         8853.64
691.21        8833.837
691.63        8827.931
692.06        8824.414
692.48        8780.854
692.90        8712.128
693.33        8675.628
693.75        8677.048
694.17        8695.933
694.60        8716.071
695.02        8705.956
695.44        8668.549
695.87        8644.652
696.29        8643.652
696.71        8648.541
697.14        8660.079
697.56        8690.296
697.98        8725.113
698.41        8731.836
698.83        8704.555
699.25        8656.155
699.68        8594.965
700.10        8530.375
700.52         8469.19
700.94        8416.363
701.37         8374.44
701.79        8335.595
702.21        8306.636
702.64        8308.101
703.06        8328.972
703.48        8341.281
703.90        8342.836
704.33        8291.736
704.75         8295.02
705.17        8257.204
705.59        8213.103
706.01         8161.44
706.44        8119.508
706.86        8113.162
707.28        8144.073
707.70        8203.917
708.12        8264.953
708.55        8283.024
708.97        8247.189
709.39        8169.176
709.81        8074.305
710.23        8003.926
710.66        7970.597
711.08        7964.997
711.50        7967.729
711.92        7947.327
712.34        7896.895
712.76        7826.882
713.19        7760.388
713.61        7732.957
714.03            7750
714.45        7796.921
714.87        7843.772
715.29        7844.255
715.71        7787.802
716.13        7690.125
716.56        7577.857
716.98         7493.48
717.40        7450.179
717.82        7436.347
718.24        7437.391
718.66        7429.532
719.08        7405.136
719.50        7372.005
719.92        7337.833
720.34        7313.802
720.76        7301.832
721.19        7295.346
721.61        7286.025
722.03        7262.562
722.45        7222.552
722.87        7171.068
723.29        7115.484
723.71        7066.783
724.13        7029.318
724.55        7001.213
724.97        6979.978
725.39        6961.387
725.81        6943.314
726.23        6925.874
726.65        6910.821
727.07        6900.485
727.49        6894.669
727.91        6892.775
728.33        6887.536
728.75        6868.098
729.17        6833.547
729.59        6787.175
730.01        6743.069
730.43        6723.712
730.85        6732.951
731.27        6763.436
731.69         6797.26
732.10        6805.574
732.52        6781.144
732.94        6732.519
733.36        6675.076
733.78        6633.218
734.20        6614.171
734.62        6611.435
735.04        6612.852
735.46        6598.561
735.88        6561.872
736.30         6509.23
736.72        6453.585
737.13        6402.642
737.55        6357.716
737.97        6351.013
738.39        6365.176
738.81        6283.948
739.23        6145.317
739.65        6158.262
740.06        6289.049
740.48        6306.486
740.90        6196.193
741.32        6082.645
741.74        5999.142
742.16        5944.358
742.57        5928.645
742.99          5954.4
743.41        5992.679
743.83        5990.459
744.25        5940.282
744.67        5869.216
745.08        5801.768
745.50        5765.849
745.92        5770.398
746.34        5808.595
746.75        5858.067
747.17        5880.333
747.59        5866.407
748.01        5829.659
748.42        5786.815
748.84        5764.174
749.26        5768.661
749.68        5789.263
750.09         5816.54
750.51        5836.647
750.93          5843.9
751.35        5843.223
751.76        5833.625
752.18        5813.065
752.60        5783.073
753.01        5744.303
753.43        5705.178
753.85        5679.104
754.27        5670.565
754.68        5679.436
755.10          5697.2
755.52         5708.79
755.93        5709.927
756.35        5702.723
756.77        5700.209
757.18        5719.938
757.60        5763.437
758.02        5833.403
758.43        5904.322
758.85        5913.568
759.26        5863.632
759.68        5816.457
760.10        5789.674
760.51        5764.122
760.93        5746.131
761.34        5760.781
761.76        5782.194
762.18        5753.485
762.59        5668.896
763.01        5548.034
763.42        5433.479
763.84        5392.476
764.26        5436.488
764.67        5539.051
765.09         5652.56
765.50        5701.677
765.92        5666.311
766.33        5571.375
766.75        5446.389
767.16        5339.111
767.58        5267.626
768.00        5218.603
768.41        5189.805
768.83        5175.749
769.24        5171.419
769.66        5186.521
770.07        5210.794
770.49        5209.622
770.90        5184.645
771.32        5171.493
771.73        5167.682
772.15        5141.846
772.56        5094.119
772.97        5043.977
773.39        4995.247
773.80        4944.781
774.22        4894.807
774.63        4848.487
775.05        4805.668
775.46        4764.527
775.88        4725.301
776.29         4689.32
776.70        4657.557
777.12        4631.515
777.53        4611.134
777.95        4594.787
778.36        4582.368
778.77        4573.934
779.19        4569.156
779.60        4568.154
780.02        4566.977
780.43        4561.412
780.84        4550.429
781.26        4528.873
781.67         4504.29
782.09        4500.417
782.50        4513.103
782.91        4513.672
783.33        4495.206
783.74        4467.725
784.15         4431.14
784.57        4380.568
784.98        4327.051
785.39        4290.521
785.81         4275.95
786.22        4291.148
786.63        4308.751
787.04        4345.885
787.46        4390.168
787.87        4441.321
788.28         4487.85
788.70        4512.568
789.11        4511.412
789.52        4486.631
789.93        4450.754
790.35        4424.686
790.76        4414.779
791.17        4419.365
791.58        4426.789
792.00        4412.918
792.41        4373.425
792.82        4327.673
793.23        4295.198
793.65        4274.307
794.06        4283.367
794.47        4381.679
794.88        4518.225
795.29        4547.874
795.71         4452.46
796.12        4298.662
796.53        4133.231
796.94        4011.985
797.35        3955.963
797.76        3948.168
798.18        3963.536
798.59        3960.792
799.00        3926.648
799.41        3875.804
799.82        3815.926
800.23        3757.805
800.64        3706.213
801.06        3654.468
801.47        3605.211
801.88        3565.504
802.29        3535.661
802.70        3515.092
803.11        3496.885
803.52        3468.291
803.93        3427.131
804.34        3377.972
804.75        3327.869
805.17        3288.512
805.58        3262.966
805.99        3246.468
806.40        3235.948
806.81        3226.753
807.22        3215.657
807.63        3203.151
808.04         3184.97
808.45        3154.598
808.86         3111.19
809.27        3056.384
809.68        2996.737
810.09        2943.049
810.50        2899.247
810.91        2864.664
811.32        2834.783
811.73        2801.587
812.14        2763.125
812.55        2720.973
812.96        2682.336
813.37        2658.371
813.78        2650.132
814.19        2653.454
814.60        2654.671
815.01        2632.712
815.42        2583.629
815.83        2513.832
816.24        2440.602
816.65        2391.625
817.05        2373.626
817.46        2379.009
817.87        2391.123
818.28        2382.847
818.69         2347.74
819.10        2294.537
819.51        2238.547
819.92        2204.067
820.33        2196.492
820.74        2206.409
821.14        2220.191
821.55        2216.903
821.96        2190.662
822.37        2148.608
822.78        2099.064
823.19        2055.037
823.60        2021.037
824.00        1992.981
824.41        1968.388
824.82        1943.459
825.23        1917.099
825.64        1892.094
826.04        1868.593
826.45        1845.987
826.86        1824.227
827.27         1802.15
827.68        1781.692
828.08         1766.52
828.49        1756.577
828.90        1750.574
829.31        1743.107
829.72        1725.617
830.12        1696.845
830.53        1659.856
830.94        1621.929
831.35        1594.661
831.75        1581.142
832.16        1578.319
832.57        1580.422
832.97        1577.878
833.38        1567.979
833.79        1553.507
834.20        1538.404
834.60        1529.047
835.01        1526.628
835.42        1527.968
835.82        1529.534
836.23        1526.163
836.64        1516.548
837.04         1503.15
837.45         1487.54
837.86        1471.954
838.26         1457.86
838.67        1444.723
839.08        1434.521
839.48        1430.462
839.89        1432.379
840.29        1438.759
840.70        1445.587
841.11        1446.297
841.51         1439.14
841.92        1425.972
842.33        1408.982
842.73        1392.107
843.14        1376.989
843.54        1362.554
843.95        1349.782
844.35        1340.064
844.76        1333.482
845.17        1330.356
845.57         1328.01
845.98        1321.754
846.38        1310.712
846.79        1295.783
847.19        1280.708
847.60        1271.945
848.00         1270.26
848.41        1272.847
848.81        1275.207
849.22        1269.982
849.62        1255.995
850.03        1237.314
850.43        1216.475
850.84         1197.42
851.24        1182.246
851.65         1169.04
852.05         1162.17
852.46        1168.567
852.86        1187.616
853.27        1216.546
853.67        1243.274
854.07         1248.54
854.48        1228.458
854.88        1188.445
855.29        1141.889
855.69         1110.95
856.10        1101.438
856.50        1107.088
856.90        1117.626
857.31        1116.122
857.71        1098.248
858.12        1070.293
858.52        1039.619
858.92        1017.406
859.33        1006.937
859.73        1003.976
860.13         1004.62
860.54        1003.143
860.94        997.5367
861.34        989.9965
861.75        981.4249
862.15        973.0049
862.55        965.1297
862.96        956.5009
863.36        947.7876
863.76        940.4478
864.17        934.6589
864.57        930.7059
864.97        926.1428
865.38        916.8309
865.78        902.3986
866.18        884.1116
866.58        866.8381
866.99        858.3627
867.39        859.9904
867.79        869.1096
868.19        879.5829
868.60        881.5347
869.00          872.65
869.40        856.1135
869.80        837.2102
870.21        824.4816
870.61        820.4037
871.01        822.3093
871.41        827.1432
871.81        830.0232
872.22        829.4084
872.62        827.0933
873.02        824.2764
873.42         822.682
873.82         822.741
874.22        823.1961
874.63        823.7416
875.03        824.2512
875.43        824.4846
875.83        824.8381
876.23         824.418
876.63        821.5625
877.03        816.4655
877.44         810.047
877.84        804.4967
878.24        803.3748
878.64        807.1779
879.04        814.1224
879.44        822.4347
879.84        829.2754
880.24        833.3262
880.64        835.3969
881.04        834.1862
881.44        827.7528
881.84         816.561
882.24        801.5795
882.65        786.9012
883.05        779.0951
883.45        779.6158
883.85        786.6727
884.25        796.3973
884.65        802.2801
885.05        802.3052
885.45        798.1146
885.85        791.8399
886.25        787.0336
886.65        784.8605
887.05        784.2306
887.45          783.95
887.85        782.3023
888.25         779.028
888.65        775.1025
889.04        772.2144
889.44        772.6661
889.84        776.9946
890.24        784.4824
890.64        793.0398
891.04        799.5389
891.44        802.8566
891.84        803.0832
892.24        802.4006
892.64        804.4144
893.04        809.7685
893.44        817.7777
893.83        824.3454
894.23        822.9183
894.63        812.9084
895.03        796.8842
895.43        781.7784
895.83        778.5643
896.23        789.2029
896.63        809.5643
897.02        832.3232
897.42        845.7619
897.82        846.4474
898.22        837.8829
898.62        823.8716
899.01        810.7294
899.41        800.9681
899.81         792.776
900.21        786.2198
900.61        781.4812
901.00        778.4651
901.40        778.0629
901.80        779.2227
902.20        779.5789
902.59        778.6805
902.99        776.8962
903.39        775.6816
903.79        777.6564
904.18        783.1281
904.58        790.7897
904.98        798.7071
905.38        804.0119
905.77        805.6786
906.17        804.2771
906.57         800.688
906.96        796.4136
907.36        792.0994
907.76        787.6159
908.15        782.6033
908.55        776.4332
908.95        769.3338
909.34        762.0288
909.74        755.9361
910.14        753.0323
910.53        753.6458
910.93         757.009
911.33        761.5389
911.72        764.7334
912.12        765.7159
912.52        764.9255
912.91        763.1017
913.31         761.561
913.70        760.7638
914.10         760.391
914.49        759.9117
914.89        758.5712
915.29        756.2477
915.68        753.1887
916.08        750.4308
916.47         749.509
916.87         750.578
917.26        753.0775
917.66        755.1418
918.05        753.8828
918.45        748.6697
918.84        740.2684
919.24        730.8887
919.64        724.0943
920.03        720.8237
920.42        720.3025
920.82         720.412
921.21        717.6046
921.61         711.347
922.00        703.1509
922.40        695.6125
922.79        692.7707
923.19         695.408
923.58        701.7169
923.98        709.5175
924.37        715.4764
924.77        718.2277
925.16        718.5145
925.55        716.3245
925.95        711.7739
926.34         705.299
926.74        696.9219
927.13        687.8695
927.52        680.2229
927.92        674.6017
928.31        670.7761
928.70        667.9796
929.10        664.6912
929.49        660.4664
929.89        655.8124
930.28        651.1997
930.67        647.2602
931.07        644.3782
931.46        642.5843
931.85        641.5259
932.24        640.8025
932.64        640.1284
933.03        638.9744
933.42        638.4326
933.82         640.277
934.21        644.3868
934.60        650.2322
934.99        654.1577
935.39        650.4207
935.78         638.397
936.17        620.1735
936.56        601.5842
936.96        591.9078
937.35        593.2989
937.74        603.0641
938.13        615.6873
938.53        622.1541
938.92        619.9237
939.31        611.5018
939.70        600.8309
940.09        594.3058
940.49        593.5605
940.88         596.279
941.27        599.3057
941.66        597.8571
942.05        590.8625
942.44        580.3444
942.84        568.9733
943.23        560.7769
943.62        556.7983
944.01        555.4349
944.40        555.1772
944.79        553.6721
945.18        550.1184
945.57        545.5994
945.97        539.9814
946.36        532.9343
946.75        524.8577
947.14        515.8038
947.53        507.7299
947.92        503.8672
948.31        504.6401
948.70        508.9803
949.09        514.1273
949.48        515.5684
949.87        512.1071
950.26        504.9726
950.65        496.2235
951.04        489.2888
951.43        485.2412
951.82        483.1393
952.21        481.8973
952.60        479.7351
952.99         476.281
953.38        472.4189
953.77        468.9058
954.16        466.8797
954.55        466.3502
954.94        466.1994
955.33        466.0878
955.72        465.6046
956.11        464.4414
956.50        463.2117
956.89        460.3097
957.28        453.0823
957.66        441.8256
958.05        427.7586
958.44        415.3702
958.83        411.8328
959.22        418.1818
959.61         431.572
960.00        446.8426
960.39        455.6465
960.78        455.4926
961.16        448.8816
961.55        437.9745
961.94        426.4723
962.33        416.2166
962.72        406.2503
963.11        397.9212
963.49        393.4633
963.88        393.0136
964.27        396.2027
964.66        400.6771
965.04         402.195
965.43        399.6599
965.82        394.1719
966.21        387.1898
966.60         381.355
966.98        377.5051
967.37        374.6146
967.76        372.5761
968.15        371.2874
968.53        370.4532
968.92        370.3423
969.31        369.8519
969.69        367.0259
970.08        361.6953
970.47        354.5289
970.86         347.365
971.24        343.2189
971.63        342.7859
972.02        345.0621
972.40         348.455
972.79        350.4526
973.17        350.0357
973.56        347.5757
973.95        343.7391
974.33        339.5716
974.72        335.5998
975.11        331.9942
975.49        327.8213
975.88        321.6858
976.26         313.636
976.65        304.0294
977.04        295.9724
977.42        294.2865
977.81        299.3798
978.19        309.4993
978.58        319.2199
978.96        319.8767
979.35         309.764
979.74        291.7427
980.12         271.439
980.51         258.035
980.89        253.9772
981.28        256.3367
981.66          261.55
982.05        263.7873
982.43        261.1978
982.82          255.97
983.20        249.1269
983.59        242.0913
983.97        235.7313
984.35        229.3438
984.74        224.0199
985.12        221.7793
985.51         222.806
985.89        226.6139
986.28        231.2283
986.66        233.3109
987.04        231.9236
987.43        227.7578
987.81        222.4182
988.20        218.6075
988.58         217.127
988.96        217.3646
989.35        217.8863
989.73        216.4192
990.12        212.5534
990.50        207.0622
990.88        201.9817
991.27        200.4686
991.65        202.9596
992.03        208.1691
992.42        213.4018
992.80        214.4258
993.18        210.2919
993.56        202.5077
993.95        193.3289
994.33        186.3586
994.71        182.8185
995.10         181.731
995.48        182.2967
995.86        183.1937
996.24        183.8036
996.63          184.48
997.01        185.0816
997.39        185.3124
997.77        184.9686
998.15        183.7485
998.54        181.5318
998.92        178.3522
999.30        174.3302
999.68        169.6985
1000.06        164.6488
1000.45        159.4214
1000.83        154.2725
1001.21        149.3273
1001.59        145.1099
1001.97        142.3167
1002.35        141.0354
1002.73        141.0904
1003.12        141.6297
1003.50         141.272
1003.88        139.6449
1004.26        136.9782
1004.64        134.0987
1005.02        132.4364
1005.40        132.2381
1005.78        132.9714
1006.16        133.6467
1006.54        132.6897
1006.92         129.825
1007.30        125.7587
1007.69        121.3816
1008.07         118.084
1008.45        116.2724
1008.83        115.3721
1009.21        115.1669
1009.59        115.3355
1009.97        115.5103
1010.35         115.691
1010.73        115.0761
1011.11        112.4054
1011.49        107.5236
1011.86        100.8351
1012.24        93.51757
1012.62        87.48958
1013.00        83.39963
1013.38        80.98977
1013.76        79.53748
1014.14        77.75305
1014.52        75.30924
1014.90        72.57097
1015.28        70.36319
1015.66        69.95109
1016.04        71.48166
1016.41        74.40611
1016.79         77.4315
1017.17        78.57738
1017.55        77.45957
1017.93        74.75446
1018.31        71.80899
1018.69        70.80895
1019.06        72.26134
1019.44        75.33368
1019.82        79.03107
1020.20         81.7961
1020.58        83.02773
1020.95        83.15659
1021.33        82.32971
1021.71          80.744
1022.09        78.70014
1022.46        76.32782
1022.84        73.94993
1023.22        72.11998
1023.60        71.04977
1023.97        70.57002
1024.35        70.91114
1024.73        72.40535
