SpectraSmart Spectrum 2.9.0.0
--------- Device Information -----------
Spectrum Name :  光譜_0
Saving Time :  2024/04/25 22:31:41
Spectro-Module Model Name : SE2030-DUVN
Spectro-Module Serial Number : OS361AC55029948
Wavelength Start : 200
Wavelength End : 1025
Wavelength Unit : Wavelength(nm)
Spectrum Unit : Intensity(Counts)
-----------Spectrum Setting ------------
Integration Time : 1ms
Average : 10
Boxcar : 0
Background removal :  enabled
linearity correction :  enabled
SC :  disabled
Intensity correction :  disabled
DWT denoise :  enabled
savitzky-golay :  disabled
FFT :  disabled
Running average :  disabled
Kalman :  disabled
High pass :  disabled
---------------BEGIN--------------------
Wavelength(nm)          Intensity(Counts)
200.29       -19.57882
200.75       -19.20165
201.21       -18.89275
201.67       -18.30857
202.13       -16.82668
202.58       -14.44909
203.04       -11.42481
203.50       -8.571526
203.96        -7.17034
204.42       -7.569517
204.88       -9.500594
205.34       -12.13786
205.80       -14.15433
206.26       -15.07219
206.72       -14.93877
207.18       -14.51214
207.64       -15.10238
208.10        -16.7961
208.55        -19.0792
209.01       -20.40641
209.47       -18.34867
209.93       -12.72602
210.39       -4.786569
210.85        3.273903
211.31         8.06539
211.77        8.598619
212.23        5.878661
212.69        1.005875
213.14       -4.162718
213.60       -8.697125
214.06       -12.86214
214.52       -16.21286
214.98       -18.11078
215.44       -18.44846
215.90       -17.19368
216.36       -14.84679
216.81       -12.44106
217.27       -10.36726
217.73       -8.522531
218.19       -6.903361
218.65       -5.370908
219.11       -3.847389
219.57       -2.437401
220.02      -0.9864883
220.48       0.8306433
220.94        3.093962
221.40        5.755572
221.86        8.742273
222.32        11.86893
222.77        15.08921
223.23        18.52237
223.69         22.1068
224.15        25.72309
224.61        29.41368
225.06        33.22576
225.52        37.45241
225.98         42.5792
226.44        48.64059
226.90         55.3977
227.36        62.45602
227.81        69.18225
228.27        75.37392
228.73        81.21689
229.19        86.78345
229.65        92.21181
230.10        97.61162
230.56         102.906
231.02        108.2968
231.48         114.149
231.93        120.3791
232.39        126.6475
232.85        132.4169
233.31        136.9085
233.77        139.7097
234.22        140.7557
234.68        139.9951
235.14        137.4715
235.60        133.2852
236.05        127.5628
236.51        120.4032
236.97        111.9604
237.43        102.5308
237.88        92.39737
238.34        82.25089
238.80        73.01588
239.26        64.97099
239.71        58.06098
240.17        51.72035
240.63        44.89814
241.08         37.4315
241.54        29.75737
242.00        22.54916
242.46        16.87066
242.91        12.99248
243.37        10.50363
243.83        9.010457
244.28        7.907676
244.74         6.90452
245.20         6.12002
245.66        5.434272
246.11         4.67223
246.57         3.83463
247.03        2.914912
247.48        2.152841
247.94        2.001966
248.40        2.562956
248.85        3.706432
249.31        5.257906
249.77        6.902166
250.22        8.546725
250.68        10.32725
251.14        12.25117
251.59        14.33492
252.05        16.64663
252.51        19.19854
252.96         22.2862
253.42         26.3656
253.88        31.61395
254.33        38.12865
254.79        45.67057
255.25        53.74566
255.70        62.46736
256.16        72.29863
256.62        84.06094
257.07        98.91823
257.53        117.2838
257.99        139.0233
258.44        163.6725
258.90        190.3758
259.35        218.8474
259.81        249.1985
260.27        281.6964
260.72        316.8335
261.18        354.4049
261.63         393.688
262.09         433.765
262.55        473.4073
263.00        511.9927
263.46        549.4303
263.91        585.5399
264.37        620.3285
264.83        653.5848
265.28        684.7501
265.74        713.8475
266.19        741.1331
266.65        766.4725
267.11        789.7864
267.56        810.1694
268.02        826.2121
268.47        837.9033
268.93        845.9841
269.38        852.3479
269.84        859.8533
270.30        869.5516
270.75        881.3629
271.21        894.0974
271.66        905.5004
272.12        915.4085
272.57        924.9762
273.03        936.4324
273.48        953.1217
273.94        975.7324
274.39        1003.111
274.85        1033.123
275.31        1062.319
275.76         1089.83
276.22        1116.869
276.67         1144.74
277.13         1175.58
277.58        1210.023
278.04        1247.015
278.49         1286.39
278.95        1328.043
279.40        1371.387
279.86        1416.171
280.31        1460.759
280.77        1502.581
281.22        1541.094
281.68        1576.876
282.13        1611.565
282.59        1648.033
283.04        1687.013
283.50        1727.605
283.95        1768.797
284.41        1808.842
284.86        1847.283
285.32        1885.013
285.77        1922.149
286.22        1958.793
286.68        1995.142
287.13        2030.826
287.59        2066.922
288.04        2105.253
288.50        2145.795
288.95        2187.781
289.41        2228.509
289.86        2263.789
290.32        2292.523
290.77        2315.468
291.22        2335.369
291.68        2356.881
292.13        2381.009
292.59        2406.398
293.04        2430.007
293.50        2446.922
293.95        2456.405
294.40        2460.728
294.86        2463.476
295.31        2470.133
295.77        2482.372
296.22        2498.725
296.68        2517.456
297.13        2535.573
297.58        2552.243
298.04        2568.946
298.49        2586.209
298.95        2604.638
299.40        2624.845
299.85        2646.641
300.31        2671.259
300.76        2700.769
301.21        2735.404
301.67        2774.568
302.12        2816.456
302.58        2857.981
303.03        2898.392
303.48        2938.624
303.94        2979.798
304.39         3023.87
304.84        3071.257
305.30        3120.717
305.75        3171.809
306.20        3224.115
306.66        3276.653
307.11        3328.702
307.57        3378.292
308.02        3422.542
308.47        3460.643
308.93        3493.108
309.38        3521.185
309.83        3547.198
310.29        3572.064
310.74        3595.413
311.19        3617.221
311.65        3637.271
312.10        3655.551
312.55        3672.515
313.00        3688.061
313.46         3701.78
313.91          3713.6
314.36        3723.517
314.82         3731.86
315.27        3739.227
315.72        3745.704
316.18        3751.118
316.63        3754.894
317.08        3756.129
317.53        3754.663
317.99        3750.776
318.44        3745.202
318.89        3739.128
319.35        3732.751
319.80        3725.566
320.25        3716.758
320.70        3705.081
321.16        3690.106
321.61        3672.126
322.06         3651.53
322.51        3628.957
322.97        3604.703
323.42         3578.72
323.87        3550.846
324.32        3520.868
324.78         3488.78
325.23         3454.67
325.68        3419.223
326.13        3383.384
326.59        3347.386
327.04        3311.255
327.49        3273.728
327.94        3232.767
328.39        3188.147
328.85        3140.464
329.30        3092.203
329.75        3047.333
330.20        3006.586
330.66        2968.852
331.11         2931.09
331.56        2888.275
332.01        2839.674
332.46         2787.59
332.92        2735.442
333.37        2688.534
333.82        2648.599
334.27        2614.174
334.72        2584.138
335.17        2556.529
335.63        2530.391
336.08        2506.404
336.53        2483.783
336.98        2461.159
337.43        2438.411
337.88        2415.704
338.34        2394.523
338.79        2377.504
339.24         2365.29
339.69        2357.222
340.14         2351.96
340.59        2347.257
341.05        2342.426
341.50         2338.03
341.95        2334.991
342.40        2334.769
342.85        2337.696
343.30         2343.23
343.75        2350.251
344.20        2357.104
344.66        2363.359
345.11        2369.336
345.56        2376.211
346.01        2385.953
346.46        2398.645
346.91        2413.148
347.36        2427.564
347.81        2439.046
348.26        2446.796
348.72        2451.708
349.17        2454.908
349.62        2458.221
350.07         2462.56
350.52        2467.816
350.97        2474.182
351.42        2481.819
351.87        2490.843
352.32        2501.449
352.77        2513.677
353.22        2527.438
353.67        2542.335
354.13        2557.795
354.58        2573.175
355.03        2587.631
355.48        2600.832
355.93        2613.053
356.38        2623.996
356.83        2633.303
357.28        2641.309
357.73        2648.358
358.18        2656.143
358.63        2667.277
359.08        2682.179
359.53        2699.981
359.98        2718.522
360.43        2734.325
360.88         2746.22
361.33        2754.746
361.78        2761.225
362.23         2767.99
362.68        2775.624
363.13        2783.474
363.58        2790.139
364.03        2793.389
364.48        2793.126
364.93        2790.639
365.38        2788.024
365.83        2788.494
366.28        2792.588
366.73        2798.661
367.18        2805.236
367.63        2810.013
368.08         2811.85
368.53        2811.344
368.98        2807.194
369.43        2797.549
369.88        2782.603
370.33        2763.056
370.78        2742.795
371.23        2727.865
371.68        2720.197
372.13          2719.5
372.58        2721.828
373.03        2720.409
373.48        2713.916
373.93        2704.043
374.38        2697.293
374.83         2703.76
375.28        2725.289
375.72          2759.1
376.17        2795.346
376.62        2818.524
377.07        2825.375
377.52        2819.851
377.97        2814.231
378.42        2828.493
378.87        2866.145
379.32        2919.969
379.77         2975.14
380.22        3008.195
380.67        3013.782
381.11        2999.993
381.56        2979.552
382.01        2972.916
382.46        2985.946
382.91         3012.06
383.36        3045.066
383.81        3074.578
384.26        3098.013
384.71        3121.558
385.15        3145.687
385.60        3170.392
386.05        3196.887
386.50         3222.79
386.95        3256.418
387.40        3311.945
387.85        3389.649
388.29        3484.909
388.74        3579.755
389.19        3644.238
389.64        3674.742
390.09        3684.328
390.54        3692.681
390.98        3732.104
391.43         3809.47
391.88        3908.844
392.33        4024.167
392.78        4142.947
393.23        4253.562
393.67        4369.661
394.12        4468.796
394.57        4481.601
395.02        4425.237
395.47        4395.465
395.91        4409.425
396.36        4424.139
396.81        4446.514
397.26        4511.279
397.71        4616.022
398.15        4728.823
398.60        4837.606
399.05        4958.459
399.50        5065.845
399.95         5090.04
400.39        5039.863
400.84        4994.213
401.29        4966.993
401.74         4922.97
402.18        4872.381
402.63        4850.702
403.08        4857.117
403.53        4870.248
403.97        4884.855
404.42        4903.344
404.87        4927.624
405.32         4955.76
405.76        4984.866
406.21        5025.412
406.66         5056.11
407.11        5021.456
407.55        4933.334
408.00        4852.934
408.45        4806.201
408.90        4803.317
409.34        4839.064
409.79        4882.131
410.24        4910.586
410.68        4920.037
411.13        4902.862
411.58        4844.338
412.03        4771.713
412.47        4744.147
412.92        4771.779
413.37        4833.813
413.81        4902.662
414.26        4935.726
414.71        4921.388
415.15        4874.195
415.60        4813.768
416.05        4770.735
416.49        4754.891
416.94        4757.543
417.39        4769.879
417.83        4776.625
418.28        4776.097
418.73        4779.834
419.17        4792.242
419.62        4818.302
420.07        4857.577
420.51        4900.967
420.96        4956.694
421.41        5031.585
421.85        5120.232
422.30        5240.881
422.74        5353.639
423.19        5340.585
423.64        5217.911
424.08         5128.36
424.53        5097.096
424.98        5047.504
425.42        4987.199
425.87        5000.125
426.31        5058.644
426.76        5029.479
427.21        4932.617
427.65        4914.838
428.10        4979.378
428.54        5043.754
428.99        5104.545
429.44        5160.705
429.88        5227.581
430.33        5389.469
430.77        5595.455
431.22        5665.371
431.66         5578.52
432.11        5443.819
432.56        5297.195
433.00        5140.479
433.45        5044.014
433.89        5078.985
434.34        5173.587
434.78        5466.088
435.23        5339.538
435.67        5275.644
436.12        5286.148
436.57        5287.653
437.01        5317.109
437.46         5338.79
437.90        5338.029
438.35        5295.262
438.79        5391.946
439.24        5411.498
439.68        5406.736
440.13        5399.524
440.57         5418.47
441.02        5467.679
441.46        5554.479
441.91        5750.747
442.35          5994.2
442.80        6048.147
443.24        5941.351
443.69        5955.859
444.13        6094.342
444.58        6146.025
445.02         6110.89
445.47        6119.401
445.91        6178.521
446.36        6219.373
446.80        6236.852
447.24        6293.098
447.69        6356.176
448.13        6336.965
448.58        6399.815
449.02        6426.448
449.47        6467.256
449.91        6503.834
450.36        6536.949
450.80        6573.241
451.25        6610.772
451.69        6644.987
452.13        6675.979
452.58        6709.219
453.02        6741.882
453.47        6766.831
453.91        6783.907
454.36        6796.648
454.80        6816.293
455.24        6852.724
455.69        6905.765
456.13        6997.548
456.58        7115.228
457.02        7171.602
457.46        7172.035
457.91        7324.357
458.35        7413.257
458.79        7537.733
459.24        7628.995
459.68        7723.221
460.13        7811.136
460.57        7883.217
461.01        7943.918
461.46        7945.074
461.90        7946.728
462.34        7974.434
462.79        7884.493
463.23         7844.62
463.68        7833.326
464.12        7920.131
464.56        8097.724
465.01        8248.648
465.45        8413.651
465.89        8575.769
466.34        8705.712
466.78        8719.216
467.22         8642.95
467.67         8449.78
468.11        8388.327
468.55        8386.041
468.99        8472.806
469.44        8488.946
469.88        8425.076
470.32        8381.169
470.77         8371.96
471.21        8376.375
471.65        8397.899
472.10        8441.323
472.54        8502.004
472.98        8567.169
473.42        8631.024
473.87        8708.677
474.31        8794.551
474.75         8841.01
475.20        8867.215
475.64        8955.404
476.08        9126.892
476.52        9188.285
476.97        9136.798
477.41        9126.814
477.85        9132.177
478.29        9035.387
478.74        9131.074
479.18        9231.853
479.62        9255.546
480.06        9333.248
480.50        9398.832
480.95        9511.843
481.39        9670.919
481.83        9556.688
482.27        9597.831
482.72        9664.739
483.16        9604.355
483.60        9579.037
484.04        9560.538
484.48        9606.113
484.93        9674.627
485.37        9762.008
485.81        10051.25
486.25        10336.06
486.69        14091.52
487.14        15276.82
487.58        11218.33
488.02         10200.1
488.46         10166.2
488.90        9803.257
489.34        9600.395
489.79        9491.923
490.23        9608.493
490.67        9631.683
491.11        9559.228
491.55        9520.108
491.99        9513.835
492.43        9475.858
492.88        9419.846
493.32        9415.575
493.76         9452.02
494.20        9455.789
494.64        9416.378
495.08        9383.273
495.52        9369.431
495.96        9320.005
496.41        9258.446
496.85        9338.387
497.29        9499.637
497.73        9450.661
498.17         9224.95
498.61        9129.309
499.05        9181.883
499.49        9207.443
499.93        9188.625
500.37        9182.963
500.82        9187.253
501.26        9175.244
501.70        9157.333
502.14        9173.858
502.58        9211.884
503.02        9212.961
503.46        9173.446
503.90        9127.959
504.34        9085.805
504.78        9046.344
505.22        9013.692
505.66        8990.137
506.10        8976.683
506.54        8962.006
506.98        8942.188
507.42        8940.531
507.86        8959.421
508.30        8889.992
508.74        8910.322
509.18        8877.502
509.62        8848.915
510.06         8827.77
510.50        8816.891
510.94        8812.167
511.38        8808.137
511.82        8800.773
512.26        8788.348
512.70        8772.927
513.14        8756.291
513.58        8743.264
514.02        8735.492
514.46        8727.411
514.90        8718.313
515.34        8728.618
515.78        8723.903
516.22        8732.148
516.66        8740.715
517.10        8746.397
517.54        8748.153
517.98        8746.758
518.42         8746.96
518.86        8755.354
519.30        8773.063
519.74         8798.95
520.18        8826.071
520.62        8841.173
521.06        8843.313
521.50        8841.046
521.93        8841.492
522.37        8851.847
522.81        8874.688
523.25        8908.743
523.69        8947.959
524.13        8981.309
524.57        9005.991
525.01        9025.845
525.45        9044.284
525.89        9066.538
526.32        9094.947
526.76        9127.871
527.20        9164.726
527.64         9206.07
528.08        9250.756
528.52        9294.669
528.96         9337.81
529.40         9385.94
529.83        9435.677
530.27        9474.886
530.71        9502.011
531.15         9526.52
531.59        9550.844
532.03        9569.835
532.46        9594.096
532.90        9644.303
533.34        9721.946
533.78        9817.677
534.22        9918.051
534.66        10001.42
535.09         10060.9
535.53        10103.63
535.97        10131.59
536.41         10148.7
536.85        10160.18
537.28        10166.18
537.72        10179.53
538.16        10220.78
538.60        10292.73
539.04        10389.24
539.47        10493.84
539.91        10578.32
540.35        10635.52
540.79        10674.34
541.22         10704.1
541.66        10741.03
542.10        10790.64
542.54        10845.81
542.97        10908.37
543.41        10981.77
543.85        11063.84
544.29        11154.83
544.72        11241.54
545.16        11300.09
545.60        11327.76
546.04        11337.07
546.47        11346.64
546.91        11377.78
547.35        11443.51
547.79        11550.92
548.22        11677.02
548.66        11781.58
549.10        11842.79
549.53        11839.41
549.97           11795
550.41        11781.99
550.84        11811.02
551.28        11855.56
551.72        11918.33
552.15        11973.47
552.59        12042.43
553.03        12201.79
553.46        12276.82
553.90        12366.56
554.34        12412.58
554.77        12467.38
555.21        12475.96
555.65        12537.83
556.08        12637.69
556.52        12775.87
556.96        12921.09
557.39        12994.71
557.83        13003.22
558.27        13032.51
558.70        13098.98
559.14        13169.39
559.57        13253.66
560.01        13376.95
560.45        13535.22
560.88        13713.32
561.32        13886.58
561.75        14026.83
562.19        14127.61
562.63        14182.36
563.06        14219.17
563.50        14316.93
563.93        14469.83
564.37        14592.68
564.80        14678.96
565.24        14776.64
565.68         14889.3
566.11        15001.08
566.55        15115.05
566.98        15239.73
567.42        15376.63
567.85        15528.35
568.29        15700.58
568.72        15895.21
569.16        16127.97
569.60        16408.97
570.03        16676.29
570.47        17013.99
570.90        17417.75
571.34        17478.77
571.77        17701.08
572.21        18030.76
572.64        18195.63
573.08        18170.07
573.51        17638.61
573.95        17937.36
574.38        18888.64
574.82        19039.27
575.25        19261.34
575.69        19080.88
576.12         18810.3
576.56        18318.71
576.99        18232.38
577.42         18785.9
577.86         19210.9
578.29        19568.75
578.73        20855.04
579.16        20417.65
579.60        18917.03
580.03        18270.88
580.47        18514.01
580.90        18984.76
581.33        19034.86
581.77        19068.05
582.20        20997.29
582.64        22185.77
583.07        21093.66
583.51        19880.42
583.94        18447.67
584.37        17653.91
584.81        17704.95
585.24         18221.4
585.68        18804.15
586.11        19445.31
586.54        19346.26
586.98        18584.42
587.41        17689.26
587.85        17776.23
588.28        18442.87
588.71         18242.7
589.15        17508.26
589.58        17165.76
590.01        16731.44
590.45        16506.54
590.88        16613.67
591.31        16565.54
591.75        16402.48
592.18        16213.68
592.61        16266.11
593.05        16344.53
593.48        17282.66
593.91        18316.51
594.35        17940.65
594.78        17510.63
595.21        16940.45
595.65        17003.94
596.08        17603.08
596.51        17546.99
596.94        17029.92
597.38        16812.53
597.81        16915.82
598.24         17268.2
598.68        17316.23
599.11           17248
599.54        17849.47
599.97        18685.67
600.41        18341.04
600.84        18428.36
601.27        18659.91
601.70        18388.33
602.14        18293.05
602.57        18046.59
603.00        17926.04
603.43        18060.87
603.87         18218.1
604.30        18382.93
604.73        18340.28
605.16        17890.87
605.60        17539.44
606.03        17492.14
606.46        17741.68
606.89         18082.5
607.32        17612.92
607.76        17390.52
608.19        17532.32
608.62        17448.74
609.05        17196.68
609.48        17009.51
609.92        16997.82
610.35        16687.01
610.78        16934.46
611.21         17203.6
611.64        16802.51
612.07        16651.63
612.50        16518.75
612.94        16382.78
613.37        16237.84
613.80        16204.93
614.23        16115.88
614.66        16068.75
615.09        16023.62
615.52        16008.73
615.96        15984.63
616.39        15939.51
616.82        15885.23
617.25        15552.51
617.68        15405.77
618.11        15351.36
618.54        15388.63
618.97        15284.79
619.40        15042.29
619.84        14882.63
620.27        14817.83
620.70        14838.81
621.13        14892.53
621.56        14715.86
621.99         14370.1
622.42        14327.82
622.85        14588.93
623.28        14512.89
623.71        14469.69
624.14        14480.89
624.57        14480.86
625.00        14360.58
625.43        14402.04
625.86        14280.82
626.29        14095.37
626.72        14053.26
627.15        13928.92
627.58        13835.41
628.01        13733.24
628.44        13716.55
628.87        13695.98
629.30         13568.4
629.73        13603.48
630.16        13576.46
630.59        13510.72
631.02        13452.51
631.45        13388.95
631.88        13323.13
632.31        13255.05
632.74        13189.33
633.17        13126.41
633.60        13065.66
634.03        13008.27
634.46        12954.81
634.89         12910.3
635.32         12881.6
635.75        12868.28
636.18        12867.15
636.61        12865.76
637.04        12844.85
637.47         12800.1
637.89        12735.99
638.32         12666.2
638.75        12613.71
639.18         12583.8
639.61        12569.53
640.04        12557.92
640.47        12528.05
640.90        12475.43
641.33        12408.16
641.76        12337.77
642.18        12282.54
642.61        12247.23
643.04        12224.31
643.47        12207.41
643.90        12188.35
644.33        12163.69
644.76        12132.52
645.18        12093.26
645.61        12054.79
646.04         12013.3
646.47        11943.84
646.90        11863.36
647.33        11823.04
647.75        11828.44
648.18         11856.2
648.61        11889.82
649.04        11907.33
649.47        11900.26
649.89        11877.35
650.32        11841.89
650.75        11795.07
651.18        11742.01
651.61        11688.89
652.03        11639.04
652.46        11596.57
652.89        11585.99
653.32        11576.53
653.74        11606.82
654.17        11667.16
654.60        11549.16
655.03        11334.65
655.46        11400.39
655.88        11603.29
656.31        12758.01
656.74        28638.61
657.16        39600.36
657.59        24191.52
658.02        13810.33
658.45         11718.1
658.87        11387.57
659.30         11457.7
659.73        11297.72
660.15        11147.16
660.58        11111.96
661.01        11081.13
661.44        11059.89
661.86         11064.2
662.29        11056.71
662.72        11003.99
663.14        10921.44
663.57        10899.76
664.00        10935.96
664.42        10954.39
664.85        10944.03
665.27        10926.61
665.70        10904.91
666.13        10886.08
666.55        10870.65
666.98        10845.29
667.41        10813.12
667.83        10788.42
668.26        10773.25
668.69        10764.84
669.11        10757.48
669.54        10741.06
669.96         10714.5
670.39        10684.73
670.82        10663.09
671.24           10659
671.67        10679.05
672.09        10733.16
672.52        10798.64
672.94         10828.9
673.37        10810.57
673.80        10747.57
674.22        10662.24
674.65         10601.6
675.07         10577.4
675.50        10572.34
675.92        10575.19
676.35        10572.35
676.77        10559.18
677.20        10541.26
677.62        10527.38
678.05        10530.58
678.47        10552.03
678.90        10583.69
679.32        10614.34
679.75        10628.07
680.17         10619.8
680.60        10594.16
681.02        10557.17
681.45        10518.21
681.87        10482.88
682.30        10452.24
682.72         10426.7
683.15         10406.1
683.57        10391.27
684.00         10382.3
684.42        10384.92
684.85        10407.57
685.27        10447.96
685.70        10499.05
686.12        10543.41
686.54        10556.25
686.97        10533.05
687.39        10475.53
687.82        10397.16
688.24        10339.04
688.66        10311.42
689.09         10243.2
689.51        10232.01
689.94        10205.34
690.36        10191.16
690.78        10182.93
691.21        10181.14
691.63        10185.91
692.06        10193.83
692.48        10202.74
692.90        10206.27
693.33        10195.29
693.75        10167.52
694.17        10127.85
694.60         10083.6
695.02        10036.78
695.44        9991.976
695.87        9976.348
696.29         9985.07
696.71        9954.613
697.14        9907.198
697.56          9958.8
697.98        10080.57
698.41        10141.07
698.83        10091.04
699.25        10037.84
699.68        9981.659
700.10        9912.088
700.52        9839.358
700.94        9761.397
701.37         9687.12
701.79        9662.214
702.21        9658.835
702.64        9645.274
703.06        9684.224
703.48        9680.895
703.90         9654.85
704.33         9614.68
704.75        9565.639
705.17         9514.96
705.59        9467.713
706.01        9420.254
706.44        9389.555
706.86        9402.692
707.28         9459.73
707.70        9552.251
708.12        9642.369
708.55        9665.136
708.97        9609.134
709.39        9500.601
709.81         9375.66
710.23        9285.498
710.66        9247.173
711.08        9250.925
711.50        9270.331
711.92        9259.288
712.34        9207.131
712.76        9130.067
713.19        9052.098
713.61        9009.966
714.03        9010.657
714.45         9037.73
714.87        9067.366
715.29        9063.699
715.71        9017.256
716.13        8941.271
716.56        8850.526
716.98         8768.14
717.40        8703.464
717.82        8650.411
718.24        8608.809
718.66        8578.229
719.08        8556.598
719.50        8544.872
719.92        8536.685
720.34        8520.704
720.76        8493.173
721.19        8454.477
721.61         8409.26
722.03        8366.393
722.45        8328.833
722.87        8295.786
723.29        8262.136
723.71        8219.624
724.13        8167.621
724.55        8109.014
724.97        8055.108
725.39        8023.484
725.81         8015.94
726.23        8025.506
726.65        8035.408
727.07        8018.664
727.49         7970.15
727.91          7900.5
728.33        7824.141
728.75        7764.621
729.17        7729.254
729.59        7709.359
730.01        7703.063
730.43        7706.995
730.85        7716.878
731.27        7734.507
731.69         7746.39
732.10        7730.617
732.52        7684.314
732.94          7612.2
733.36        7534.884
733.78        7491.794
734.20        7491.713
734.62        7514.147
735.04        7532.496
735.46        7555.526
735.88        7490.234
736.30        7411.931
736.72        7318.229
737.13        7242.952
737.55        7189.174
737.97        7164.574
738.39        7156.159
738.81        7077.652
739.23        6961.923
739.65        6983.749
740.06        7108.434
740.48        7126.968
740.90        7024.505
741.32        6912.823
741.74        6821.209
742.16        6749.719
742.57        6709.659
742.99        6701.029
743.41        6706.199
743.83        6696.266
744.25         6663.38
744.67        6615.191
745.08        6564.401
745.50        6531.728
745.92        6521.646
746.34         6525.89
746.75         6532.24
747.17        6522.456
747.59        6493.245
748.01        6452.744
748.42         6412.49
748.84        6390.901
749.26         6392.45
749.68        6407.538
750.09        6430.437
750.51        6456.422
750.93          6478.5
751.35        6489.759
751.76        6486.419
752.18        6470.688
752.60        6443.339
753.01        6401.487
753.43        6356.163
753.85        6326.871
754.27        6319.266
754.68        6332.156
755.10         6355.87
755.52        6368.241
755.93         6372.82
756.35        6364.288
756.77        6358.531
757.18        6374.487
757.60        6416.374
758.02        6482.413
758.43        6544.112
758.85        6556.035
759.26        6518.477
759.68        6425.543
760.10        6369.744
760.51        6357.387
760.93        6402.126
761.34        6450.096
761.76        6479.341
762.18        6429.125
762.59        6310.228
763.01        6180.598
763.42        6080.104
763.84        6034.097
764.26        6054.743
764.67        6136.138
765.09        6238.709
765.50         6308.82
765.92        6316.171
766.33        6229.343
766.75        6075.794
767.16        5972.073
767.58        5904.977
768.00        5845.855
768.41        5794.943
768.83        5797.759
769.24        5840.527
769.66        5895.146
770.07        5938.364
770.49        5913.431
770.90        5838.808
771.32        5823.729
771.73        5859.573
772.15        5837.929
772.56        5757.335
772.97        5683.441
773.39        5627.345
773.80        5580.481
774.22        5542.274
774.63        5502.396
775.05        5458.275
775.46        5419.023
775.88        5384.019
776.29        5344.953
776.70        5304.659
777.12        5273.737
777.53        5252.729
777.95        5236.097
778.36        5222.131
778.77        5208.512
779.19        5194.838
779.60         5184.44
780.02        5172.346
780.43        5153.567
780.84        5130.455
781.26        5092.126
781.67        5051.166
782.09        5064.672
782.50        5114.468
782.91        5102.634
783.33        5033.987
783.74        4998.912
784.15        5001.786
784.57        4990.391
784.98        4965.675
785.39        4954.553
785.81        4959.122
786.22        4972.505
786.63        4994.072
787.04        5022.707
787.46        5055.579
787.87        5090.695
788.28        5125.028
788.70        5152.685
789.11        5170.399
789.52        5181.996
789.93        5183.844
790.35        5160.746
790.76        5118.563
791.17        5084.798
791.58        5061.733
792.00        5028.775
792.41        4987.215
792.82        4961.801
793.23        4957.911
793.65        4948.232
794.06        4945.744
794.47         5011.97
794.88         5109.24
795.29        5138.715
795.71        5048.628
796.12          4927.2
796.53         4794.19
796.94        4682.528
797.35         4607.64
797.76         4561.63
798.18        4533.754
798.59        4504.281
799.00        4466.085
799.41        4426.466
799.82         4384.83
800.23        4338.959
800.64        4289.027
801.06        4232.688
801.47         4174.47
801.88        4124.122
802.29         4083.49
802.70        4050.445
803.11        4019.826
803.52        3982.531
803.93        3937.713
804.34        3889.797
804.75        3843.403
805.17        3808.885
805.58        3788.575
805.99        3768.192
806.40         3747.84
806.81        3750.614
807.22         3763.22
807.63        3734.339
808.04        3667.357
808.45        3613.055
808.86        3574.723
809.27        3522.784
809.68        3460.432
810.09        3406.457
810.50        3363.329
810.91        3328.605
811.32        3296.965
811.73        3258.939
812.14        3212.688
812.55         3160.49
812.96        3112.221
813.37        3083.255
813.78        3075.525
814.19        3083.651
814.60        3091.213
815.01        3072.486
815.42        3022.117
815.83        2947.731
816.24        2868.063
816.65        2813.222
817.05        2790.759
817.46        2792.297
817.87         2800.55
818.28        2787.541
818.69         2746.61
819.10        2686.931
819.51        2624.496
819.92        2584.535
820.33        2572.564
820.74        2578.829
821.14         2588.87
821.55        2580.351
821.96        2547.418
822.37         2498.32
822.78        2442.366
823.19         2393.98
823.60        2358.295
824.00        2330.594
824.41        2308.897
824.82        2290.394
825.23         2273.02
825.64        2257.934
826.04        2242.601
826.45        2222.219
826.86        2195.917
827.27        2164.629
827.68        2130.745
828.08        2098.992
828.49        2070.761
828.90        2044.477
829.31        2020.332
829.72        1998.289
830.12        1978.095
830.53        1960.936
830.94          1943.9
831.35        1921.831
831.75         1894.69
832.16        1864.302
832.57        1837.272
832.97         1824.38
833.38        1827.065
833.79        1840.675
834.20        1857.375
834.60        1864.774
835.01        1858.919
835.42        1843.211
835.82         1820.74
836.23        1796.771
836.64        1774.178
837.04        1752.217
837.45        1732.504
837.86        1717.643
838.26        1708.155
838.67        1703.733
839.08        1703.269
839.48        1704.322
839.89        1705.272
840.29        1705.723
840.70        1703.757
841.11        1696.772
841.51         1684.51
841.92        1667.927
842.33        1649.111
842.73        1631.731
843.14        1617.146
843.54        1604.527
843.95        1594.255
844.35        1586.574
844.76        1580.969
845.17        1577.465
845.57        1573.409
845.98        1564.403
846.38        1549.741
846.79        1530.563
847.19        1510.197
847.60        1494.465
848.00        1484.396
848.41        1477.578
848.81        1471.542
849.22        1462.076
849.62        1448.314
850.03        1433.172
850.43        1416.356
850.84        1397.044
851.24        1376.583
851.65        1355.302
852.05        1339.618
852.46        1339.878
852.86        1356.549
853.27        1384.894
853.67        1414.123
854.07        1427.119
854.48        1419.137
854.88        1394.756
855.29        1360.785
855.69        1328.862
856.10        1303.349
856.50        1281.453
856.90        1261.946
857.31        1242.723
857.71        1223.001
858.12        1204.475
858.52        1187.394
858.92        1171.145
859.33        1155.599
859.73        1140.702
860.13        1125.771
860.54        1110.053
860.94        1093.757
861.34        1077.286
861.75        1062.479
862.15        1052.369
862.55        1047.168
862.96        1045.269
863.36        1044.549
863.76        1041.562
864.17        1035.205
864.57        1026.776
864.97        1015.927
865.38        1002.307
865.78        986.5513
866.18        968.6187
866.58        952.2269
866.99         943.297
867.39        942.7074
867.79        949.0161
868.19        956.3553
868.60        955.0686
869.00        943.1455
869.40        923.3875
869.80        902.2975
870.21        890.5001
870.61        890.4079
871.01        898.4597
871.41        908.7576
871.81        911.8801
872.22        905.4182
872.62        892.7355
873.02        877.9311
873.42        867.4327
873.82        863.2026
874.22        862.8535
874.63         864.779
875.03        866.6037
875.43        867.2906
875.83        867.9745
876.23        868.1239
876.63        866.5416
877.03        863.4258
877.44        859.1136
877.84        855.3503
878.24        855.2328
878.64        859.1655
879.04        865.6509
879.44        873.0792
879.84        878.8997
880.24        881.8852
880.64        882.5842
881.04        880.1824
881.44        873.4492
881.84        862.9479
882.24        849.7715
882.65        836.5695
883.05        827.5437
883.45        823.9385
883.85        824.6841
884.25        828.7838
884.65        834.3033
885.05        840.0089
885.45        846.0186
885.85        850.7523
886.25        851.8525
886.65        848.9436
887.05        842.4937
887.45        834.5496
887.85        828.6837
888.25        826.0296
888.65         825.995
889.04        827.4359
889.44        828.2163
889.84        827.8494
890.24        827.2005
890.64        827.1859
891.04        829.1849
891.44        833.3146
891.84         838.568
892.24        844.1014
892.64        848.7438
893.04        852.0376
893.44        854.4911
893.83        855.6744
894.23        854.9482
894.63        852.5303
895.03        848.5735
895.43        845.0231
895.83        845.0462
896.23        849.0241
896.63        855.8803
897.02        862.8615
897.42        865.4103
897.82        862.6057
898.22        856.1974
898.62        848.4108
899.01        842.8747
899.41        840.8074
899.81         840.947
900.21        843.1704
900.61        847.2457
901.00        852.5856
901.40        859.3645
901.80        865.6048
902.20        867.9968
902.59        866.1039
902.99        860.8727
903.39        855.1064
903.79        853.5336
904.18         857.182
904.58        864.3843
904.98        872.7913
905.38        878.6177
905.77        880.5278
906.17        879.5446
906.57         876.309
906.96        871.8741
907.36        866.8931
907.76        861.2142
908.15        855.3107
908.55        849.9822
908.95        845.6721
909.34        842.6767
909.74        841.1458
910.14        841.0204
910.53        842.1215
910.93         844.173
911.33        846.8397
911.72        849.6805
912.12        852.2598
912.52        854.3214
912.91        855.3018
913.31        854.4591
913.70        851.8214
914.10        847.8782
914.49         843.342
914.89        839.3625
915.29        836.4194
915.68        834.2458
916.08        833.1694
916.47        833.5916
916.87        835.2805
917.26        837.9929
917.66        840.3325
918.05        840.0699
918.45        836.7632
918.84        831.0283
919.24        824.3522
919.64        819.2465
920.03         816.414
920.42        815.1563
920.82        814.5562
921.21        813.0741
921.61        810.2516
922.00        806.6678
922.40        802.7194
922.79        798.9828
923.19        795.6542
923.58        792.4229
923.98        789.3005
924.37        786.3596
924.77        783.6219
925.16        781.2712
925.55        778.9907
925.95        776.2199
926.34        772.8939
926.74        769.0513
927.13        765.5125
927.52        763.6233
927.92        763.4954
928.31        764.6188
928.70        765.5214
929.10        763.8804
929.49         759.228
929.89        752.3364
930.28        744.7929
930.67         739.123
931.07        736.0968
931.46        735.1274
931.85         735.098
932.24        734.1785
932.64        731.8262
933.03        728.4768
933.42        725.0926
933.82        723.2128
934.21        722.9827
934.60        723.6384
934.99         723.718
935.39        720.9945
935.78        715.1113
936.17        707.0831
936.56        698.3365
936.96        691.1076
937.35        686.1556
937.74        682.8085
938.13        680.8214
938.53        679.7433
938.92        679.1196
939.31        679.0184
939.70        678.5352
940.09        676.1617
940.49        671.7059
940.88        665.6531
941.27        659.0942
941.66        653.9138
942.05        650.6559
942.44        648.7121
942.84         647.692
943.23         646.937
943.62        645.9572
944.01        644.7914
944.40        642.8336
944.79        639.1009
945.18        633.5258
945.57        626.5439
945.97        618.8774
946.36        611.7475
946.75        605.6999
947.14        600.5557
947.53        596.5816
947.92        594.0891
948.31        592.8912
948.70        592.7559
949.09          592.77
949.48        591.4319
949.87        588.3643
950.26        583.9616
950.65        578.7351
951.04        573.6638
951.43        569.0961
951.82        564.6578
952.21        560.6185
952.60        557.3773
952.99        554.8986
953.38        553.2302
953.77        551.3318
954.16        547.4842
954.55        541.4156
954.94        533.5457
955.33         525.561
955.72        520.2021
956.11          518.05
956.50         518.383
956.89        519.2324
957.28        517.3651
957.66        512.1626
958.05        504.7899
958.44        497.3498
958.83         493.191
959.22        493.0558
959.61        495.6023
960.00         499.146
960.39        501.0971
960.78        500.4776
961.16        497.9422
961.55        493.8701
961.94        488.8784
962.33        483.4035
962.72        477.3979
963.11        471.1382
963.49        465.1386
963.88        459.6646
964.27        454.7762
964.66        450.8248
965.04        448.1901
965.43        446.7461
965.82        446.2395
966.21        445.7099
966.60        443.6308
966.98        439.7015
967.37        434.4165
967.76         428.638
968.15         423.833
968.53        420.4568
968.92        418.0234
969.31        416.3035
969.69        414.9273
970.08        413.5629
970.47          412.23
970.86        410.4345
971.24        407.3507
971.63        402.8935
972.02        397.3951
972.40        391.3834
972.79        385.7745
973.17        380.9436
973.56        376.6949
973.95         373.246
974.33        370.8514
974.72        369.4193
975.11        368.9029
975.49        368.4817
975.88        366.8032
976.26        363.5974
976.65        359.1658
977.04        354.4588
977.42        351.1214
977.81        349.4512
978.19        348.7943
978.58         348.255
978.96        346.3891
979.35        342.8318
979.74        338.2224
980.12        332.8986
980.51        327.3759
980.89        321.9998
981.28        316.5863
981.66        311.7975
982.05        308.7008
982.43        307.3432
982.82        307.4178
983.20        307.6168
983.59        305.7626
983.97        301.4385
984.35        295.3652
984.74        288.8555
985.12        284.0859
985.51         281.637
985.89        280.7463
986.28        280.7228
986.66        280.4433
987.04        279.4415
987.43        278.0989
987.81        276.1798
988.20        273.3025
988.58        269.4822
988.96        264.6677
989.35        259.6571
989.73         255.824
990.12        253.4401
990.50        252.2435
990.88        251.1602
991.27        248.3581
991.65        243.5621
992.03        237.4875
992.42        231.4375
992.80        227.5068
993.18          226.12
993.56        226.3744
993.95        227.3197
994.33        227.4588
994.71        226.2268
995.10        224.1713
995.48         221.136
995.86        216.8424
996.24        211.5996
996.63        205.6266
997.01        200.1481
997.39        197.1912
997.77        197.0455
998.15        198.8919
998.54        201.5005
998.92        202.8295
999.30         202.121
999.68        199.9298
1000.06        196.2034
1000.45        190.9288
1000.83        184.5276
1001.21        177.2101
1001.59        170.2121
1001.97        165.5469
1002.35        163.6221
1002.73        163.8317
1003.12         165.175
1003.50        165.8799
1003.88         165.287
1004.26        163.8603
1004.64        161.4731
1005.02        158.0141
1005.40        153.6861
1005.78        148.4683
1006.16        143.3638
1006.54        140.0512
1006.92        138.8668
1007.30        139.4377
1007.69         140.555
1008.07        140.1684
1008.45        137.7557
1008.83        133.8589
1009.21        129.5382
1009.59        126.5391
1009.97        125.2735
1010.35        125.1394
1010.73        125.1917
1011.11        123.9474
1011.49         121.092
1011.86         117.251
1012.24        113.2194
1012.62        110.2162
1013.00         108.574
1013.38        107.7853
1013.76        107.4872
1014.14         107.147
1014.52        106.4539
1014.90        105.5368
1015.28        104.1227
1015.66        101.7475
1016.04        98.46314
1016.41        94.53387
1016.79        90.51579
1017.17        87.31977
1017.55        85.26143
1017.93         84.1301
1018.31        83.84734
1018.69        84.22919
1019.06        85.02381
1019.44        86.13837
1019.82        87.12526
1020.20        87.26465
1020.58        86.44122
1020.95        84.93523
1021.33        83.02303
1021.71        81.23447
1022.09        79.81066
1022.46        78.54968
1022.84         77.9048
1023.22        78.55196
1023.60        80.46185
1023.97        83.45929
1024.35        86.29794
1024.73        86.96255
