SpectraSmart Spectrum 2.9.0.0
--------- Device Information -----------
Spectrum Name :  光譜_0
Saving Time :  2024/04/27 22:07:04
Spectro-Module Model Name : SE2030-DUVN
Spectro-Module Serial Number : OS361AC55029948
Wavelength Start : 200
Wavelength End : 1025
Wavelength Unit : Wavelength(nm)
Spectrum Unit : Intensity(Counts)
-----------Spectrum Setting ------------
Integration Time : 1ms
Average : 10
Boxcar : 0
Background removal :  enabled
linearity correction :  enabled
SC :  disabled
Intensity correction :  disabled
DWT denoise :  enabled
savitzky-golay :  disabled
FFT :  disabled
Running average :  disabled
Kalman :  disabled
High pass :  disabled
---------------BEGIN--------------------
Wavelength(nm)          Intensity(Counts)
200.29       -17.80372
200.75       -19.31157
201.21       -20.89677
201.67       -21.95389
202.13       -21.48749
202.58       -19.43436
203.04       -16.08944
203.50       -12.60122
203.96       -10.84552
204.42        -11.3326
204.88       -13.65349
205.34       -16.74141
205.80       -18.86023
206.26       -19.40633
206.72       -18.55913
207.18       -17.26703
207.64       -17.09522
208.10       -18.26995
208.55       -20.33387
209.01       -21.55362
209.47        -19.2014
209.93       -13.06974
210.39       -4.415673
210.85        3.999472
211.31        7.868621
211.77        6.211413
212.23       0.4789469
212.69       -7.068901
213.14       -12.74314
213.60        -15.2922
214.06       -15.70589
214.52       -14.64582
214.98       -13.26557
215.44       -12.06052
215.90       -10.47998
216.36       -8.815459
216.81       -7.708908
217.27       -7.237818
217.73       -7.431314
218.19       -7.693601
218.65       -6.877128
219.11       -4.782171
219.57       -1.801221
220.02        1.398195
220.48        3.730289
220.94        4.900534
221.40        5.287678
221.86        5.317124
222.32        5.634564
222.77        6.558048
223.23        8.034569
223.69        10.02596
224.15        12.45916
224.61        15.31201
225.06        18.59262
225.52        22.50764
225.98        27.33839
226.44        33.00037
226.90         39.2896
227.36        45.51246
227.81        50.60646
228.27        54.39938
228.73        57.25527
229.19        59.95718
229.65        63.79452
230.10        69.08403
230.56        75.35942
231.02         82.1056
231.48        88.48892
231.93        94.11763
232.39        99.11662
232.85         103.307
233.31        106.4646
233.77        108.5009
234.22        109.2394
234.68        108.8903
235.14         107.951
235.60        106.4407
236.05        104.1631
236.51        100.7357
236.97        95.50011
237.43        88.47277
237.88        80.22132
238.34        71.19559
238.80        62.01523
239.26         53.1257
239.71        44.56424
240.17        36.97822
240.63        31.26925
241.08        27.51486
241.54        25.48671
242.00        24.10259
242.46         21.5601
242.91        17.44424
243.37        12.23387
243.83         6.94588
244.28        3.296762
244.74        1.728546
245.20        1.670817
245.66        2.397434
246.11        2.757354
246.57        2.390994
247.03        1.681314
247.48       0.9602446
247.94       0.7324198
248.40        1.147496
248.85        1.946511
249.31        3.000277
249.77        4.175232
250.22        5.405144
250.68        6.792824
251.14        8.341832
251.59        9.997075
252.05        11.86852
252.51        14.14493
252.96        17.02178
253.42        20.78189
253.88        25.59542
254.33        31.47334
254.79        38.68792
255.25        47.58984
255.70        58.25454
256.16        70.73877
256.62         84.6097
257.07         99.0688
257.53        114.1419
257.99         130.303
258.44         148.374
258.90        169.6401
259.35         194.353
259.81        221.8961
260.27        251.7339
260.72        283.0311
261.18        315.1826
261.63        348.0782
262.09        380.9063
262.55        412.5335
263.00        442.6189
263.46        471.0853
263.91        498.5905
264.37        526.4924
264.83        554.8166
265.28        582.6818
265.74        609.0189
266.19        632.2532
266.65          651.78
267.11        667.9973
267.56        680.9821
268.02        690.9243
268.47        698.2798
268.93        703.3934
269.38         707.316
269.84        711.5862
270.30        716.9423
270.75        723.6766
271.21        731.6495
271.66        740.2164
272.12        749.4893
272.57        760.0942
273.03        772.7443
273.48        788.4019
273.94        807.2746
274.39        828.9068
274.85        852.8415
275.31        878.4076
275.76        905.1738
276.22        933.1175
276.67        961.9207
277.13        991.1212
277.58        1020.726
278.04        1050.932
278.49        1081.996
278.95        1114.473
279.40        1148.385
279.86        1183.112
280.31         1218.88
280.77        1256.132
281.22        1294.449
281.68         1333.44
282.13        1371.035
282.59        1404.014
283.04        1432.028
283.50         1456.35
283.95        1479.833
284.41        1507.077
284.86        1539.358
285.32        1575.389
285.77        1613.441
286.22        1650.565
286.68         1685.65
287.13        1719.472
287.59         1752.18
288.04        1784.032
288.50         1815.14
288.95        1845.012
289.41        1873.856
289.86        1902.312
290.32        1930.366
290.77        1957.713
291.22        1983.748
291.68        2007.527
292.13        2028.664
292.59        2047.239
293.04        2063.553
293.50        2078.106
293.95        2091.268
294.40        2103.393
294.86         2114.31
295.31        2123.648
295.77        2131.783
296.22        2139.259
296.68        2147.885
297.13        2160.314
297.58        2177.047
298.04        2197.445
298.49        2219.406
298.95        2239.359
299.40        2256.722
299.85        2273.042
300.31        2290.471
300.76        2312.384
301.21        2339.908
301.67        2372.011
302.12        2408.086
302.58        2447.155
303.03        2488.362
303.48        2531.544
303.94        2575.616
304.39        2618.896
304.84        2660.776
305.30        2701.241
305.75        2740.495
306.20        2779.298
306.66        2817.801
307.11        2855.456
307.57        2892.482
308.02        2929.306
308.47        2965.733
308.93        3001.532
309.38        3035.297
309.83        3064.851
310.29        3089.665
310.74        3110.106
311.19        3127.916
311.65        3145.961
312.10        3164.996
312.55        3184.543
313.00        3202.524
313.46        3215.533
313.91         3223.05
314.36         3226.25
314.82        3228.313
315.27        3234.208
315.72        3244.862
316.18        3258.598
316.63        3271.662
317.08        3278.073
317.53        3276.399
317.99        3268.508
318.44        3257.623
318.89            3249
319.35        3243.952
319.80         3240.55
320.25        3236.591
320.70        3228.631
321.16        3215.625
321.61        3198.986
322.06        3179.449
322.51        3158.019
322.97        3135.372
323.42        3111.181
323.87        3086.253
324.32        3062.038
324.78        3038.567
325.23        3015.282
325.68        2990.908
326.13         2963.24
326.59        2931.735
327.04        2897.266
327.49        2860.268
327.94         2821.51
328.39        2781.675
328.85        2740.725
329.30        2700.133
329.75        2662.176
330.20        2627.187
330.66        2594.675
331.11         2562.57
331.56        2527.337
332.01        2488.313
332.46        2446.832
332.92        2405.055
333.37        2366.392
333.82        2332.088
334.27        2301.491
334.72        2273.775
335.17        2247.531
335.63         2222.23
336.08         2198.22
336.53        2176.131
336.98         2156.82
337.43        2140.324
337.88        2126.266
338.34        2113.151
338.79        2098.746
339.24        2082.823
339.69        2066.208
340.14        2051.265
340.59        2041.799
341.05        2038.505
341.50        2039.979
341.95        2043.885
342.40        2046.402
342.85        2046.481
343.30        2045.494
343.75          2044.4
344.20        2044.779
344.66        2047.361
345.11         2051.42
345.56        2057.721
346.01        2067.649
346.46        2080.928
346.91        2096.799
347.36         2112.86
347.81        2125.287
348.26        2133.043
348.72        2136.999
349.17        2138.944
349.62        2141.943
350.07        2147.122
350.52         2153.96
350.97        2161.653
351.42        2168.845
351.87        2175.233
352.32         2181.34
352.77        2188.374
353.22        2198.044
353.67        2210.516
354.13        2225.124
354.58        2239.745
355.03        2251.082
355.48         2258.56
355.93        2263.271
356.38        2267.725
356.83        2276.016
357.28        2289.002
357.73        2305.111
358.18        2322.191
358.63        2336.839
359.08        2347.888
359.53        2356.325
359.98        2362.729
360.43        2368.047
360.88        2372.876
361.33        2376.985
361.78        2380.954
362.23        2385.797
362.68        2391.753
363.13        2398.741
363.58        2406.283
364.03        2413.381
364.48        2419.687
364.93        2425.394
365.38        2430.439
365.83        2434.834
366.28        2438.493
366.73        2441.018
367.18        2442.565
367.63        2443.596
368.08        2443.944
368.53        2443.254
368.98         2440.64
369.43        2434.763
369.88        2425.486
370.33        2413.569
370.78        2400.224
371.23        2387.181
371.68        2375.581
372.13         2365.99
372.58        2358.531
373.03        2353.116
373.48        2349.856
373.93        2348.706
374.38        2351.167
374.83        2359.281
375.28        2373.147
375.72        2392.418
376.17        2413.035
376.62        2428.633
377.07        2438.099
377.52         2442.73
377.97        2448.696
378.42        2466.265
378.87        2496.707
379.32        2535.763
379.77        2574.913
380.22        2600.724
380.67        2609.943
381.11        2607.051
381.56        2598.321
382.01        2594.083
382.46        2597.768
382.91        2606.348
383.36        2618.758
383.81         2632.77
384.26        2648.066
384.71        2667.861
385.15         2690.04
385.60        2710.507
386.05        2729.129
386.50        2745.589
386.95        2768.069
387.40        2810.175
387.85        2872.801
388.29        2951.195
388.74        3030.355
389.19        3085.542
389.64         3113.41
390.09        3124.671
390.54        3134.763
390.98        3168.902
391.43        3232.515
391.88        3313.291
392.33        3407.702
392.78        3504.704
393.23        3594.712
393.67        3693.791
394.12        3785.032
394.57        3782.925
395.02        3755.847
395.47        3724.208
395.91        3721.582
396.36        3727.106
396.81        3747.809
397.26        3802.119
397.71        3887.852
398.15        3982.977
398.60        4077.238
399.05        4185.804
399.50        4282.395
399.95        4297.601
400.39        4241.456
400.84        4186.907
401.29        4151.475
401.74        4123.589
402.18        4103.419
402.63        4079.467
403.08        4055.318
403.53        4056.623
403.97        4080.606
404.42        4103.188
404.87        4122.284
405.32        4142.525
405.76         4161.19
406.21        4186.491
406.66        4202.996
407.11        4168.601
407.55        4095.692
408.00        4031.647
408.45        3997.149
408.90        4010.523
409.34        4058.706
409.79        4083.772
410.24        4074.485
410.68        4068.198
411.13        4061.885
411.58        4020.844
412.03        3963.396
412.47        3941.399
412.92        3961.863
413.37        4007.456
413.81         4057.15
414.26        4078.405
414.71        4062.476
415.15        4020.465
415.60        3968.573
416.05         3932.06
416.49         3918.59
416.94         3921.09
417.39        3930.752
417.83        3932.287
418.28        3924.066
418.73        3916.772
419.17          3916.1
419.62        3929.457
420.07        3957.494
420.51        3991.936
420.96         4039.07
421.41        4102.827
421.85        4178.099
422.30        4282.325
422.74        4381.375
423.19        4371.712
423.64        4267.953
424.08        4197.105
424.53        4179.565
424.98        4141.633
425.42        4088.443
425.87         4100.56
426.31        4153.505
426.76        4117.459
427.21        4016.304
427.65         4006.28
428.10        4083.521
428.54        4143.001
428.99        4179.909
429.44        4205.314
429.88        4240.375
430.33        4379.313
430.77        4573.178
431.22        4627.258
431.66        4526.155
432.11        4403.731
432.56        4289.632
433.00        4156.653
433.45        4068.341
433.89        4098.688
434.34        4184.583
434.78        4463.834
435.23        4364.954
435.67        4287.804
436.12        4266.372
436.57        4259.761
437.01        4305.106
437.46        4326.632
437.90        4305.229
438.35        4266.347
438.79        4344.181
439.24        4362.043
439.68        4355.875
440.13        4344.417
440.57        4353.205
441.02         4380.51
441.46        4439.303
441.91         4620.79
442.35        4862.006
442.80        4906.942
443.24        4783.769
443.69        4786.672
444.13        4918.413
444.58        4962.921
445.02        4920.416
445.47        4919.974
445.91        4966.225
446.36        5001.929
446.80        5024.905
447.24        5058.264
447.69        5096.535
448.13        5115.876
448.58        5121.378
449.02        5142.508
449.47        5179.277
449.91        5208.084
450.36        5227.964
450.80        5253.655
451.25        5283.648
451.69        5305.825
452.13        5321.136
452.58        5338.736
453.02        5357.009
453.47        5372.019
453.91         5384.22
454.36        5388.836
454.80        5398.735
455.24        5440.792
455.69        5508.377
456.13        5587.219
456.58        5663.626
457.02        5685.253
457.46        5684.255
457.91        5763.568
458.35        5893.902
458.79        5996.153
459.24         6055.41
459.68        6120.175
460.13        6185.082
460.57        6242.798
461.01         6267.54
461.46        6260.777
461.90        6259.884
462.34        6253.382
462.79        6149.197
463.23        6123.959
463.68        6158.009
464.12         6240.94
464.56        6361.855
465.01        6495.297
465.45        6625.938
465.89        6748.486
466.34        6828.315
466.78        6836.872
467.22        6799.577
467.67        6610.341
468.11        6596.794
468.55        6574.257
468.99        6610.601
469.44        6600.677
469.88        6540.719
470.32        6494.654
470.77        6473.272
471.21        6469.672
471.65        6486.385
472.10        6523.644
472.54        6579.177
472.98        6642.512
473.42        6706.513
473.87        6790.584
474.31        6882.706
474.75        6910.674
475.20        6895.252
475.64        6966.827
476.08        7107.192
476.52        7154.951
476.97         7095.92
477.41        7088.561
477.85        7085.437
478.29        7027.262
478.74        7105.069
479.18         7224.03
479.62        7190.679
480.06        7249.237
480.50        7313.869
480.95        7401.963
481.39        7506.531
481.83        7442.466
482.27        7442.519
482.72        7503.391
483.16        7460.998
483.60        7457.258
484.04        7439.186
484.48        7476.913
484.93         7544.99
485.37        7628.903
485.81        7830.571
486.25         8135.06
486.69        11563.01
487.14        12261.75
487.58        8740.475
488.02        7929.902
488.46        7840.178
488.90        7557.252
489.34        7406.932
489.79        7410.943
490.23        7417.125
490.67        7454.798
491.11        7440.399
491.55        7423.066
491.99        7399.607
492.43        7356.828
492.88        7310.412
493.32        7300.355
493.76        7320.445
494.20        7315.016
494.64        7275.534
495.08        7252.109
495.52        7250.235
495.96         7194.37
496.41        7112.482
496.85        7179.429
497.29         7342.17
497.73        7312.921
498.17        7128.159
498.61        7039.629
499.05        7072.127
499.49         7099.46
499.93        7100.331
500.37        7097.338
500.82        7094.207
501.26        7076.991
501.70        7042.297
502.14        7137.276
502.58        7096.283
503.02        7092.034
503.46        7075.953
503.90        7045.052
504.34        7012.292
504.78        6976.724
505.22        6945.746
505.66        6930.806
506.10        6928.629
506.54        6914.723
506.98        6885.094
507.42        6881.412
507.86         6849.61
508.30        6833.303
508.74        6816.867
509.18        6801.453
509.62        6787.542
510.06        6777.511
510.50        6771.753
510.94        6768.591
511.38        6766.172
511.82        6761.438
512.26        6753.618
512.70        6743.615
513.14        6731.352
513.58        6719.529
514.02        6709.313
514.46        6695.368
514.90        6678.899
515.34        6686.138
515.78        6678.779
516.22        6688.013
516.66        6697.538
517.10        6700.543
517.54        6695.431
517.98        6684.339
518.42        6675.217
518.86        6679.928
519.30        6700.443
519.74        6732.513
520.18        6765.787
520.62        6783.824
521.06        6783.103
521.50        6769.196
521.93         6752.08
522.37        6747.761
522.81        6760.702
523.25        6785.998
523.69         6817.33
524.13        6844.456
524.57        6864.278
525.01        6880.584
525.45         6896.27
525.89        6915.489
526.32        6939.794
526.76        6967.206
527.20        6996.958
527.64        7028.676
528.08        7061.292
528.52        7094.013
528.96        7126.488
529.40        7157.884
529.83        7188.072
530.27        7218.493
530.71         7246.88
531.15        7269.444
531.59        7287.333
532.03        7302.817
532.46        7324.255
532.90        7365.048
533.34        7426.257
533.78        7501.122
534.22        7579.437
534.66        7644.855
535.09          7692.2
535.53        7726.927
535.97        7750.075
536.41        7764.135
536.85        7772.937
537.28        7776.064
537.72        7784.571
538.16        7816.994
538.60        7875.395
539.04        7952.963
539.47        8035.035
539.91         8098.48
540.35        8137.528
540.79        8158.865
541.22        8173.628
541.66        8201.311
542.10         8246.97
542.54        8302.377
542.97        8363.865
543.41        8425.938
543.85        8485.302
544.29        8545.439
544.72        8599.579
545.16        8635.891
545.60        8654.826
546.04        8660.724
546.47        8669.068
546.91        8706.431
547.35        8777.775
547.79        8868.881
548.22        8962.761
548.66        9044.704
549.10        9099.153
549.53        9102.471
549.97        9069.149
550.41        9054.169
550.84        9067.643
551.28        9082.716
551.72        9105.181
552.15        9153.365
552.59        9227.567
553.03        9325.851
553.46        9428.514
553.90        9502.986
554.34        9541.792
554.77        9548.908
555.21        9552.587
555.65        9597.792
556.08        9699.801
556.52        9826.591
556.96        9949.879
557.39        10011.43
557.83        10014.58
558.27        10021.19
558.70        10051.68
559.14        10101.71
559.57        10179.31
560.01        10285.27
560.45        10414.18
560.88        10563.05
561.32        10708.86
561.75        10822.45
562.19        10898.57
562.63        10928.63
563.06        10941.52
563.50        11023.34
563.93        11165.81
564.37        11269.45
564.80        11328.75
565.24        11406.63
565.68        11501.84
566.11        11584.37
566.55        11657.58
566.98        11727.62
567.42        11809.36
567.85         11943.3
568.29        12122.85
568.72        12306.03
569.16        12511.73
569.60        12733.98
570.03        12939.09
570.47        13300.42
570.90        13645.87
571.34        13585.53
571.77        13832.25
572.21        14081.31
572.64        14217.46
573.08        14202.54
573.51        13784.97
573.95        14054.59
574.38        14848.71
574.82        15030.31
575.25        15205.59
575.69        15057.38
576.12        14834.65
576.56        14374.97
576.99        14341.47
577.42        14878.96
577.86        15172.32
578.29        15541.94
578.73        16651.86
579.16         16218.2
579.60        14902.42
580.03        14368.49
580.47        14700.63
580.90        14920.45
581.33        15007.49
581.77        15074.92
582.20        16925.07
582.64        17895.83
583.07        16852.66
583.51        15705.53
583.94        14453.51
584.37        13772.89
584.81        13831.22
585.24        14352.81
585.68        14955.35
586.11        15440.41
586.54        15266.63
586.98        14637.94
587.41        13785.53
587.85        14051.22
588.28        14633.64
588.71        14432.54
589.15        13740.08
589.58        13609.83
590.01         13055.3
590.45        12887.28
590.88         13056.6
591.31        12979.76
591.75        12720.16
592.18        12592.84
592.61        12774.65
593.05        12843.63
593.48        13612.27
593.91         14509.5
594.35        14134.09
594.78        13739.27
595.21        13305.39
595.65        13419.37
596.08        14017.25
596.51        13829.33
596.94        13405.78
597.38        13179.52
597.81        13284.54
598.24        13594.59
598.68        13617.57
599.11        13593.41
599.54        14134.19
599.97        14824.32
600.41         14447.2
600.84        14530.97
601.27        14648.68
601.70        14574.95
602.14        14478.42
602.57        14215.06
603.00        14090.98
603.43         14204.7
603.87        14417.41
604.30        14590.71
604.73        14478.96
605.16        14026.17
605.60        13740.06
606.03        13721.89
606.46        13993.17
606.89        14166.58
607.32        13828.81
607.76        13594.73
608.19        13751.46
608.62        13686.28
609.05        13491.56
609.48        13330.71
609.92        13307.75
610.35        13061.64
610.78        13309.52
611.21         13551.2
611.64        13170.22
612.07        13048.16
612.50        12975.94
612.94        12871.73
613.37         12726.4
613.80        12718.65
614.23        12625.38
614.66        12589.67
615.09        12556.69
615.52        12538.33
615.96        12496.56
616.39        12530.36
616.82        12418.46
617.25        12202.39
617.68        12068.34
618.11        12017.69
618.54        12063.96
618.97        11945.09
619.40        11710.96
619.84        11529.42
620.27        11539.89
620.70        11594.55
621.13        11689.75
621.56        11440.58
621.99        11191.99
622.42        11185.86
622.85         11385.8
623.28         11344.5
623.71         11272.3
624.14        11366.16
624.57        11303.05
625.00        11213.99
625.43        11248.36
625.86        11148.55
626.29        10991.24
626.72        10967.66
627.15        10858.65
627.58        10801.74
628.01        10705.53
628.44        10709.91
628.87        10660.26
629.30        10522.33
629.73        10533.36
630.16        10591.73
630.59        10490.32
631.02        10447.14
631.45        10388.44
631.88        10329.16
632.31        10265.19
632.74        10247.66
633.17        10174.37
633.60        10127.29
634.03        10077.53
634.46        10027.52
634.89        9983.317
635.32        9957.937
635.75        9953.297
636.18        9958.611
636.61        9962.924
637.04        9960.547
637.47        9941.215
637.89        9883.277
638.32        9802.214
638.75        9747.031
639.18        9724.724
639.61        9713.125
640.04         9702.29
640.47        9680.863
640.90        9644.305
641.33        9602.089
641.76        9560.844
642.18        9507.547
642.61        9481.479
643.04        9449.609
643.47        9422.834
643.90        9400.626
644.33        9382.201
644.76        9368.202
645.18        9353.101
645.61        9327.994
646.04        9292.659
646.47        9251.363
646.90        9212.758
647.33        9190.938
647.75         9188.11
648.18        9197.189
648.61        9212.313
649.04        9222.916
649.47        9222.691
649.89        9218.363
650.32        9203.922
650.75        9156.634
651.18        9086.898
651.61        9035.692
652.03        9011.864
652.46        8995.091
652.89         8992.67
653.32        9009.651
653.74        9039.704
654.17        9040.322
654.60         8919.59
655.03        8770.803
655.46        8869.346
655.88         8969.39
656.31        10043.86
656.74        25348.62
657.16        34810.47
657.59        19357.38
658.02        10541.13
658.45        9008.379
658.87        8819.703
659.30        8849.617
659.73        8742.342
660.15        8588.812
660.58        8606.573
661.01        8595.155
661.44        8564.914
661.86        8565.936
662.29         8562.69
662.72        8524.427
663.14        8460.633
663.57        8437.032
664.00        8454.925
664.42        8469.504
664.85        8472.076
665.27        8468.104
665.70        8456.462
666.13        8443.958
666.55        8429.948
666.98        8402.904
667.41        8367.084
667.83        8337.847
668.26        8318.036
668.69        8304.606
669.11        8294.771
669.54        8280.952
669.96        8262.127
670.39        8250.247
670.82        8250.136
671.24        8247.675
671.67        8253.871
672.09         8310.08
672.52        8394.402
672.94        8437.507
673.37        8424.773
673.80         8371.17
674.22         8297.71
674.65        8245.136
675.07         8224.15
675.50        8217.816
675.92        8216.116
676.35        8208.501
676.77         8191.34
677.20        8169.532
677.62        8151.286
678.05        8148.989
678.47         8164.34
678.90        8189.956
679.32        8217.069
679.75        8234.413
680.17        8236.601
680.60        8224.735
681.02        8204.545
681.45        8181.185
681.87        8157.388
682.30        8147.494
682.72        8143.921
683.15        8102.452
683.57        8038.151
684.00        8026.705
684.42         8068.08
684.85        8097.905
685.27        8111.428
685.70        8145.527
686.12        8188.201
686.54        8201.789
686.97        8183.039
687.39        8142.956
687.82         8089.21
688.24        8054.997
688.66        8007.254
689.09        7977.382
689.51         7953.48
689.94        7935.495
690.36        7922.612
690.78        7915.445
691.21        7915.744
691.63        7924.604
692.06        7940.158
692.48        7959.231
692.90        7973.723
693.33        7972.044
693.75        7950.786
694.17        7913.748
694.60        7871.078
695.02        7830.063
695.44        7794.328
695.87        7790.306
696.29        7809.489
696.71        7771.845
697.14        7704.449
697.56        7756.011
697.98        7897.026
698.41        7948.488
698.83        7895.928
699.25        7835.545
699.68        7780.666
700.10        7713.535
700.52        7643.467
700.94        7576.737
701.37         7523.43
701.79        7499.438
702.21        7505.105
702.64        7533.389
703.06        7567.255
703.48        7578.167
703.90         7559.19
704.33        7520.714
704.75        7470.422
705.17        7421.062
705.59        7379.379
706.01        7342.382
706.44        7323.182
706.86        7329.685
707.28        7380.719
707.70        7455.552
708.12        7529.608
708.55        7547.503
708.97        7501.125
709.39         7416.39
709.81        7320.399
710.23        7247.146
710.66        7210.104
711.08        7205.932
711.50        7215.266
711.92        7202.509
712.34        7159.887
712.76        7099.517
713.19         7041.02
713.61        7014.364
714.03        7024.386
714.45        7057.539
714.87        7090.833
715.29        7089.412
715.71        7044.893
716.13        6969.824
716.56        6881.685
716.98        6808.259
717.40        6759.226
717.82        6726.888
718.24        6706.378
718.66        6689.576
719.08        6672.521
719.50        6658.457
719.92        6644.867
720.34        6626.696
720.76        6602.533
721.19        6571.661
721.61        6537.116
722.03        6505.044
722.45        6477.613
722.87        6454.757
723.29         6433.25
723.71        6407.648
724.13        6377.084
724.55        6342.518
724.97        6311.057
725.39        6293.978
725.81        6291.932
726.23        6300.396
726.65        6306.487
727.07        6289.538
727.49        6246.562
727.91        6186.407
728.33         6122.79
728.75        6077.849
729.17        6057.792
729.59        6054.486
730.01        6063.942
730.43        6079.002
730.85        6095.042
731.27        6115.093
731.69        6128.127
732.10        6117.058
732.52        6080.733
732.94        6018.667
733.36        5950.787
733.78        5919.549
734.20        5933.939
734.62        5941.698
735.04        6013.461
735.46        5995.712
735.88        5921.448
736.30        5871.076
736.72        5853.504
737.13        5812.696
737.55        5747.178
737.97        5713.696
738.39        5706.677
738.81        5638.555
739.23        5539.449
739.65        5564.437
740.06        5679.924
740.48        5699.892
740.90        5610.671
741.32        5505.438
741.74        5421.474
742.16        5357.101
742.57        5325.876
742.99        5324.918
743.41        5337.764
743.83        5337.477
744.25        5316.302
744.67        5282.209
745.08        5243.967
745.50        5216.016
745.92        5201.899
746.34         5194.82
746.75        5190.765
747.17        5183.368
747.59        5171.662
748.01        5164.082
748.42        5160.046
748.84        5151.729
749.26        5144.763
749.68        5147.924
750.09        5163.652
750.51        5201.801
750.93        5248.421
751.35        5258.426
751.76        5232.491
752.18        5214.565
752.60        5206.858
753.01        5181.543
753.43        5144.367
753.85        5118.584
754.27        5108.961
754.68        5112.696
755.10        5124.235
755.52        5133.926
755.93        5137.449
756.35        5134.648
756.77        5137.087
757.18        5155.975
757.60        5192.554
758.02        5262.834
758.43        5334.309
758.85        5323.624
759.26         5248.47
759.68        5190.951
760.10         5164.67
760.51         5234.36
760.93        5221.753
761.34        5229.165
761.76        5221.377
762.18        5160.168
762.59        5063.882
763.01        4960.223
763.42        4880.067
763.84        4851.537
764.26        4880.823
764.67        4950.863
765.09        5030.988
765.50        5089.487
765.92        5101.019
766.33        5031.855
766.75        4904.284
767.16        4806.978
767.58        4756.714
768.00        4698.039
768.41        4644.348
768.83        4657.076
769.24        4718.061
769.66        4768.373
770.07        4788.718
770.49        4757.664
770.90        4694.496
771.32        4684.601
771.73        4718.615
772.15        4700.713
772.56        4629.192
772.97        4562.733
773.39        4511.807
773.80        4471.828
774.22        4440.477
774.63        4400.375
775.05        4350.928
775.46        4310.565
775.88        4279.683
776.29        4245.474
776.70        4209.785
777.12        4183.271
777.53        4166.204
777.95        4153.443
778.36        4143.508
778.77        4134.743
779.19        4126.936
779.60        4121.636
780.02        4114.364
780.43        4104.638
780.84          4094.7
781.26        4062.654
781.67        4019.315
782.09        4038.789
782.50        4106.728
782.91        4062.824
783.33        4019.593
783.74        3980.541
784.15          3981.7
784.57        3973.496
784.98         3955.23
785.39        3938.586
785.81        3928.462
786.22        3941.836
786.63        3975.698
787.04        4006.172
787.46        4029.343
787.87        4056.459
788.28        4085.617
788.70          4106.1
789.11        4115.161
789.52        4120.354
789.93        4119.296
790.35        4093.037
790.76        4050.246
791.17        4030.059
791.58        4028.845
792.00        4006.005
792.41        3960.842
792.82        3925.432
793.23        3909.449
793.65        3896.157
794.06        3896.656
794.47        3955.135
794.88        4039.951
795.29         4068.11
795.71        3999.297
796.12        3908.532
796.53         3809.23
796.94         3705.03
797.35        3617.054
797.76        3581.292
798.18        3585.037
798.59        3569.965
799.00        3528.243
799.41        3490.025
799.82         3457.96
800.23        3423.884
800.64        3388.331
801.06        3350.825
801.47        3311.631
801.88        3273.447
802.29        3236.636
802.70        3200.368
803.11        3164.535
803.52        3128.659
803.93        3093.941
804.34        3062.343
804.75        3032.949
805.17        3008.117
805.58         2988.57
805.99        2960.433
806.40        2930.113
806.81         2936.78
807.22        2966.485
807.63        2950.803
808.04        2891.121
808.45        2847.483
808.86        2822.242
809.27        2779.121
809.68        2722.284
810.09        2675.781
810.50        2642.473
810.91        2617.958
811.32         2595.94
811.73        2565.126
812.14        2523.356
812.55        2475.588
812.96        2432.199
813.37         2405.48
813.78        2399.468
814.19        2416.536
814.60        2439.034
815.01        2431.968
815.42         2389.01
815.83        2322.925
816.24        2251.612
816.65        2201.629
817.05        2180.551
817.46        2181.032
817.87        2188.236
818.28        2178.187
818.69        2145.067
819.10        2096.813
819.51        2046.888
819.92        2016.366
820.33        2009.661
820.74        2018.321
821.14        2029.623
821.55        2024.033
821.96         1996.59
822.37        1954.587
822.78        1906.568
823.19        1865.861
823.60        1837.082
824.00        1815.782
824.41        1800.149
824.82        1787.495
825.23         1775.84
825.64        1766.385
826.04        1756.047
826.45        1739.302
826.86        1715.254
827.27         1684.94
827.68        1652.381
828.08        1624.833
828.49        1604.048
828.90        1587.827
829.31        1573.564
829.72        1556.703
830.12         1536.19
830.53        1514.606
830.94        1492.601
831.35        1470.806
831.75        1450.371
832.16        1431.103
832.57        1416.148
832.97        1410.727
833.38        1414.849
833.79        1425.864
834.20        1438.152
834.60        1442.815
835.01        1437.164
835.42        1423.443
835.82        1404.412
836.23        1384.907
836.64        1367.289
837.04        1350.911
837.45        1336.465
837.86        1324.953
838.26        1316.475
838.67        1310.973
839.08        1308.136
839.48        1306.937
839.89        1306.439
840.29        1306.331
840.70        1304.446
841.11        1297.682
841.51        1285.732
841.92        1269.623
842.33        1252.556
842.73        1239.829
843.14        1232.828
843.54         1230.13
843.95        1229.479
844.35         1227.01
844.76        1221.468
845.17        1214.026
845.57          1205.5
845.98        1197.135
846.38        1189.473
846.79        1181.947
847.19        1174.364
847.60        1166.829
848.00        1158.981
848.41        1150.286
848.81        1141.194
849.22        1132.152
849.62        1123.465
850.03        1116.252
850.43        1108.167
850.84         1095.28
851.24        1077.895
851.65          1057.4
852.05        1041.012
852.46        1040.212
852.86        1056.135
853.27        1083.958
853.67        1113.048
854.07        1126.554
854.48        1119.974
854.88        1098.085
855.29        1068.182
855.69        1042.503
856.10        1025.207
856.50        1012.901
856.90        1003.199
857.31        992.2283
857.71        978.6906
858.12        964.7637
858.52        951.0617
858.92         937.718
859.33        925.0244
859.73        912.6755
860.13        900.7679
860.54        889.7744
860.94        879.9707
861.34        871.4479
861.75        864.4474
862.15        859.3663
862.55        855.8521
862.96        853.0256
863.36        850.4874
863.76        847.6239
864.17        844.0954
864.57        840.4435
864.97         834.915
865.38        824.8809
865.78        810.4099
866.18        792.2198
866.58        775.3098
866.99        767.5772
867.39        770.3375
867.79        781.4059
868.19        793.6352
868.60        795.4218
869.00        784.2525
869.40        763.5463
869.80          740.91
870.21        728.6949
870.61        729.8064
871.01        740.2144
871.41        753.1373
871.81        757.7448
872.22        751.3275
872.62        737.7653
873.02        722.0965
873.42        712.2001
873.82        710.3075
874.22        713.4271
874.63        719.0049
875.03        723.1882
875.43        724.5638
875.83        724.8179
876.23         723.971
876.63        721.7119
877.03        718.5751
877.44        714.5652
877.84        711.5257
878.24         712.736
878.64        718.4875
879.04        727.2518
879.44        736.8065
879.84        743.5413
880.24        746.1096
880.64        745.4937
881.04        741.6095
881.44         734.437
881.84         724.882
882.24        713.5839
882.65        702.9849
883.05          696.95
883.45        696.3785
883.85        700.1777
884.25        706.7096
884.65        713.0195
885.05        717.7681
885.45        721.4425
885.85        723.2579
886.25        722.2236
886.65        718.3657
887.05         711.743
887.45        704.2505
887.85        699.0998
888.25         697.242
888.65        698.3861
889.04        700.7476
889.44        701.1352
889.84        698.9643
890.24        695.2374
890.64        692.3339
891.04        694.0653
891.44        700.8744
891.84        710.9218
892.24        721.1943
892.64        727.0406
893.04        727.2579
893.44        723.5229
893.83        717.5297
894.23        712.0266
894.63        708.2687
895.03        705.5425
895.43         704.485
895.83        706.1123
896.23        710.1783
896.63        716.2767
897.02        722.5599
897.42         725.868
897.82         725.437
898.22        722.1762
898.62        717.2018
899.01        712.5585
899.41        709.0536
899.81         706.047
900.21        704.0708
900.61        703.9109
901.00        705.5023
901.40        708.8934
901.80        712.3817
902.20        713.0173
902.59        710.3969
902.99        705.4538
903.39        700.5042
903.79        699.4348
904.18        702.9307
904.58        709.2962
904.98        716.5311
905.38        721.4678
905.77        722.9799
906.17        722.1346
906.57        718.8651
906.96        713.1277
907.36        705.4891
907.76        696.0457
908.15        687.0322
908.55        682.0098
908.95        681.7593
909.34        685.6683
909.74        690.9988
910.14        693.0845
910.53        690.8127
910.93        685.3406
911.33        679.4941
911.72        677.9558
912.12        681.5692
912.52        688.4887
912.91        695.5909
913.31         697.993
913.70        694.6168
914.10          687.41
914.49        678.7822
914.89         672.512
915.29        669.8585
915.68        669.5328
916.08        671.0588
916.47        673.6761
916.87        676.7151
917.26         680.434
917.66        683.4544
918.05        683.4839
918.45        680.1416
918.84        673.8694
919.24        666.5768
919.64        661.5775
920.03        659.6418
920.42        659.8371
920.82         660.494
921.21        658.7941
921.61        654.1269
922.00        647.6944
922.40           640.7
922.79        635.0004
923.19        631.1979
923.58        628.5126
923.98        626.9279
924.37        626.4235
924.77        626.7629
925.16        628.1712
925.55        629.3318
925.95        628.0924
926.34        624.1357
926.74        617.8362
927.13        611.5217
927.52        609.0818
927.92        611.1096
928.31         616.272
928.70        621.4459
929.10        621.5963
929.49        615.6726
929.89        605.5258
930.28        594.0278
930.67        585.7264
931.07        582.0688
931.46        581.7493
931.85        583.4264
932.24         584.949
932.64        585.3731
933.03        585.1621
933.42        584.4721
933.82        583.4935
934.21        582.1849
934.60        580.2251
934.99        577.0781
935.39        572.1063
935.78        565.4821
936.17        557.8149
936.56        550.3354
936.96        544.8909
937.35        541.9422
937.74        540.9029
938.13        541.0878
938.53         541.268
938.92        540.9236
939.31         540.429
939.70        539.3284
940.09        536.9449
940.49        533.3156
940.88        528.4991
941.27        523.7733
941.66        521.3143
942.05         521.434
942.44        523.3798
942.84        525.4418
943.23        524.8497
943.62         520.885
944.01         514.387
944.40        506.6501
944.79        499.7654
945.18        494.4926
945.57        490.4161
945.97        487.0112
946.36         483.368
946.75        479.3502
947.14        475.4681
947.53        472.3413
947.92        470.8528
948.31        471.0057
948.70         472.097
949.09        473.4115
949.48        473.9149
949.87        473.2089
950.26        471.6644
950.65        468.9972
951.04        464.8242
951.43        459.3669
951.82        452.7811
952.21        446.5558
952.60        443.0694
952.99        442.6875
953.38        444.6926
953.77        447.0756
954.16        446.5392
954.55        442.2687
954.94        435.2302
955.33        427.1382
955.72        420.7784
956.11        417.0232
956.50        415.1562
956.89         414.086
957.28         412.087
957.66        408.6727
958.05        404.3737
958.44        400.2663
958.83        397.9331
959.22        397.6834
959.61        399.0166
960.00        400.3618
960.39        399.3141
960.78        395.4091
961.16        389.3178
961.55        383.1241
961.94        380.1761
962.33        381.0771
962.72        384.6519
963.11         388.399
963.49        388.3528
963.88        383.5679
964.27        375.3352
964.66        365.8242
965.04        358.5029
965.43        354.3934
965.82        352.4912
966.21        351.4671
966.60        349.1742
966.98        345.0514
967.37        339.9789
967.76        334.8516
968.15        330.9633
968.53        328.6568
968.92        327.3143
969.31        326.3983
969.69        325.1918
970.08        323.3448
970.47        321.0063
970.86        318.2013
971.24        314.9355
971.63        311.3295
972.02        307.5093
972.40        303.5192
972.79        299.4717
973.17        295.4898
973.56         291.546
973.95        288.2066
974.33        286.2935
974.72        285.8407
975.11        286.6046
975.49         287.306
975.88        285.9212
976.26        282.0281
976.65        276.1048
977.04        269.7549
977.42        265.6161
977.81        264.2537
978.19        264.8827
978.58         265.735
978.96        263.9605
979.35        258.9504
979.74        251.7084
980.12        243.9845
980.51        238.5411
980.89         236.081
981.28        235.6718
981.66        236.0208
982.05        235.0732
982.43        232.2499
982.82        228.3197
983.20        223.9744
983.59        220.2525
983.97        217.5527
984.35        215.4872
984.74        213.9825
985.12        213.0018
985.51        212.3875
985.89        212.1045
986.28         211.863
986.66        211.1514
987.04        209.8127
987.43        207.9401
987.81        205.5806
988.20        202.8885
988.58        199.9887
988.96         196.859
989.35        193.7993
989.73        191.2828
990.12        189.3741
990.50         187.968
990.88        186.6526
991.27         184.699
991.65        181.9969
992.03        178.8723
992.42        175.6879
992.80        173.0384
993.18        171.1021
993.56        169.5913
993.95        168.5535
994.33         168.081
994.71        168.0134
995.10        168.2765
995.48        168.1906
995.86        166.6552
996.24        163.5514
996.63        159.3003
997.01        154.7937
997.39        151.5109
997.77        149.8202
998.15        149.1864
998.54        149.1436
998.92        148.9163
999.30        148.1224
999.68        146.9884
1000.06        145.1763
1000.45        142.1293
1000.83        137.9308
1001.21        132.8486
1001.59        127.7296
1001.97        123.9809
1002.35        121.9483
1002.73        121.2143
1003.12        121.2857
1003.50        121.2692
1003.88        120.8194
1004.26        120.2417
1004.64        119.3062
1005.02         117.665
1005.40        115.3609
1005.78        112.3873
1006.16        109.5474
1006.54        108.2062
1006.92        108.5559
1007.30        110.1615
1007.69        111.8635
1008.07        111.7756
1008.45        109.4467
1008.83        105.4443
1009.21        100.7985
1009.59        97.17738
1009.97        95.08259
1010.35        94.07335
1010.73        93.48305
1011.11         92.2271
1011.49        90.04164
1011.86        87.33829
1012.24        84.67884
1012.62         82.9194
1013.00        82.18989
1013.38        82.03067
1013.76        81.91671
1014.14        81.06288
1014.52        79.26294
1014.90        76.89497
1015.28        74.08226
1015.66        71.00867
1016.04        67.89545
1016.41        64.70521
1016.79        62.05137
1017.17        60.90422
1017.55        61.35033
1017.93        63.08898
1018.31        65.08739
1018.69        65.64568
1019.06        64.38471
1019.44        61.82387
1019.82        58.91993
1020.20        57.23848
1020.58        57.25518
1020.95        58.53217
1021.33        60.49626
1021.71        62.23686
1022.09         63.4122
1022.46        64.20863
1022.84        64.92715
1023.22        66.03062
1023.60        67.55275
1023.97        69.23896
1024.35        70.49073
1024.73        70.44361
