SpectraSmart Spectrum 2.9.0.0
--------- Device Information -----------
Spectrum Name :  光譜_0
Saving Time :  2024/04/29 23:38:12
Spectro-Module Model Name : SE2030-DUVN
Spectro-Module Serial Number : OS361AC55029948
Wavelength Start : 200
Wavelength End : 1025
Wavelength Unit : Wavelength(nm)
Spectrum Unit : Intensity(Counts)
-----------Spectrum Setting ------------
Integration Time : 1ms
Average : 1
Boxcar : 0
Background removal :  enabled
linearity correction :  enabled
SC :  disabled
Intensity correction :  disabled
DWT denoise :  enabled
savitzky-golay :  disabled
FFT :  disabled
Running average :  disabled
Kalman :  disabled
High pass :  disabled
---------------BEGIN--------------------
Wavelength(nm)          Intensity(Counts)
200.29       -22.57815
200.75       -20.81319
201.21       -19.00142
201.67       -17.33819
202.13       -15.89114
202.58       -14.77342
203.04       -13.65519
203.50       -13.16564
203.96       -14.41619
204.42       -17.39802
204.88         -21.734
205.34       -25.66843
205.80       -26.46122
206.26       -23.52557
206.72       -17.47111
207.18       -10.53665
207.64       -6.397682
208.10       -5.874843
208.55       -8.016138
209.01       -10.34486
209.47        -8.77532
209.93       -2.658749
210.39        6.276028
210.85        15.19012
211.31        19.64963
211.77        18.57493
212.23        13.64457
212.69        6.681245
213.14       0.5914329
213.60       -3.496263
214.06       -6.493933
214.52       -8.198164
214.98       -8.302083
215.44       -7.086174
215.90       -4.460876
216.36       -1.993525
216.81       -2.378193
217.27       -6.048283
217.73       -12.21991
218.19       -18.82181
218.65       -22.42366
219.11       -22.07326
219.57       -18.63174
220.02       -13.64392
220.48       -9.675395
220.94       -7.474276
221.40       -6.312217
221.86       -5.062228
222.32       -1.959856
222.77        3.333791
223.23        10.03823
223.69         16.8561
224.15        21.88968
224.61        24.67596
225.06        25.82307
225.52        26.56477
225.98        28.83429
226.44        33.15777
226.90        39.03412
227.36        45.43115
227.81        50.64288
228.27        54.35907
228.73        57.28579
229.19        60.43695
229.65        65.41632
230.10        72.45538
230.56        80.61884
231.02        89.16138
231.48        96.95902
231.93        103.4952
232.39        109.1705
232.85        113.2326
233.31        114.5904
233.77        113.2097
234.22        109.1197
234.68        104.4126
235.14         102.549
235.60        104.0153
236.05        107.8195
236.51        110.7133
236.97        107.3922
237.43        96.90462
237.88        81.17564
238.34        63.87404
238.80        50.85071
239.26        43.73415
239.71        40.83986
240.17        39.81076
240.63        36.74184
241.08        30.52337
241.54        22.64308
242.00        14.27884
242.46        7.180192
242.91        1.970389
243.37       -2.151465
243.83       -5.216227
244.28       -7.134766
244.74       -8.018259
245.20       -7.630646
245.66        -6.78093
246.11       -6.870932
246.57       -8.156104
247.03       -10.47988
247.48       -12.41267
247.94       -11.55543
248.40       -7.572086
248.85       -1.270267
249.31        5.164272
249.77        8.256662
250.22        7.312352
250.68        3.509252
251.14      -0.7850664
251.59       -1.797309
252.05         1.52768
252.51        8.165434
252.96        16.41595
253.42        23.49935
253.88        28.70688
254.33        33.07592
254.79        37.99251
255.25        45.51696
255.70        56.31786
256.16        69.86259
256.62        85.21974
257.07        100.9512
257.53        116.7491
257.99        133.1447
258.44         151.316
258.90        173.0096
259.35        198.5715
259.81        227.4517
260.27        258.1215
260.72        288.1608
261.18        316.9979
261.63          345.22
262.09        374.3051
262.55        406.7358
263.00        442.7029
263.46        480.6758
263.91        518.5971
264.37        553.5076
264.83        584.0936
265.28        610.5937
265.74        633.2838
266.19        652.8797
266.65        669.7299
267.11        683.7196
267.56        694.8321
268.02        703.1268
268.47        709.0801
268.93        713.4017
269.38        717.4279
269.84         722.877
270.30        730.4235
270.75        740.1605
271.21        751.3051
271.66        762.2797
272.12        772.9584
272.57         784.141
273.03        797.1877
273.48         814.163
273.94        835.5411
274.39        860.5605
274.85        888.1217
275.31        916.5134
275.76        945.0558
276.22         974.051
276.67        1003.787
277.13        1034.757
277.58        1067.141
278.04        1100.703
278.49        1135.006
278.95        1169.615
279.40        1204.166
279.86        1238.163
280.31        1272.332
280.77        1307.882
281.22        1344.751
281.68        1382.735
282.13        1419.147
282.59        1449.709
283.04        1474.178
283.50        1494.352
283.95        1515.099
284.41        1544.081
284.86        1582.983
285.32        1629.379
285.77        1678.568
286.22        1722.972
286.68        1760.083
287.13        1791.509
287.59        1819.925
288.04        1849.782
288.50        1882.339
288.95        1916.239
289.41        1948.856
289.86        1976.305
290.32        1997.943
290.77        2015.157
291.22        2031.848
291.68        2054.001
292.13        2082.529
292.59        2115.161
293.04        2146.719
293.50        2169.089
293.95        2180.333
294.40        2182.975
294.86        2181.708
295.31        2184.089
295.77        2192.536
296.22        2205.421
296.68        2220.083
297.13        2231.934
297.58        2240.403
298.04        2248.236
298.49        2258.563
298.95        2275.777
299.40        2301.127
299.85        2332.841
300.31        2369.364
300.76        2408.428
301.21        2448.484
301.67        2489.364
302.12        2529.973
302.58        2568.741
303.03        2605.405
303.48         2640.46
303.94        2674.467
304.39        2708.585
304.84        2743.722
305.30        2779.928
305.75        2818.765
306.20        2862.587
306.66        2911.149
307.11        2962.903
307.57        3014.921
308.02        3062.522
308.47        3104.144
308.93        3140.904
309.38        3173.021
309.83        3201.367
310.29        3226.615
310.74        3248.007
311.19        3267.994
311.65        3290.718
312.10         3316.41
312.55        3343.838
313.00        3368.276
313.46        3381.848
313.91        3383.326
314.36        3375.963
314.82         3364.98
315.27        3358.589
315.72        3359.637
316.18        3366.105
316.63            3376
317.08        3386.081
317.53        3394.267
317.99        3400.271
318.44        3403.729
318.89        3404.048
319.35         3400.71
319.80        3393.847
320.25        3380.758
320.70        3357.672
321.16         3325.18
321.61         3285.33
322.06         3245.85
322.51        3218.676
322.97        3206.175
323.42        3204.916
323.87        3206.052
324.32        3195.144
324.78        3168.116
325.23         3128.45
325.68        3083.134
326.13        3043.695
326.59        3013.241
327.04        2988.515
327.49         2963.36
327.94         2928.05
328.39         2881.03
328.85        2826.592
329.30        2772.293
329.75        2729.639
330.20        2701.055
330.66        2682.042
331.11        2666.015
331.56        2642.662
332.01        2608.701
332.46        2567.363
332.92        2521.362
333.37        2474.986
333.82        2430.668
334.27        2387.917
334.72         2347.91
335.17        2312.587
335.63        2282.494
336.08        2257.596
336.53        2237.879
336.98         2222.58
337.43         2210.87
337.88         2202.58
338.34        2195.051
338.79        2184.362
339.24        2169.838
339.69        2152.192
340.14        2135.261
340.59        2125.576
341.05        2124.376
341.50        2129.618
341.95        2137.115
342.40         2139.89
342.85        2136.576
343.30        2130.136
343.75        2123.761
344.20        2122.542
344.66        2127.939
345.11        2137.428
345.56         2150.83
346.01        2168.077
346.46        2187.796
346.91        2209.656
347.36        2228.937
347.81        2238.094
348.26        2236.191
348.72        2225.736
349.17        2213.187
349.62        2209.273
350.07        2216.686
350.52        2232.089
350.97        2251.104
351.42        2266.417
351.87        2275.487
352.32        2280.704
352.77        2282.862
353.22        2283.068
353.67        2282.558
354.13        2281.285
354.58        2281.189
355.03        2285.595
355.48        2295.373
355.93        2309.908
356.38        2328.006
356.83        2347.339
357.28        2366.644
357.73        2385.882
358.18        2404.265
358.63        2420.795
359.08         2435.19
359.53        2447.413
359.98        2457.736
360.43        2467.013
360.88        2475.573
361.33        2483.092
361.78        2490.302
362.23        2498.272
362.68        2507.029
363.13         2516.47
363.58        2524.736
364.03        2528.687
364.48            2528
364.93        2523.896
365.38        2519.088
365.83        2517.983
366.28         2521.48
366.73        2527.832
367.18        2534.917
367.63        2539.321
368.08        2539.771
368.53        2537.234
368.98          2531.5
369.43        2522.495
369.88         2510.46
370.33        2495.022
370.78         2478.53
371.23        2464.652
371.68        2454.702
372.13        2449.458
372.58        2445.506
373.03        2436.818
373.48        2423.081
373.93        2406.411
374.38        2394.892
374.83        2401.135
375.28        2427.014
375.72        2468.102
376.17        2513.029
376.62        2543.799
377.07        2555.787
377.52         2553.54
377.97        2547.093
378.42        2553.115
378.87        2575.511
379.32        2608.616
379.77         2643.47
380.22        2665.931
380.67         2672.75
381.11        2669.502
381.56        2663.248
382.01        2664.968
382.46        2677.672
382.91        2697.098
383.36        2720.586
383.81        2743.669
384.26        2765.284
384.71        2789.399
385.15        2813.716
385.60        2834.107
386.05        2851.014
386.50        2864.121
386.95        2884.368
387.40        2929.732
387.85        3001.622
388.29        3093.916
388.74        3187.132
389.19        3249.401
389.64        3275.592
390.09        3278.211
390.54        3277.367
390.98        3305.893
391.43        3371.871
391.88        3461.679
392.33        3567.351
392.78        3672.931
393.23        3768.428
393.67        3863.811
394.12        3947.928
394.57        3965.343
395.02        3975.691
395.47        3942.832
395.91        3907.117
396.36        3904.729
396.81        3946.352
397.26        4018.921
397.71        4114.965
398.15        4220.071
398.60        4322.452
399.05        4428.111
399.50        4517.147
399.95        4537.631
400.39        4510.293
400.84        4446.061
401.29        4374.567
401.74        4318.451
402.18        4290.972
402.63        4295.712
403.08        4320.572
403.53        4338.996
403.97        4343.477
404.42        4340.837
404.87        4339.817
405.32        4353.244
405.76        4382.345
406.21        4420.457
406.66        4450.701
407.11        4448.943
407.55        4410.916
408.00        4343.984
408.45        4271.842
408.90        4231.906
409.34         4233.21
409.79        4266.898
410.24        4307.712
410.68        4314.087
411.13        4277.554
411.58        4211.986
412.03        4145.455
412.47        4122.511
412.92        4152.418
413.37        4218.334
413.81        4293.229
414.26        4334.956
414.71        4331.616
415.15        4296.581
415.60        4246.588
416.05        4208.537
416.49        4191.395
416.94        4186.805
417.39        4189.501
417.83        4190.892
418.28        4189.672
418.73        4193.897
419.17        4204.443
419.62        4220.539
420.07        4242.743
420.51        4267.404
420.96        4302.044
421.41        4360.314
421.85        4439.875
422.30        4532.024
422.74        4613.473
423.19        4648.743
423.64        4629.962
424.08        4567.699
424.53        4484.877
424.98        4418.423
425.42        4381.306
425.87        4369.519
426.31        4373.371
426.76        4366.799
427.21        4361.064
427.65        4358.989
428.10        4373.791
428.54        4429.612
428.99        4526.271
429.44        4612.887
429.88        4684.958
430.33        4811.094
430.77        4949.373
431.22        4943.678
431.66        4803.642
432.11        4691.954
432.56        4635.713
433.00        4536.522
433.45         4427.83
433.89        4462.411
434.34        4607.984
434.78         4670.14
435.23        4641.271
435.67        4661.609
436.12        4726.608
436.57        4739.742
437.01        4706.385
437.46         4686.16
437.90        4688.071
438.35        4697.932
438.79        4709.802
439.24         4722.26
439.68        4728.817
440.13        4714.897
440.57        4709.809
441.02        4758.626
441.46        4862.094
441.91        5042.436
442.35        5244.523
442.80        5276.191
443.24        5172.843
443.69        5204.547
444.13        5366.341
444.58        5432.843
445.02         5401.28
445.47        5409.142
445.91        5461.442
446.36        5499.011
446.80        5521.071
447.24         5545.94
447.69         5573.82
448.13        5603.061
448.58        5633.666
449.02        5663.092
449.47        5690.393
449.91        5716.674
450.36        5741.589
450.80        5763.715
451.25         5784.03
451.69        5805.012
452.13        5827.361
452.58        5849.606
453.02        5869.587
453.47        5887.602
453.91        5905.207
454.36        5909.044
454.80        5932.382
455.24        5958.173
455.69         5997.79
456.13        6050.322
456.58        6115.302
457.02        6190.399
457.46        6273.628
457.91        6363.308
458.35        6455.288
458.79        6547.668
459.24        6634.183
459.68        6702.611
460.13        6750.767
460.57        6797.326
461.01        6794.629
461.46        6817.799
461.90        6841.133
462.34        6782.157
462.79        6676.569
463.23        6677.279
463.68         6793.37
464.12        6911.336
464.56        7023.437
465.01        7188.721
465.45         7371.24
465.89        7496.836
466.34        7536.157
466.78        7472.368
467.22        7325.351
467.67        7240.729
468.11        7235.248
468.55        7258.147
468.99        7285.845
469.44        7295.664
469.88        7278.767
470.32        7248.147
470.77        7219.666
471.21        7214.639
471.65        7239.641
472.10        7286.732
472.54        7346.563
472.98        7405.945
473.42        7459.466
473.87        7508.956
474.31        7559.109
474.75        7617.717
475.20        7684.601
475.64        7754.882
476.08        7818.465
476.52        7859.933
476.97        7878.213
477.41        7882.215
477.85        7883.457
478.29        7898.863
478.74        7931.485
479.18        7978.824
479.62        8042.231
480.06        8102.684
480.50        8146.474
480.95        8259.063
481.39        8295.227
481.83        8296.235
482.27        8233.677
482.72        8253.603
483.16        8242.447
483.60        8235.607
484.04        8190.427
484.48        8175.743
484.93         8323.08
485.37        8425.185
485.81        8750.711
486.25        9705.468
486.69        13246.87
487.14        12621.49
487.58        9199.656
488.02        8870.787
488.46        8629.549
488.90        8353.005
489.34         8263.74
489.79        8135.555
490.23        8260.435
490.67        8288.902
491.11        8258.845
491.55        8253.425
491.99        8262.752
492.43        8230.026
492.88        8165.384
493.32        8134.499
493.76        8133.054
494.20        8110.305
494.64        8062.957
495.08        8015.753
495.52        7986.762
495.96        7975.142
496.41        7978.628
496.85        8041.787
497.29        8130.486
497.73        8046.104
498.17        7917.494
498.61        7875.648
499.05        7947.145
499.49        7970.346
499.93         7934.41
500.37        7907.334
500.82        7896.954
501.26        7898.538
501.70         7911.36
502.14        7924.468
502.58        7927.086
503.02        7912.075
503.46        7877.254
503.90        7823.668
504.34        7763.389
504.78        7717.367
505.22        7691.558
505.66        7682.416
506.10        7684.274
506.54        7678.188
506.98        7658.336
507.42        7645.291
507.86        7649.625
508.30        7598.665
508.74        7635.409
509.18        7642.345
509.62        7650.739
510.06        7640.833
510.50        7610.862
510.94        7564.896
511.38        7516.343
511.82        7490.285
512.26        7491.864
512.70        7514.071
513.14        7542.084
513.58        7551.875
514.02        7537.341
514.46        7505.902
514.90        7470.553
515.34        7451.742
515.78        7455.227
516.22        7475.174
516.66        7500.679
517.10         7514.83
517.54         7513.28
517.98        7500.841
518.42        7489.031
518.86        7495.692
519.30        7524.103
519.74        7567.993
520.18        7612.061
520.62        7632.742
521.06        7624.891
521.50        7595.649
521.93        7562.127
522.37        7551.532
522.81        7570.568
523.25        7611.754
523.69        7658.759
524.13        7685.006
524.57        7685.145
525.01        7669.288
525.45        7653.964
525.89        7664.955
526.32        7708.286
526.76         7773.79
527.20         7848.64
527.64        7913.318
528.08        7960.428
528.52        7994.749
528.96        8020.103
529.40        8042.448
529.83        8065.338
530.27         8088.63
530.71        8111.991
531.15         8135.27
531.59        8160.099
532.03        8187.936
532.46        8225.668
532.90        8283.469
533.34        8360.326
533.78        8449.434
534.22        8537.444
534.66        8603.522
535.09        8642.476
535.53        8661.801
535.97        8668.027
536.41         8672.39
536.85        8681.528
537.28        8693.722
537.72        8717.305
538.16        8764.941
538.60        8837.092
539.04        8929.789
539.47        9028.047
539.91         9106.74
540.35         9159.43
540.79        9192.271
541.22        9215.661
541.66        9248.783
542.10        9296.513
542.54        9350.203
542.97        9407.112
543.41        9464.363
543.85        9519.713
544.29        9576.047
544.72         9628.63
545.16        9667.682
545.60        9692.401
546.04        9709.474
546.47        9731.113
546.91        9764.332
547.35        9817.378
547.79        9914.188
548.22        10033.35
548.66        10093.94
549.10        10083.48
549.53        10072.24
549.97        10094.47
550.41        9996.086
550.84        10092.58
551.28        10144.17
551.72        10237.81
552.15        10275.92
552.59        10386.17
553.03        10466.35
553.46        10543.55
553.90         10606.6
554.34        10654.51
554.77        10675.53
555.21        10690.19
555.65        10757.56
556.08        10871.68
556.52        10977.89
556.96        11056.08
557.39        11103.47
557.83        11122.78
558.27        11132.63
558.70        11151.92
559.14        11196.78
559.57        11282.53
560.01        11413.42
560.45        11572.14
560.88        11764.06
561.32        11910.73
561.75        12010.82
562.19        12061.44
562.63        12136.19
563.06        12242.24
563.50         12337.1
563.93         12420.5
564.37        12509.76
564.80         12604.6
565.24         12705.7
565.68        12809.93
566.11        12900.83
566.55        12985.53
566.98        13092.25
567.42        13214.93
567.85        13351.55
568.29         13510.9
568.72         13651.6
569.16        13778.88
569.60        14158.44
570.03        14328.85
570.47         14661.4
570.90        15006.74
571.34        15129.16
571.77        15270.56
572.21        15403.52
572.64        15620.02
573.08        15466.44
573.51        15077.27
573.95        15637.34
574.38        16297.81
574.82        16521.99
575.25        16625.32
575.69         16378.7
576.12        16158.67
576.56        15764.74
576.99        15994.21
577.42        16572.54
577.86        16721.74
578.29        17423.39
578.73        18139.47
579.16        17440.01
579.60        16209.29
580.03        15766.54
580.47        16135.36
580.90        16372.03
581.33        16564.87
581.77        16918.07
582.20        18980.73
582.64        19237.87
583.07        18183.13
583.51         16869.8
583.94        15786.22
584.37        15307.21
584.81        15507.52
585.24         16018.3
585.68        16561.25
586.11        16780.47
586.54        16592.75
586.98        15958.58
587.41        15146.69
587.85         15447.9
588.28         15949.6
588.71        15448.54
589.15        15157.05
589.58        14876.08
590.01        14425.54
590.45        14305.61
590.88        14272.56
591.31        14139.44
591.75         13923.9
592.18        13804.24
592.61        13925.72
593.05         14366.7
593.48        15267.52
593.91        15698.48
594.35        15594.47
594.78        15196.32
595.21        14695.35
595.65        14828.49
596.08        15458.53
596.51        15229.04
596.94        14692.51
597.38        14465.64
597.81        14726.17
598.24        14939.57
598.68        14985.49
599.11        15126.58
599.54        15776.04
599.97        16040.91
600.41        16034.59
600.84        16153.18
601.27        16128.53
601.70        15995.29
602.14        15749.37
602.57         15627.5
603.00        15669.65
603.43         15812.3
603.87        15993.27
604.30         16016.7
604.73        15875.78
605.16        15544.78
605.60        15164.71
606.03        15189.95
606.46        15534.96
606.89        15558.14
607.32        15254.42
607.76         15118.8
608.19        15159.11
608.62        15088.29
609.05        14896.45
609.48        14708.79
609.92        14613.29
610.35         14466.2
610.78        14742.43
611.21        14855.14
611.64        14600.78
612.07        14438.41
612.50        14317.03
612.94        14161.98
613.37         13967.4
613.80        14022.98
614.23        13848.44
614.66        13822.58
615.09        13801.64
615.52        13794.84
615.96        13772.07
616.39         13721.6
616.82        13659.46
617.25         13453.2
617.68        13386.67
618.11        13309.47
618.54         13278.5
618.97        13178.48
619.40        13026.15
619.84        12906.16
620.27        12809.68
620.70        12765.73
621.13        12775.45
621.56        12553.39
621.99         12362.6
622.42        12490.46
622.85        12546.36
623.28        12534.73
623.71        12394.53
624.14        12618.09
624.57        12422.63
625.00        12413.96
625.43        12355.94
625.86        12275.94
626.29        12175.88
626.72        12078.19
627.15        11996.67
627.58        11919.93
628.01        11850.27
628.44        11789.86
628.87         11738.2
629.30        11692.79
629.73        11649.23
630.16        11607.56
630.59         11567.2
631.02        11498.22
631.45         11455.3
631.88        11400.14
632.31        11350.13
632.74        11303.86
633.17        11261.18
633.60        11220.18
634.03        11180.36
634.46        11143.62
634.89         11111.6
635.32        11085.04
635.75        11063.69
636.18        11048.11
636.61        11031.98
637.04        11003.56
637.47        10958.42
637.89        10907.07
638.32        10863.06
638.75        10820.29
639.18        10775.85
639.61        10837.99
640.04        10794.68
640.47        10778.61
640.90        10726.08
641.33        10649.53
641.76        10564.92
642.18        10502.12
642.61        10470.78
643.04        10460.55
643.47        10456.91
643.90        10439.73
644.33        10404.52
644.76        10346.38
645.18        10280.45
645.61        10253.52
646.04        10280.51
646.47        10235.17
646.90        10143.24
647.33        10113.55
647.75         10152.7
648.18        10204.64
648.61        10242.76
649.04        10251.01
649.47        10221.74
649.89        10149.05
650.32        10061.08
650.75        10025.32
651.18        10032.16
651.61        10019.37
652.03        9969.174
652.46        9880.835
652.89         9822.27
653.32        9814.854
653.74        9888.045
654.17        10081.55
654.60         9962.56
655.03        9546.893
655.46        9928.379
655.88        10011.23
656.31        13258.34
656.74        31055.67
657.16        33679.16
657.59        17028.98
658.02        11053.42
658.45        9866.974
658.87        9712.838
659.30        9775.607
659.73        9554.443
660.15        9362.405
660.58        9401.729
661.01        9439.471
661.44        9466.908
661.86        9516.864
662.29        9539.212
662.72         9443.84
663.14        9280.455
663.57        9277.773
664.00        9415.536
664.42        9461.532
664.85        9398.882
665.27         9349.47
665.70        9323.892
666.13         9291.57
666.55        9255.494
666.98        9215.746
667.41        9177.792
667.83        9156.683
668.26        9154.762
668.69        9168.052
669.11        9184.735
669.54         9187.01
669.96        9171.356
670.39        9141.505
670.82        9116.161
671.24        9123.671
671.67        9169.189
672.09        9239.773
672.52        9309.246
672.94        9321.653
673.37        9341.062
673.80        9214.267
674.22        9174.847
674.65        9097.716
675.07        9052.448
675.50        9026.038
675.92        9014.345
676.35        9007.588
676.77        9000.829
677.20         9001.67
677.62        9008.876
678.05        9019.033
678.47        9030.586
678.90        9039.896
679.32        9049.258
679.75        9064.767
680.17        9085.068
680.60        9106.624
681.02        9119.705
681.45        9108.338
681.87        9072.189
682.30        9021.449
682.72        8967.216
683.15        8926.686
683.57        8904.756
684.00        8893.926
684.42        8899.065
684.85        8920.839
685.27        8953.453
685.70        9014.065
686.12        9073.557
686.54        9038.999
686.97        8926.344
687.39        8854.828
687.82        8836.876
688.24        8800.746
688.66        8751.849
689.09        8742.948
689.51        8766.578
689.94        8780.772
690.36        8779.225
690.78        8773.563
691.21        8766.315
691.63         8761.46
692.06        8759.278
692.48        8754.021
692.90        8743.935
693.33        8728.363
693.75        8707.561
694.17         8685.34
694.60        8660.104
695.02        8627.061
695.44          8587.9
695.87        8548.551
696.29        8521.354
696.71         8516.16
697.14        8538.225
697.56         8599.78
697.98        8674.712
698.41        8701.645
698.83        8670.343
699.25        8607.328
699.68        8529.225
700.10        8457.765
700.52        8403.799
700.94        8360.738
701.37        8332.214
701.79        8324.103
702.21        8333.043
702.64        8356.153
703.06        8376.717
703.48        8366.702
703.90        8322.012
704.33        8251.123
704.75        8174.147
705.17        8109.962
705.59        8069.293
706.01        8043.412
706.44        8039.347
706.86        8065.856
707.28        8117.848
707.70        8195.261
708.12        8266.735
708.55        8269.889
708.97        8200.527
709.39         8099.85
709.81        7995.513
710.23        7908.626
710.66        7853.364
711.08        7836.493
711.50        7838.146
711.92        7816.945
712.34        7764.875
712.76        7695.207
713.19        7630.842
713.61        7607.007
714.03        7628.508
714.45        7679.078
714.87        7728.701
715.29        7731.678
715.71        7677.598
716.13        7582.882
716.56        7472.158
716.98        7384.785
717.40         7334.01
717.82        7308.894
718.24        7301.157
718.66        7297.037
719.08         7290.01
719.50         7284.47
719.92        7277.798
720.34        7264.664
720.76        7243.584
721.19        7213.433
721.61        7176.756
722.03        7139.483
722.45        7104.513
722.87        7072.768
723.29        7043.714
723.71        7015.767
724.13        6988.904
724.55        6962.916
724.97        6942.178
725.39        6933.614
725.81        6935.894
726.23          6944.5
726.65        6947.836
727.07        6927.437
727.49         6881.25
727.91          6818.7
728.33        6750.594
728.75        6694.543
729.17         6656.93
729.59        6631.071
730.01        6621.617
730.43        6635.042
730.85        6668.021
731.27         6718.28
731.69        6761.575
732.10        6759.086
732.52        6703.742
732.94        6605.983
733.36        6498.481
733.78        6432.326
734.20        6420.015
734.62        6455.049
735.04        6505.716
735.46         6501.72
735.88        6437.973
736.30        6371.573
736.72        6320.795
737.13        6270.961
737.55         6227.27
737.97        6225.242
738.39        6248.316
738.81        6205.379
739.23        6116.216
739.65        6115.978
740.06        6186.001
740.48        6186.032
740.90        6107.953
741.32        6026.915
741.74        5962.187
742.16         5910.13
742.57        5877.025
742.99        5870.941
743.41        5875.968
743.83        5850.365
744.25        5795.788
744.67        5754.021
745.08        5732.501
745.50        5712.434
745.92        5695.847
746.34        5697.604
746.75        5707.954
747.17        5702.349
747.59        5678.015
748.01        5643.738
748.42        5611.795
748.84         5601.55
749.26        5616.851
749.68        5648.895
750.09        5687.434
750.51        5716.928
750.93        5731.141
751.35        5733.974
751.76        5725.665
752.18        5706.984
752.60        5680.573
753.01        5647.276
753.43         5613.66
753.85        5590.457
754.27        5580.974
754.68        5583.914
755.10        5595.708
755.52        5609.085
755.93        5621.248
756.35        5633.701
756.77        5646.547
757.18        5659.896
757.60        5673.813
758.02        5687.161
758.43        5698.477
758.85        5707.018
759.26        5710.344
759.68        5705.354
760.10        5695.171
760.51         5680.52
760.93        5661.935
761.34        5655.248
761.76        5647.022
762.18        5587.089
762.59        5488.811
763.01        5422.136
763.42        5404.309
763.84        5406.503
764.26        5428.675
764.67        5493.717
765.09        5568.735
765.50         5583.42
765.92        5526.196
766.33        5421.287
766.75        5297.648
767.16        5202.266
767.58        5150.992
768.00        5129.499
768.41        5132.562
768.83        5148.178
769.24        5167.813
769.66        5204.105
770.07        5241.868
770.49        5232.404
770.90        5182.128
771.32         5146.06
771.73         5126.59
772.15        5088.855
772.56        5036.313
772.97        4976.468
773.39         4945.15
773.80        4895.895
774.22        4839.818
774.63        4783.827
775.05        4732.583
775.46        4691.262
775.88        4661.028
776.29         4639.32
776.70         4623.85
777.12        4611.559
777.53        4600.301
777.95        4590.078
778.36        4578.253
778.77        4561.161
779.19        4538.358
779.60        4510.457
780.02        4481.706
780.43        4459.404
780.84        4445.308
781.26        4437.655
781.67        4432.536
782.09        4423.297
782.50        4408.374
782.91        4390.202
783.33        4372.123
783.74        4359.233
784.15        4353.217
784.57        4352.752
784.98        4355.863
785.39        4359.449
785.81        4362.543
786.22        4365.939
786.63        4371.289
787.04         4381.06
787.46        4395.344
787.87        4412.437
788.28        4428.704
788.70        4439.417
789.11        4442.148
789.52        4435.939
789.93        4424.444
790.35         4413.39
790.76        4404.885
791.17        4400.849
791.58        4392.698
792.00         4366.33
792.41        4321.488
792.82        4262.402
793.23        4211.117
793.65        4202.792
794.06        4240.835
794.47        4310.689
794.88        4379.107
795.29        4393.333
795.71        4340.849
796.12        4238.872
796.53        4113.562
796.94        4007.689
797.35        3936.099
797.76        3887.661
798.18        3854.609
798.59        3823.732
799.00        3789.485
799.41        3757.696
799.82        3727.232
800.23        3694.272
800.64         3657.75
801.06        3615.989
801.47        3570.531
801.88        3525.812
802.29        3483.523
802.70        3443.916
803.11        3406.152
803.52        3368.274
803.93        3330.596
804.34        3294.335
804.75        3262.938
805.17        3241.604
805.58        3230.065
805.99        3224.766
806.40         3219.75
806.81        3205.885
807.22        3180.436
807.63        3146.066
808.04        3104.394
808.45        3058.857
808.86        3011.327
809.27        2960.436
809.68        2910.844
810.09        2869.504
810.50        2838.077
810.91        2817.295
811.32         2798.17
811.73        2765.487
812.14        2716.965
812.55        2656.189
812.96        2599.205
813.37        2571.929
813.78        2578.202
814.19        2608.875
814.60         2641.23
815.01        2639.318
815.42        2594.945
815.83        2519.225
816.24        2434.073
816.65        2374.736
817.05        2351.005
817.46        2352.839
817.87        2363.797
818.28        2357.519
818.69        2326.833
819.10        2280.227
819.51        2230.868
819.92        2198.996
820.33        2189.074
820.74        2193.219
821.14        2198.337
821.55        2184.621
821.96        2147.639
822.37        2094.853
822.78         2038.27
823.19        1996.462
823.60        1974.697
824.00        1967.181
824.41        1966.051
824.82        1958.806
825.23        1941.451
825.64        1917.842
826.04        1891.918
826.45        1869.731
826.86        1852.733
827.27        1837.798
827.68        1821.837
828.08        1800.877
828.49        1773.699
828.90        1741.875
829.31        1707.779
829.72        1674.673
830.12         1644.26
830.53        1617.118
830.94        1592.052
831.35        1566.641
831.75        1541.394
832.16        1517.918
832.57        1500.605
832.97        1496.271
833.38        1504.873
833.79        1521.876
834.20        1540.868
834.60        1552.114
835.01        1552.071
835.42        1543.322
835.82        1526.171
836.23        1501.607
836.64        1472.214
837.04         1439.15
837.45        1408.773
837.86        1391.084
838.26        1388.054
838.67        1396.728
839.08        1411.434
839.48        1422.309
839.89        1425.563
840.29         1423.16
840.70        1415.218
841.11        1402.538
841.51        1386.321
841.92        1366.312
842.33        1345.407
842.73        1328.727
843.14         1317.61
843.54        1311.233
843.95        1307.837
844.35        1303.746
844.76        1297.912
845.17         1291.83
845.57        1285.274
845.98         1277.94
846.38         1270.02
846.79        1260.682
847.19        1252.183
847.60        1248.748
848.00        1250.113
848.41        1254.086
848.81        1255.907
849.22        1247.725
849.62        1228.647
850.03         1203.21
850.43        1175.134
850.84        1150.158
851.24        1131.419
851.65         1117.37
852.05        1112.292
852.46        1122.788
852.86        1147.656
853.27        1183.098
853.67        1217.565
854.07        1232.717
854.48        1224.049
854.88        1196.563
855.29        1159.045
855.69        1126.595
856.10        1104.519
856.50        1089.098
856.90        1078.175
857.31        1067.919
857.71        1056.582
858.12        1046.057
858.52        1035.664
858.92        1023.404
859.33        1008.977
859.73        992.6461
860.13        975.1008
860.54        957.8892
860.94        942.1821
861.34        928.4044
861.75          917.76
862.15        912.0126
862.55        911.0535
862.96        913.4047
863.36        918.0802
863.76        923.5002
864.17        928.2435
864.57        932.2023
864.97        932.1573
865.38        923.3809
865.78         905.753
866.18        881.1376
866.58        855.5275
866.99        838.5897
867.39        832.7108
867.79        835.3433
868.19        841.5767
868.60        843.0651
869.00        837.3923
869.40        827.1431
869.80        815.0504
870.21         805.482
870.61        799.8956
871.01        796.6987
871.41         794.929
871.81        793.3014
872.22        791.4081
872.62         790.042
873.02        789.4257
873.42        789.7173
873.82        790.7323
874.22        791.6757
874.63        792.5815
875.03        793.7224
875.43        794.9298
875.83        796.3948
876.23        796.5767
876.63        792.9123
877.03        785.6013
877.44        775.9981
877.84        767.5508
878.24        765.8191
878.64        771.5764
879.04        782.1697
879.44        794.5314
879.84        803.7051
880.24        807.7762
880.64        808.4125
881.04         804.555
881.44          794.66
881.84        779.7303
882.24        760.6536
882.65        742.8793
883.05        735.2612
883.45        739.2833
883.85        752.0883
884.25        767.8092
884.65        776.4915
885.05        775.5164
885.45        768.3582
885.85        757.6745
886.25        748.0015
886.65        741.3199
887.05        735.6617
887.45         733.254
887.85        737.8331
888.25        749.2092
888.65         766.559
889.04        783.5462
889.44        789.6605
889.84        782.9727
890.24          766.51
890.64        747.8475
891.04        739.5426
891.44        744.5363
891.84        758.7405
892.24        775.8665
892.64        785.6941
893.04        785.3978
893.44        778.6227
893.83        768.7821
894.23        761.2065
894.63        757.7866
895.03        756.3787
895.43        756.7813
895.83        758.9513
896.23        762.3617
896.63         767.522
897.02        772.3303
897.42        773.0591
897.82        769.1934
898.22        761.6666
898.62         753.752
899.01        750.9518
899.41        754.4058
899.81        762.3242
900.21         771.472
900.61        776.5848
901.00        776.2853
901.40        772.4035
901.80        767.1194
902.20        763.8116
902.59        763.7589
902.99        766.0325
903.39        769.8669
903.79         774.231
904.18        778.3818
904.58        782.0662
904.98        785.6342
905.38         789.538
905.77        793.5599
906.17        797.6248
906.57        799.2573
906.96        794.6901
907.36        783.8655
907.76        768.3126
908.15        753.1643
908.55        746.5755
908.95        750.0563
909.34        760.8364
909.74        773.3724
910.14        778.6777
910.53        774.2075
910.93        762.6163
911.33        747.3915
911.72        734.1888
912.12        725.1827
912.52        719.1516
912.91        715.0703
913.31        711.2397
913.70        707.4134
914.10        704.7148
914.49        704.4312
914.89        708.2676
915.29        715.9583
915.68        725.7288
916.08        735.5107
916.47        742.3865
916.87        745.2375
917.26        744.9106
917.66        741.0815
918.05        733.4578
918.45        722.8499
918.84        709.7869
919.24        697.4992
919.64        691.0281
920.03        691.3602
920.42        697.2118
920.82        704.9762
921.21        708.5371
921.61        706.2342
922.00        699.7214
922.40        691.5067
922.79          685.81
923.19        683.8049
923.58        683.9702
923.98        684.8796
924.37        684.3663
924.77        681.8505
925.16        678.4282
925.55         674.692
925.95        671.4031
926.34         668.861
926.74         666.493
927.13        664.6893
927.52        664.2015
927.92        664.9085
928.31         666.638
928.70        667.8267
929.10        665.8914
929.49        660.5502
929.89        652.8087
930.28         644.869
930.67        640.2916
931.07          639.92
931.46         642.463
931.85        646.2916
932.24        648.8666
932.64        648.9946
933.03        647.0062
933.42        643.0394
933.82        637.2942
934.21        630.2714
934.60        622.5934
934.99        614.2015
935.39        605.0392
935.78        595.7052
936.17         586.465
936.56        580.1592
936.96        581.0455
937.35        589.3018
937.74        603.1796
938.13         617.362
938.53        623.4531
938.92        619.3878
939.31        607.3322
939.70        592.1602
940.09        581.9417
940.49        579.0452
940.88        581.4505
941.27        585.5114
941.66        585.3514
942.05        579.4716
942.44        569.7168
942.84        559.7931
943.23        555.3397
943.62        557.4174
944.01        563.9914
944.40        570.3412
944.79        569.2039
945.18        559.0861
945.57        542.4247
945.97        524.4891
946.36        513.5768
946.75         511.846
947.14        516.9553
947.53        524.2697
947.92        526.3752
948.31        521.2862
948.70         511.159
949.09        500.1669
949.48        494.7948
949.87         496.635
950.26        503.7073
950.65        511.4399
951.04        512.8431
951.43        506.2661
951.82        493.5734
952.21        480.2339
952.60         474.836
952.99         479.127
953.38         490.562
953.77        502.1135
954.16        502.7011
954.55        490.0495
954.94         467.623
955.33        443.7278
955.72        431.5237
956.11        434.0538
956.50        447.3547
956.89        463.0614
957.28        467.7858
957.66        458.4019
958.05        439.3327
958.44         418.396
958.83        407.9404
959.22        410.9882
959.61        423.2491
960.00        438.2442
960.39        445.8348
960.78         443.269
961.16        434.0222
961.55        422.3629
961.94        414.9979
962.33        413.7179
962.72        415.6671
963.11        418.6155
963.49        419.3206
963.88         416.635
964.27        412.2246
964.66        405.9507
965.04         397.231
965.43        386.7325
965.82        374.7964
966.21         364.067
966.60        358.9493
966.98         360.006
967.37        365.5346
967.76         372.555
968.15        376.0481
968.53        374.5887
968.92         369.958
969.31        362.7826
969.69        354.2963
970.08        345.4323
970.47        335.4803
970.86        327.1663
971.24        324.9079
971.63        329.0966
972.02        338.6755
972.40        348.2898
972.79        349.1347
973.17        339.4837
973.56        321.8895
973.95         302.635
974.33         291.994
974.72        292.3931
975.11         300.625
975.49        311.0869
975.88        314.7244
976.26        309.2404
976.65         297.804
977.04        284.5209
977.42        275.8251
977.81        273.5284
978.19        275.1436
978.58        278.4371
978.96        280.1343
979.35        278.9216
979.74        275.9147
980.12        271.3947
980.51        265.5645
980.89        258.9182
981.28        251.5916
981.66        244.1547
982.05        237.6983
982.43        232.6269
982.82        228.6885
983.20        226.4295
983.59        226.4917
983.97        228.6165
984.35        232.4919
984.74        235.9433
985.12        235.5785
985.51         230.755
985.89        222.3108
986.28        213.0786
986.66        207.7273
987.04        207.3927
987.43        210.8743
987.81        215.3983
988.20        216.3887
988.58        212.8419
988.96        206.3171
989.35        199.4926
989.73        196.6321
990.12         198.586
990.50        203.5081
990.88        209.0784
991.27        211.7381
991.65        210.3916
992.03        206.3367
992.42        200.3225
992.80        193.5102
993.18        186.6811
993.56        179.5558
993.95        173.2162
994.33        169.4382
994.71        168.4211
995.10        169.7435
995.48        171.7975
995.86        171.7762
996.24        169.0068
996.63        164.3427
997.01        158.8888
997.39        154.5568
997.77        151.9252
998.15        150.2061
998.54         149.247
998.92        148.8618
999.30        148.7254
999.68        148.9509
1000.06         148.583
1000.45        146.0203
1000.83        141.0963
1001.21        134.3395
1001.59        127.2548
1001.97         122.304
1002.35        120.1544
1002.73        120.1944
1003.12        121.2771
1003.50        121.4771
1003.88        120.1972
1004.26        117.9335
1004.64        115.4135
1005.02        113.8025
1005.40        113.3461
1005.78        113.5517
1006.16        113.6308
1006.54        112.4252
1006.92        109.7296
1007.30        106.0354
1007.69        102.1961
1008.07        99.53343
1008.45        98.36363
1008.83        98.20545
1009.21        98.47294
1009.59        98.21134
1009.97        97.12396
1010.35        95.60029
1010.73        93.71516
1011.11        91.56895
1011.49        89.33134
1011.86        86.93316
1012.24        84.88214
1012.62        84.04301
1013.00        84.47065
1013.38         85.8405
1013.76        87.35051
1014.14        87.64932
1014.52        86.45663
1014.90        84.30079
1015.28         81.6667
1015.66        79.39233
1016.04         77.7687
1016.41        76.35853
1016.79        75.47541
1017.17        75.65435
1017.55        76.73695
1017.93        78.54636
1018.31        79.74445
1018.69         78.1447
1019.06         73.4994
1019.44         66.6976
1019.82        59.58758
1020.20        55.10941
1020.58        54.15952
1020.95        56.01952
1021.33        59.62496
1021.71        63.17228
1022.09        65.93307
1022.46        68.19097
1022.84        70.21667
1023.22        72.51459
1023.60        75.00154
1023.97        77.13013
1024.35        78.20782
1024.73        77.30579
