SpectraSmart Spectrum 2.9.0.0
--------- Device Information -----------
Spectrum Name :  反射率_0
Saving Time :  2024/04/27 00:19:36
Spectro-Module Model Name : SE2030-DUVN
Spectro-Module Serial Number : OS361AC55029948
Wavelength Start : 200
Wavelength End : 1025
Wavelength Unit : Wavelength(nm)
Spectrum Unit : Reflectance(%)
-----------Spectrum Setting ------------
Integration Time : 20ms
Average : 10
Boxcar : 0
Background removal :  enabled
linearity correction :  enabled
SC :  disabled
Intensity correction :  disabled
DWT denoise :  enabled
savitzky-golay :  disabled
FFT :  disabled
Running average :  disabled
Kalman :  disabled
High pass :  disabled
---------------BEGIN--------------------
Wavelength(nm)             Reflectance(%)
200.29               0
200.75        33.49763
201.21        34.81276
201.67        36.07695
202.13        36.09722
202.58        34.55149
203.04        32.16115
203.50        28.82973
203.96        24.78734
204.42        20.76081
204.88        16.62111
205.34        13.80764
205.80        14.33178
206.26        17.89502
206.72        23.46213
207.18        28.09309
207.64        29.23168
208.10        26.84923
208.55        20.87083
209.01        12.57307
209.47        10.85431
209.93        18.60777
210.39        29.12863
210.85        37.46935
211.31        42.84682
211.77        46.95374
212.23        51.92606
212.69        61.11696
213.14        76.06406
213.60        73.41037
214.06        61.76894
214.52        53.44548
214.98        47.87447
215.44        42.95929
215.90        37.71277
216.36        33.41412
216.81        32.25137
217.27        35.52976
217.73        44.51435
218.19        57.95185
218.65        64.55125
219.11        59.40633
219.57        49.47823
220.02        43.35359
220.48        46.25477
220.94        58.32095
221.40        81.27538
221.86        114.4475
222.32        136.2163
222.77        127.9608
223.23        104.1248
223.69         81.2332
224.15        68.65765
224.61        64.54901
225.06        64.20835
225.52        65.81174
225.98        67.51394
226.44        68.90587
226.90        70.72553
227.36        72.73046
227.81        74.11275
228.27        74.79353
228.73        74.66309
229.19        74.33207
229.65        74.69516
230.10        75.78412
230.56        77.41251
231.02        78.86298
231.48        79.02776
231.93        77.75783
232.39        75.91291
232.85        74.19209
233.31        73.57463
233.77        74.12632
234.22        75.44394
234.68        77.07643
235.14        78.43518
235.60        79.26363
236.05        79.79608
236.51        79.73936
236.97         78.7369
237.43         76.7696
237.88        73.97691
238.34        70.93604
238.80         68.8416
239.26        68.05016
239.71         68.8537
240.17        70.57293
240.63        71.81616
241.08         71.8051
241.54        70.23801
242.00        68.37585
242.46        68.74609
242.91        73.03289
243.37        81.41123
243.83        93.73117
244.28        102.7197
244.74        98.70971
245.20        83.66629
245.66        65.95625
246.11        51.20502
246.57        39.75129
247.03        29.36968
247.48         22.1888
247.94        22.34245
248.40         28.2321
248.85        36.06793
249.31        42.39713
249.77        44.83174
250.22        43.56629
250.68        38.90359
251.14        32.39011
251.59        29.81991
252.05        34.36509
252.51        43.48083
252.96        51.43847
253.42        53.44709
253.88         50.4347
254.33        44.74696
254.79        40.92205
255.25        42.80715
255.70        49.91252
256.16        60.39803
256.62        69.62192
257.07         70.6631
257.53        65.16112
257.99        57.60248
258.44        51.52982
258.90         49.8341
259.35        51.29132
259.81        54.51966
260.27        57.73027
260.72        58.76048
261.18        57.75871
261.63        55.59129
262.09        53.58229
262.55        52.61087
263.00        52.59921
263.46        53.20347
263.91         53.7561
264.37        53.73995
264.83        53.06874
265.28          51.994
265.74        51.05089
266.19        50.58033
266.65        50.69818
267.11        51.14936
267.56         51.6593
268.02        51.80872
268.47        51.47932
268.93        50.84407
269.38        50.04241
269.84        49.35069
270.30        48.82537
270.75        48.35769
271.21        47.93893
271.66         47.4968
272.12        47.01241
272.57        46.49686
273.03        45.91391
273.48        45.17629
273.94        44.34515
274.39        43.42067
274.85        42.55813
275.31        41.81635
275.76        41.18498
276.22        40.68494
276.67        40.23636
277.13        39.83479
277.58        39.40285
278.04        38.96872
278.49        38.47079
278.95        37.95636
279.40         37.3737
279.86        36.79883
280.31        36.15771
280.77        35.46955
281.22        34.71364
281.68          33.984
282.13        33.31939
282.59         32.8713
283.04        32.60543
283.50        32.47913
283.95        32.40351
284.41         32.2625
284.86        32.00723
285.32        31.69714
285.77        31.31469
286.22        30.90053
286.68        30.47482
287.13         29.9997
287.59        29.53299
288.04        29.11884
288.50        28.79336
288.95         28.5162
289.41        28.26779
289.86        27.94303
290.32        27.56074
290.77        27.13988
291.22        26.73688
291.68        26.41881
292.13        26.19254
292.59        26.04937
293.04        25.97858
293.50        25.98904
293.95        26.06174
294.40        26.19387
294.86        26.35871
295.31        26.50328
295.77        26.62408
296.22        26.73172
296.68        26.84776
297.13        26.99259
297.58        27.18468
298.04           27.42
298.49        27.71199
298.95        28.09773
299.40        28.56171
299.85        29.07991
300.31         29.6006
300.76        30.03788
301.21        30.36901
301.67        30.62589
302.12        30.80971
302.58        30.98024
303.03        31.13706
303.48        31.29204
303.94        31.46225
304.39        31.64292
304.84        31.84257
305.30        32.06664
305.75        32.29439
306.20        32.54161
306.66        32.80664
307.11        33.06657
307.57        33.28925
308.02        33.38465
308.47        33.35565
308.93        33.23771
309.38         33.0925
309.83        33.06121
310.29        33.16768
310.74         33.3618
311.19         33.5591
311.65        33.61473
312.10        33.48979
312.55        33.23649
313.00        32.93324
313.46        32.69356
313.91        32.53931
314.36        32.44666
314.82        32.37621
315.27        32.27658
315.72        32.12881
316.18        31.95872
316.63        31.78727
317.08        31.65797
317.53        31.57514
317.99        31.51473
318.44        31.44184
318.89         31.2931
319.35        31.05724
319.80        30.75731
320.25        30.43964
320.70        30.17723
321.16        29.98957
321.61        29.86943
322.06        29.78008
322.51        29.66202
322.97        29.49366
323.42        29.29272
323.87        29.09835
324.32        28.97975
324.78        28.93691
325.23        28.95976
325.68        28.96131
326.13        28.80789
326.59        28.47484
327.04        28.02245
327.49        27.55563
327.94        27.23833
328.39        27.10942
328.85        27.11277
329.30        27.19724
329.75        27.21429
330.20        27.11366
330.66        26.92816
331.11        26.71793
331.56        26.55819
332.01        26.47088
332.46        26.42371
332.92        26.36155
333.37        26.24207
333.82        26.03855
334.27        25.78016
334.72         25.5189
335.17        25.33115
335.63        25.23996
336.08        25.24446
336.53          25.298
336.98        25.33204
337.43         25.3218
337.88        25.26895
338.34        25.22002
338.79        25.28153
339.24        25.45677
339.69        25.71393
340.14        25.92922
340.59        25.90921
341.05        25.63485
341.50        25.17642
341.95        24.70859
342.40        24.49615
342.85        24.59713
343.30        24.92661
343.75        25.34276
344.20        25.61026
344.66        25.65866
345.11        25.55624
345.56        25.37895
346.01        25.24895
346.46        25.20957
346.91        25.21908
347.36        25.25213
347.81        25.27869
348.26        25.28614
348.72        25.29046
349.17        25.30011
349.62        25.33219
350.07        25.38789
350.52        25.46193
350.97        25.51415
351.42        25.48607
351.87        25.37033
352.32        25.18305
352.77        24.99625
353.22        24.91553
353.67          24.957
354.13        25.09319
354.58        25.23119
355.03        25.21874
355.48        25.02511
355.93        24.70336
356.38        24.36773
356.83        24.18771
357.28        24.19678
357.73        24.33892
358.18        24.51235
358.63         24.5521
359.08         24.4139
359.53        24.15066
359.98        23.84484
360.43         23.6176
360.88        23.49605
361.33        23.43802
361.78        23.38555
362.23        23.25033
362.68        23.01755
363.13        22.73173
363.58        22.44399
364.03        22.22559
364.48         22.0957
364.93        22.02614
365.38         21.9983
365.83        21.98459
366.28        21.96639
366.73         21.9464
367.18        21.90401
367.63        21.80793
368.08         21.6532
368.53        21.44618
368.98        21.21254
369.43        20.99568
369.88        20.81179
370.33        20.65855
370.78        20.52529
371.23        20.39051
371.68        20.25204
372.13        20.11959
372.58        20.01364
373.03        19.96415
373.48        19.96878
373.93        20.00497
374.38        20.03614
374.83         20.0082
375.28        19.90646
375.72        19.74461
376.17        19.55225
376.62        19.34986
377.07        19.15261
377.52        18.95843
377.97        18.78706
378.42        18.67245
378.87        18.61767
379.32        18.60907
379.77         18.6195
380.22        18.60408
380.67        18.54956
381.11        18.47515
381.56        18.37006
382.01        18.24254
382.46        18.10816
382.91        17.97034
383.36        17.86286
383.81        17.83304
384.26        17.87959
384.71        17.98243
385.15        18.09417
385.60        18.13656
386.05        18.08616
386.50        17.96828
386.95        17.81021
387.40          17.658
387.85        17.53193
388.29        17.41082
388.74        17.32153
389.19        17.25988
389.64        17.21977
390.09        17.19785
390.54        17.17686
390.98        17.12191
391.43        17.03842
391.88        16.93761
392.33        16.83131
392.78        16.73677
393.23        16.66011
393.67        16.58681
394.12        16.54017
394.57        16.52227
395.02        16.52802
395.47        16.54697
395.91        16.56166
396.36        16.53201
396.81        16.46101
397.26         16.3675
397.71        16.26018
398.15         16.1622
398.60        16.10136
399.05         16.0029
399.50          15.901
399.95        15.96209
400.39        16.13476
400.84        16.12457
401.29        15.92823
401.74        15.79224
402.18        15.73006
402.63        15.58824
403.08        15.41042
403.53        15.33458
403.97        15.37478
404.42        15.49288
404.87        15.63187
405.32        15.69692
405.76        15.66141
406.21        15.56075
406.66        15.44385
407.11         15.3901
407.55        15.42221
408.00        15.50596
408.45        15.60051
408.90        15.62709
409.34        15.56406
409.79        15.44667
410.24        15.31584
410.68         15.2208
411.13        15.17986
411.58         15.1744
412.03        15.19188
412.47        15.21365
412.92        15.22388
413.37        15.23218
413.81        15.23509
414.26        15.23973
414.71        15.24297
415.15        15.24719
415.60        15.24458
416.05        15.23755
416.49        15.22964
416.94        15.21939
417.39        15.21791
417.83        15.24061
418.28        15.28634
418.73        15.34522
419.17        15.40152
419.62         15.4305
420.07        15.42511
420.51        15.39023
420.96        15.33388
421.41        15.26572
421.85        15.18868
422.30        15.10014
422.74        15.00582
423.19        14.98146
423.64        15.00564
424.08         14.9824
424.53        14.91346
424.98        14.91745
425.42        15.00663
425.87        15.07684
426.31        15.11149
426.76        15.19772
427.21        15.28466
427.65        15.16453
428.10        14.91818
428.54        14.82783
428.99        14.92391
429.44        15.12093
429.88        15.32436
430.33        15.32793
430.77        15.16071
431.22        15.13134
431.66        15.25829
432.11        15.30772
432.56        15.28761
433.00        15.39438
433.45        15.53123
433.89        15.41572
434.34        15.14819
434.78         14.6872
435.23        14.90456
435.67        14.88937
436.12        14.86252
436.57        14.84482
437.01        14.84134
437.46        14.86712
437.90        14.90709
438.35        14.91508
438.79        14.88534
439.24        14.86031
439.68        14.84439
440.13        14.82359
440.57        14.80288
441.02        14.80991
441.46         14.8445
441.91        14.85741
442.35        14.84405
442.80        14.94571
443.24        15.09562
443.69        15.04288
444.13         14.8239
444.58        14.73267
445.02        14.78543
445.47        14.82953
445.91        14.84815
446.36        14.88797
446.80        14.93861
447.24        14.98654
447.69        15.03143
448.13        15.06513
448.58        15.08882
449.02         15.1032
449.47        15.10568
449.91        15.08536
450.36        15.04893
450.80        14.99917
451.25         14.9597
451.69        14.95719
452.13        14.99653
452.58        15.06419
453.02        15.13688
453.47        15.17881
453.91        15.17967
454.36        15.15415
454.80        15.10569
455.24        15.03973
455.69        14.96915
456.13        14.88326
456.58        14.81824
457.02        14.80435
457.46        14.85015
457.91         14.9439
458.35         15.0348
458.79        15.04405
459.24        14.97174
459.68        14.83651
460.13        14.70599
460.57        14.64318
461.01        14.67456
461.46         14.7634
461.90        14.88697
462.34        14.99405
462.79        15.05805
463.23        15.09784
463.68        15.09897
464.12        15.04834
464.56        14.95107
465.01        14.83552
465.45        14.71251
465.89        14.63819
466.34        14.61969
466.78        14.63836
467.22        14.68866
467.67         14.7433
468.11        14.79828
468.55        14.85455
468.99        14.89792
469.44        14.90494
469.88        14.87436
470.32        14.80855
470.77        14.73995
471.21        14.72571
471.65        14.77569
472.10        14.87754
472.54        14.98682
472.98        15.03805
473.42         15.0175
473.87        14.95068
474.31        14.87072
474.75         14.8433
475.20        14.88467
475.64        14.96585
476.08        15.05652
476.52         15.1027
476.97        15.09226
477.41        15.05222
477.85        15.01015
478.29        14.98744
478.74        15.00774
479.18        15.09467
479.62        15.21794
480.06        15.30746
480.50        15.35002
480.95         15.3527
481.39        15.31964
481.83        15.40359
482.27        15.38898
482.72        15.46405
483.16        15.54451
483.60        15.58311
484.04        15.55837
484.48        15.54228
484.93        15.65958
485.37        15.64693
485.81        15.90249
486.25        16.39335
486.69        16.11929
487.14        15.84297
487.58        16.66508
488.02        16.51996
488.46        16.40965
488.90        16.57466
489.34         16.3389
489.79        16.53407
490.23        16.79307
490.67        16.98616
491.11        17.05611
491.55        17.02868
491.99        16.96617
492.43         16.9911
492.88        17.12591
493.32        17.28749
493.76        17.43631
494.20        17.56423
494.64        17.66532
495.08        17.70601
495.52        17.71484
495.96         17.8561
496.41        18.10206
496.85        18.16237
497.29        18.05979
497.73        18.25662
498.17        18.48087
498.61        18.62007
499.05        18.59058
499.49        18.60725
499.93        18.64629
500.37        18.79544
500.82        19.00961
501.26        19.16496
501.70        19.24349
502.14        19.32027
502.58        19.42108
503.02        19.54608
503.46         19.6987
503.90        19.87837
504.34        20.04274
504.78        20.12294
505.22        20.10749
505.66        20.01802
506.10        19.91689
506.54        19.90349
506.98        19.99975
507.42        20.17601
507.86        20.37402
508.30        20.49638
508.74        20.51743
509.18        20.46964
509.62         20.3967
510.06        20.36902
510.50        20.40722
510.94        20.48536
511.38        20.58323
511.82        20.66975
512.26        20.73323
512.70        20.78811
513.14        20.83197
513.58        20.85819
514.02        20.86905
514.46        20.86266
514.90        20.85831
515.34        20.88998
515.78        20.96164
516.22        21.06164
516.66         21.1608
517.10        21.21114
517.54        21.20193
517.98        21.14968
518.42        21.07764
518.86        21.02379
519.30        21.00051
519.74        20.99592
520.18        21.00435
520.62        21.01606
521.06         21.0267
521.50        21.04295
521.93        21.05857
522.37        21.05367
522.81        21.02903
523.25        20.98607
523.69         20.9423
524.13        20.92749
524.57        20.94354
525.01         20.9766
525.45        21.00285
525.89        20.98374
526.32        20.90934
526.76        20.80249
527.20        20.67638
527.64        20.55292
528.08        20.44404
528.52        20.34475
528.96        20.27039
529.40        20.24382
529.83        20.26373
530.27        20.32342
530.71        20.38771
531.15        20.40124
531.59        20.35093
532.03        20.24973
532.46        20.12714
532.90        20.04628
533.34        20.01878
533.78        20.01729
534.22        20.01694
534.66        20.00359
535.09        19.95565
535.53        19.84245
535.97        19.69882
536.41        19.62916
536.85        19.64639
537.28        19.69941
537.72         19.7683
538.16        19.83578
538.60        19.88953
539.04        19.93723
539.47        19.96975
539.91        19.98588
540.35        19.98552
540.79        19.97029
541.22        19.96363
541.66        20.01101
542.10        20.11662
542.54        20.26795
542.97        20.42963
543.41        20.55295
543.85        20.62483
544.29        20.66472
544.72        20.69643
545.16        20.77176
545.60        20.89888
546.04        21.06348
546.47          21.254
546.91        21.44695
547.35        21.62879
547.79        21.80653
548.22        21.97232
548.66        22.10943
549.10        22.24411
549.53         22.3688
549.97        22.49651
550.41        22.59847
550.84        22.70212
551.28        22.86595
551.72        23.06017
552.15        23.25416
552.59        23.46801
553.03        23.36613
553.46        23.66041
553.90        23.75406
554.34        23.85638
554.77        23.96146
555.21        24.08048
555.65        24.21059
556.08        24.34017
556.52        24.45881
556.96        24.55169
557.39        24.66275
557.83        24.77251
558.27        24.74346
558.70        24.62335
559.14        24.63745
559.57        24.78367
560.01        24.92416
560.45        25.03069
560.88        25.13627
561.32         25.2411
561.75        25.32174
562.19         25.3928
562.63        25.43748
563.06        25.45045
563.50        25.57153
563.93         25.5513
564.37        25.63127
564.80        25.75271
565.24         25.8468
565.68        25.85098
566.11        26.23416
566.55        26.05337
566.98          26.096
567.42        26.13651
567.85        26.23203
568.29        26.39799
568.72        26.62922
569.16         26.9154
569.60        27.11272
570.03        27.31529
570.47        27.46776
570.90        27.58698
571.34        27.71145
571.77        27.88977
572.21        28.00888
572.64        28.04773
573.08        28.38456
573.51        28.40523
573.95        28.56907
574.38        28.72944
574.82        28.86965
575.25        28.68607
575.69        28.81838
576.12        28.92914
576.56         28.9472
576.99        29.12853
577.42        28.87049
577.86        28.93423
578.29        29.45831
578.73        29.06939
579.16        28.97429
579.60         28.6971
580.03        28.74663
580.47        28.76237
580.90        28.77936
581.33        28.95094
581.77        28.97188
582.20        28.80607
582.64        28.62114
583.07        28.26356
583.51        28.09119
583.94        28.15001
584.37         28.1431
584.81        27.99864
585.24        27.86058
585.68        27.67741
586.11        27.37065
586.54        27.39554
586.98        27.29107
587.41        27.35503
587.85         27.2756
588.28        27.12983
588.71        27.13808
589.15        27.12899
589.58        27.13946
590.01        27.16085
590.45        27.14197
590.88        27.09125
591.31        26.99981
591.75        26.94631
592.18        26.86878
592.61        26.76238
593.05        27.40051
593.48        27.55158
593.91        27.49407
594.35        27.32115
594.78        27.18657
595.21        27.24351
595.65        27.49091
596.08        27.97067
596.51        27.96308
596.94        28.03321
597.38        28.16223
597.81        28.53086
598.24        28.78873
598.68        28.97176
599.11        29.23655
599.54        29.78957
599.97        29.63219
600.41        30.17583
600.84        30.20902
601.27        30.59277
601.70        30.74689
602.14         31.0618
602.57         31.4048
603.00        31.91352
603.43        32.02427
603.87        32.92543
604.30         33.3463
604.73        33.66883
605.16        33.71996
605.60        33.99002
606.03        34.14872
606.46        34.29765
606.89        35.02905
607.32        35.46287
607.76        35.95649
608.19        36.32526
608.62        36.58704
609.05        36.85936
609.48        37.22688
609.92        38.11664
610.35        38.29319
610.78        38.16255
611.21        38.15332
611.64        38.78852
612.07        39.29188
612.50        39.51466
612.94        39.81935
613.37        40.12677
613.80        40.16875
614.23        40.05188
614.66        40.25817
615.09        40.78538
615.52        41.14643
615.96        41.27142
616.39        41.55372
616.82        42.03202
617.25        41.83012
617.68        42.08608
618.11        42.39923
618.54        42.91246
618.97        43.16687
619.40         43.1308
619.84        43.37356
620.27        43.48848
620.70        43.69944
621.13        43.83537
621.56        43.66769
621.99        43.28447
622.42        43.31721
622.85        43.78045
623.28        43.80704
623.71        43.60639
624.14        44.04569
624.57        44.23679
625.00         43.9497
625.43        44.16151
625.86        44.04355
626.29         44.0436
626.72        43.54181
627.15        43.70127
627.58        43.59847
628.01        43.50783
628.44        43.30027
628.87        42.99541
629.30        42.68656
629.73        42.41888
630.16        42.26501
630.59        42.19677
631.02        42.07338
631.45        41.85933
631.88        41.62123
632.31        41.34466
632.74        40.95673
633.17        40.48636
633.60         40.0309
634.03        39.61363
634.46        39.21057
634.89        38.80576
635.32        38.38186
635.75        37.93842
636.18        37.44865
636.61        36.95908
637.04        36.55841
637.47        36.25523
637.89        36.01694
638.32        35.77805
638.75        35.46972
639.18        35.07797
639.61         34.6319
640.04        34.19032
640.47         33.8405
640.90        33.60395
641.33        33.45738
641.76        33.35917
642.18        33.24509
642.61        33.08696
643.04        32.90915
643.47         32.7485
643.90         32.6618
644.33        32.66114
644.76        32.72741
645.18         32.8192
645.61        32.86423
646.04        32.85135
646.47        32.80609
646.90        32.78356
647.33        32.86188
647.75         33.0505
648.18        33.36539
648.61        33.76699
649.04        34.06438
649.47        34.20813
649.89        34.75175
650.32        34.81886
650.75        35.20075
651.18        35.63166
651.61        36.12938
652.03        36.65807
652.46        37.11038
652.89        37.51746
653.32        37.91381
653.74         38.3483
654.17        38.77976
654.60        39.41391
655.03        39.55014
655.46        39.73697
655.88        40.54577
656.31         42.7517
656.74        44.60884
657.16        44.19493
657.59        44.18728
658.02        43.15771
658.45        43.78838
658.87        43.68129
659.30        43.54321
659.73        43.87253
660.15        44.66926
660.58        44.64836
661.01        44.88891
661.44         45.0207
661.86        45.14224
662.29        45.25149
662.72        45.87178
663.14        46.09745
663.57        46.38498
664.00        46.51188
664.42        46.77693
664.85        47.19546
665.27        47.60061
665.70        47.90965
666.13        48.11628
666.55        48.21399
666.98        48.15858
667.41        48.01385
667.83        48.19653
668.26        48.23319
668.69        48.49874
669.11        48.80602
669.54         49.0686
669.96        49.25738
670.39        49.45852
670.82        49.67494
671.24        49.73067
671.67        49.70223
672.09        49.92787
672.52        50.35376
672.94        50.57174
673.37        50.56702
673.80        50.55689
674.22        50.60359
674.65        50.68273
675.07        50.82507
675.50        51.02494
675.92        51.24574
676.35        51.41964
676.77         51.5317
677.20        51.59572
677.62        51.65218
678.05        51.76527
678.47        51.94754
678.90        52.18306
679.32        52.41975
679.75        52.58743
680.17        52.66262
680.60        52.66642
681.02        52.66091
681.45        52.71847
681.87        52.86393
682.30        53.13199
682.72        53.45024
683.15        53.50848
683.57        53.36389
684.00        53.40595
684.42        53.65594
684.85        53.84038
685.27        53.95192
685.70        54.16889
686.12        54.44261
686.54        54.62314
686.97        54.68874
687.39        54.68653
687.82        54.65066
688.24        54.65439
688.66        54.72015
689.09        54.82341
689.51        54.95055
689.94         55.0779
690.36        55.20557
690.78        55.26879
691.21        55.31052
691.63        55.53695
692.06        55.88965
692.48         56.0307
692.90        55.96429
693.33        55.99673
693.75         56.1363
694.17        56.16671
694.60         56.1528
695.02        56.28721
695.44        56.55793
695.87        56.95328
696.29        57.34558
696.71        57.26166
697.14        56.81945
697.56        56.71676
697.98        56.97718
698.41        57.13439
698.83        57.19283
699.25         57.3947
699.68        57.60314
700.10        58.08812
700.52        57.79723
700.94        57.63078
701.37         57.4215
701.79         57.4091
702.21          57.633
702.64        58.02009
703.06        58.46606
703.48        58.76996
703.90        58.87655
704.33        58.81676
704.75        58.67695
705.17         58.6529
705.59        58.76218
706.01        58.82253
706.44        58.82453
706.86         58.9148
707.28        59.08416
707.70        59.21753
708.12        59.33021
708.55        59.55716
708.97        59.85235
709.39        59.97742
709.81        59.94251
710.23        59.98425
710.66        60.11413
711.08        60.20821
711.50        60.23643
711.92        60.23534
712.34        60.21066
712.76        60.16537
713.19        60.12105
713.61          60.146
714.03         60.2409
714.45        60.39454
714.87        60.59205
715.29        60.80974
715.71        61.03124
716.13        61.24837
716.56        61.42931
716.98        61.60605
717.40        61.74104
717.82           61.83
718.24        61.85358
718.66         61.7849
719.08        61.64309
719.50        61.45969
719.92        61.28957
720.34        61.23198
720.76        61.31399
721.19        61.39773
721.61        61.62309
722.03        61.90878
722.45         62.2718
722.87        62.49039
723.29        62.83064
723.71         62.8368
724.13        62.60269
724.55         62.1822
724.97         61.7336
725.39        61.51514
725.81        61.59158
726.23         61.8701
726.65        62.24479
727.07        62.67878
727.49        62.88388
727.91        63.08359
728.33        63.22538
728.75        63.34013
729.17        63.43673
729.59        63.49316
730.01        63.51483
730.43        63.51945
730.85        63.51514
731.27        63.50433
731.69        63.49153
732.10         63.4936
732.52        63.51439
732.94        63.53149
733.36        63.54441
733.78        63.60461
734.20        63.41919
734.62        63.44732
735.04        63.75606
735.46        63.22251
735.88        63.76332
736.30        63.92045
736.72        64.22311
737.13        64.48872
737.55        64.64409
737.97        64.86131
738.39        65.05282
738.81        64.86934
739.23        64.42315
739.65        64.33665
740.06        64.59477
740.48        64.73424
740.90        64.72445
741.32        64.87409
741.74        65.15873
742.16        65.35793
742.57        65.44272
742.99        65.45889
743.41        65.42526
743.83         65.3544
744.25        65.26504
744.67        65.14632
745.08          65.059
745.50        65.08263
745.92        65.23594
746.34        65.48121
746.75        65.73239
747.17        65.88318
747.59        65.83479
748.01        65.69512
748.42        65.51402
748.84        65.45592
749.26        65.56541
749.68        65.66346
750.09        65.72943
750.51        66.04601
750.93        66.43792
751.35        66.23012
751.76        65.57141
752.18        65.30164
752.60        65.47254
753.01        65.68086
753.43        65.82287
753.85        65.85057
754.27        65.75023
754.68        65.84097
755.10        65.64084
755.52         65.6931
755.93        65.83994
756.35        66.02294
756.77        66.23277
757.18        66.45683
757.60        66.70658
758.02        67.02224
758.43        67.18799
758.85        67.10568
759.26        66.69115
759.68        65.75396
760.10         65.6325
760.51          66.262
760.93        66.89772
761.34        66.90575
761.76        66.87408
762.18        66.81158
762.59        67.07947
763.01        67.42883
763.42         67.8204
763.84        68.02424
764.26        67.98444
764.67        67.69276
765.09        67.30865
765.50        67.10751
765.92        67.17783
766.33        67.15977
766.75        67.04742
767.16        67.39642
767.58        67.15205
768.00        67.00012
768.41        66.78189
768.83        67.05365
769.24        67.65825
769.66        67.86076
770.07        67.64066
770.49        67.36265
770.90         67.1909
771.32        67.44261
771.73        67.99635
772.15        68.17711
772.56        67.96204
772.97        67.65376
773.39        67.41608
773.80        67.55603
774.22        67.99276
774.63         68.2523
775.05         68.2299
775.46        68.28399
775.88        68.37517
776.29        68.28206
776.70        68.07018
777.12        68.01128
777.53        68.14831
777.95        68.35485
778.36         68.5928
778.77        68.72773
779.19        68.73667
779.60        68.78028
780.02        68.81165
780.43        68.61388
780.84         68.3252
781.26         68.1537
781.67        68.21473
782.09        68.84369
782.50        69.74171
782.91        69.75402
783.33        68.96985
783.74         68.6786
784.15        68.94569
784.57        68.98801
784.98        68.82134
785.39        68.83983
785.81        69.05546
786.22        69.35902
786.63        69.66547
787.04        69.88571
787.46        70.00146
787.87        69.93504
788.28        69.74873
788.70        69.90868
789.11        69.73389
789.52        69.88291
789.93        70.06874
790.35        69.92236
790.76        69.52851
791.17        69.45401
791.58        69.73424
792.00        69.81697
792.41        69.69244
792.82         69.9348
793.23        70.35007
793.65        70.00513
794.06        69.24949
794.47        69.30269
794.88        69.85695
795.29        71.33586
795.71        69.98739
796.12         69.8659
796.53        69.97563
796.94        69.65845
797.35        69.12292
797.76        69.52674
798.18        70.65989
798.59        71.21186
799.00        71.05357
799.41        70.48206
799.82        70.38913
800.23         70.1974
800.64        70.19005
801.06        70.29904
801.47        70.49628
801.88        70.64014
802.29        70.66506
802.70        70.59558
803.11         70.4582
803.52        70.30098
803.93        70.18674
804.34        70.13439
804.75         70.1023
805.17        70.21251
805.58        70.54047
805.99        70.41924
806.40        70.06186
806.81        71.31698
807.22        73.50455
807.63        73.13467
808.04        70.59371
808.45        69.52985
808.86        70.20876
809.27        70.60941
809.68        70.50668
810.09        70.50748
810.50        70.56243
810.91        70.51202
811.32        70.48221
811.73        70.65191
812.14        71.04109
812.55        71.65724
812.96        72.30704
813.37        72.48174
813.78        72.14773
814.19        71.74065
814.60        71.39709
815.01        71.05312
815.42        70.76266
815.83        70.62476
816.24        70.64079
816.65        70.72404
817.05         70.8568
817.46        71.04533
817.87        71.25031
818.28        71.35269
818.69        71.33135
819.10        71.19104
819.51        71.03025
819.92        71.04291
820.33        71.26856
820.74        71.63914
821.14        72.02116
821.55        72.19365
821.96        72.10783
822.37         71.8405
822.78        71.49631
823.19        71.25228
823.60        71.17339
824.00        71.23026
824.41         71.3436
824.82         71.4903
825.23        71.63015
825.64        71.77177
826.04        71.88608
826.45         71.8793
826.86         71.7552
827.27        71.54899
827.68        71.29338
828.08        71.07941
828.49        70.89477
828.90        70.73825
829.31        70.68083
829.72        70.83298
830.12        71.22033
830.53        71.75307
830.94        72.25533
831.35        72.37358
831.75        72.04799
832.16        71.36713
832.57         70.5943
832.97         70.1348
833.38        70.09618
833.79        70.33056
834.20        70.72267
834.60        71.08155
835.01        71.33578
835.42        71.60223
835.82        71.80862
836.23        71.74312
836.64        71.42346
837.04        70.85854
837.45        70.37479
837.86        70.57712
838.26        71.58606
838.67        73.18836
839.08        74.82034
839.48        75.41734
839.89        74.70676
840.29        73.07023
840.70        71.27436
841.11        70.23259
841.51         70.1797
841.92        70.81946
842.33        71.84576
842.73        72.70644
843.14         73.0718
843.54        73.16961
843.95        73.11263
844.35        73.12986
844.76        73.27038
845.17         73.4236
845.57        73.52695
845.98        73.48048
846.38        73.28928
846.79         73.0075
847.19        72.71336
847.60        72.49025
848.00        72.37713
848.41        72.31638
848.81         72.3153
849.22        72.29877
849.62        72.28528
850.03        72.28983
850.43        72.29066
850.84        72.17814
851.24        71.98817
851.65        71.67566
852.05        71.46255
852.46        71.61697
852.86        72.17289
853.27        73.01416
853.67        73.78567
854.07        74.12563
854.48        73.94716
854.88        73.38603
855.29        72.62791
855.69        72.16006
856.10        72.06825
856.50        72.29897
856.90        72.64137
857.31        72.75921
857.71        72.60737
858.12        72.23035
858.52        71.80311
858.92         71.4908
859.33        71.33611
859.73        71.31964
860.13        71.32681
860.54        71.19965
860.94        70.94637
861.34        70.62073
861.75        70.31126
862.15        70.19678
862.55        70.29687
862.96        70.50681
863.36        70.80492
863.76        71.07208
864.17        71.23569
864.57        71.34869
864.97         71.3183
865.38        71.01103
865.78        70.46095
866.18        69.71844
866.58        68.98457
866.99        68.61872
867.39         68.7505
867.79        69.26972
868.19        70.00465
868.60        70.66058
869.00        71.16858
869.40        71.56866
869.80        71.86855
870.21        72.08358
870.61        72.27014
871.01        72.34193
871.41        72.25787
871.81          71.979
872.22        71.51408
872.62        70.90228
873.02        70.29204
873.42        69.91691
873.82        69.84804
874.22        70.03423
874.63        70.31785
875.03        70.45358
875.43        70.36088
875.83        70.10981
876.23        69.83216
876.63        69.73511
877.03        69.87158
877.44        70.14868
877.84        70.46626
878.24        70.66618
878.64        70.65307
879.04        70.34484
879.44        69.93977
879.84        69.83215
880.24        70.05639
880.64        70.46616
881.04        70.76356
881.44        70.48633
881.84        69.57432
882.24        68.23612
882.65        66.89403
883.05        66.18499
883.45        66.27349
883.85        66.97043
884.25        67.99601
884.65        68.85733
885.05        69.35708
885.45        69.61134
885.85        69.69694
886.25        69.74509
886.65        69.80975
887.05        69.82485
887.45        69.78515
887.85        69.71407
888.25        69.61967
888.65        69.52074
889.04        69.43349
889.44        69.39238
889.84        69.38301
890.24        69.39365
890.64        69.37836
891.04         69.2659
891.44        69.05078
891.84        68.77435
892.24        68.49014
892.64        68.26669
893.04        68.14366
893.44        68.13282
893.83        68.25661
894.23        68.49104
894.63        68.83601
895.03         69.2466
895.43        69.73383
895.83        70.32526
896.23        70.96751
896.63        71.59844
897.02         72.0165
897.42        71.94502
897.82        71.36477
898.22        70.43288
898.62         69.3938
899.01         68.6005
899.41        68.17977
899.81         68.0225
900.21        68.10722
900.61          68.379
901.00        68.77439
901.40         69.3057
901.80        69.79726
902.20        69.95765
902.59         69.7505
902.99        69.23659
903.39        68.65555
903.79        68.42005
904.18        68.61214
904.58        69.09178
904.98         69.6842
905.38        70.12885
905.77        70.34565
906.17        70.44367
906.57         70.3904
906.96        70.13603
907.36        69.69905
907.76        69.10435
908.15        68.59571
908.55        68.54131
908.95        69.00856
909.34        69.90363
909.74        70.86722
910.14        71.38049
910.53        71.27614
910.93         70.7309
911.33        69.96937
911.72        69.33634
912.12        69.01423
912.52        68.90334
912.91        68.93952
913.31        69.05204
913.70        69.20479
914.10        69.39277
914.49        69.69528
914.89        70.13779
915.29         70.7126
915.68        71.37951
916.08        71.87913
916.47        71.87848
916.87        71.35052
917.26        70.40826
917.66         69.4429
918.05        68.88847
918.45        68.85547
918.84        69.26938
919.24        69.85963
919.64        70.27637
920.03        70.40654
920.42        70.30774
920.82        70.18767
921.21        70.32064
921.61        70.73769
922.00        71.36127
922.40        71.92503
922.79        72.13195
923.19        71.87804
923.58        71.32562
923.98        70.69433
924.37        70.22514
924.77        70.01238
925.16         69.9371
925.55         70.0035
925.95        70.19262
926.34        70.47527
926.74        70.83713
927.13        71.09001
927.52        70.86547
927.92        70.17723
928.31        69.14079
928.70        68.10706
929.10        67.58549
929.49        67.68141
929.89        68.20248
930.28        69.01358
930.67        69.74682
931.07        70.21684
931.46        70.58593
931.85        70.73846
932.24        70.54793
932.64        70.07885
933.03        69.33057
933.42        68.64142
933.82        68.50406
934.21        69.00568
934.60        70.06248
934.99        71.29613
935.39        72.00356
935.78        72.01842
936.17        71.42628
936.56        70.60727
936.96        70.16634
937.35        70.24555
937.74        70.66611
938.13        71.03448
938.53        70.75961
938.92        69.76027
939.31        68.31814
939.70        66.88864
940.09        66.09438
940.49        66.04731
940.88        66.58411
941.27         67.4495
941.66        68.16415
942.05         68.5426
942.44        68.73306
942.84        68.82898
943.23        68.97017
943.62        69.21643
944.01        69.45692
944.40        69.72766
944.79        70.13501
945.18        70.65343
945.57        71.23531
945.97        71.65536
946.36        71.63154
946.75        71.07576
947.14         70.1636
947.53        69.11227
947.92         68.2141
948.31        67.57764
948.70        67.14134
949.09        66.96458
949.48        67.13476
949.87         67.6328
950.26        68.42471
950.65        69.30176
951.04        69.90997
951.43        70.13036
951.82        70.00751
952.21         69.6855
952.60        69.43368
952.99        69.35316
953.38        69.40316
953.77        69.49126
954.16        69.47443
954.55        69.30898
954.94        69.00528
955.33        68.73879
955.72        68.79498
956.11         69.2204
956.50        69.95348
956.89        70.57222
957.28        70.37726
957.66        69.26103
958.05        67.53142
958.44        65.84111
958.83        65.12049
959.22        65.53738
959.61        66.81693
960.00        68.41387
960.39        69.30439
960.78        69.13673
961.16        68.20521
961.55        67.01131
961.94        66.19643
962.33        65.95006
962.72          66.115
963.11        66.45537
963.49        66.58463
963.88         66.3123
964.27        65.79932
964.66        65.42209
965.04        65.74102
965.43        66.78965
965.82        68.43658
966.21        70.06927
966.60        70.51727
966.98        69.45645
967.37        67.38678
967.76        65.18106
968.15         63.9338
968.53        63.86479
968.92        64.69328
969.31        65.94559
969.69        66.67338
970.08        66.47005
970.47        65.67165
970.86        64.83939
971.24        64.75793
971.63        65.59295
972.02        67.09623
972.40        68.77863
972.79        69.43666
973.17        68.78912
973.56          67.271
973.95        65.58754
974.33        64.63413
974.72        64.60529
975.11        65.20582
975.49        66.13705
975.88        66.74837
976.26        66.84119
976.65        66.58578
977.04        66.13728
977.42        65.68393
977.81        65.28475
978.19        64.85353
978.58        64.56179
978.96        64.67125
979.35        65.18211
979.74        66.05157
980.12        67.07539
980.51        67.61709
980.89        67.64121
981.28        67.31953
981.66        66.91322
982.05        66.79327
982.43        67.07608
982.82        67.57833
983.20        68.44553
983.59        69.81013
983.97        71.65807
984.35        73.87842
984.74        75.73249
985.12        76.23853
985.51        75.14841
985.89        72.83887
986.28        70.23447
986.66        68.64994
987.04        68.47556
987.43        69.31635
987.81        70.72504
988.20        71.64888
988.58         71.7081
988.96        71.17054
989.35        70.25727
989.73        69.24596
990.12        68.24705
990.50        67.17431
990.88        66.07106
991.27        65.13102
991.65        64.46507
992.03        64.09149
992.42        64.06102
992.80        64.35391
993.18        64.95723
993.56        65.85673
993.95        66.76704
994.33        67.37358
994.71        67.43106
995.10         67.0687
995.48        66.51051
995.86        66.22422
996.24        66.30753
996.63        66.48865
997.01        66.77283
997.39        66.81409
997.77        66.51641
998.15        66.17337
998.54        65.70083
998.92        64.80968
999.30        63.61909
999.68        62.18827
1000.06        61.25281
1000.45        61.86254
1000.83        64.26427
1001.21        68.31069
1001.59        72.91147
1001.97        75.40306
1002.35        74.80908
1002.73         71.9611
1003.12          68.588
1003.50        66.90251
1003.88        67.48856
1004.26        69.56791
1004.64        72.55993
1005.02        75.11887
1005.40        76.49758
1005.78        77.31801
1006.16        77.07517
1006.54        74.95222
1006.92          71.241
1007.30        66.28958
1007.69        61.97856
1008.07        60.90551
1008.45        63.72677
1008.83        70.00121
1009.21        77.89204
1009.59        82.68781
1009.97        82.15725
1010.35        77.57462
1010.73        71.15137
1011.11         66.1442
1011.49        63.54365
1011.86        62.45334
1012.24        62.33175
1012.62        62.46164
1013.00        62.56603
1013.38        62.90868
1013.76        63.70278
1014.14        65.08683
1014.52        66.87737
1014.90        68.71624
1015.28        69.81211
1015.66        69.29692
1016.04         67.1371
1016.41        63.62175
1016.79        59.75952
1017.17        57.52544
1017.55        57.53828
1017.93        59.24493
1018.31        61.61174
1018.69        63.13457
1019.06        63.43856
1019.44        62.89418
1019.82        61.92506
1020.20        61.50781
1020.58        61.98234
1020.95        62.76589
1021.33        63.56776
1021.71        64.02623
1022.09        64.11202
1022.46        64.16766
1022.84        64.01515
1023.22          63.339
1023.60        62.24641
1023.97        60.75924
1024.35        59.93451
1024.73        60.89605
