SpectraSmart Spectrum 2.9.0.0
--------- Device Information -----------
Spectrum Name :  反射率_0
Saving Time :  2024/04/27 00:16:47
Spectro-Module Model Name : SE2030-DUVN
Spectro-Module Serial Number : OS361AC55029948
Wavelength Start : 200
Wavelength End : 1025
Wavelength Unit : Wavelength(nm)
Spectrum Unit : Reflectance(%)
-----------Spectrum Setting ------------
Integration Time : 20ms
Average : 10
Boxcar : 0
Background removal :  enabled
linearity correction :  enabled
SC :  disabled
Intensity correction :  disabled
DWT denoise :  enabled
savitzky-golay :  disabled
FFT :  disabled
Running average :  disabled
Kalman :  disabled
High pass :  disabled
---------------BEGIN--------------------
Wavelength(nm)             Reflectance(%)
200.29               0
200.75        34.29723
201.21        34.19382
201.67        34.41264
202.13        34.20813
202.58        33.32455
203.04        32.18255
203.50        31.28957
203.96        31.83648
204.42        34.47292
204.88         38.8177
205.34        43.03006
205.80        44.08025
206.26        41.53902
206.72        36.90477
207.18        32.30086
207.64        29.21352
208.10         27.5092
208.55        26.68713
209.01         26.5727
209.47        27.36967
209.93        28.83483
210.39        30.80752
210.85        32.76923
211.31        35.17801
211.77        39.08081
212.23        46.35447
212.69        65.23441
213.14        107.1596
213.60        122.7475
214.06        107.0294
214.52        89.61045
214.98        75.68542
215.44         62.2517
215.90        46.68503
216.36        31.91686
216.81        23.46691
217.27        23.51106
217.73        32.46842
218.19        48.70014
218.65        57.56808
219.11        51.98863
219.57        41.04382
220.02        33.83846
220.48        35.38843
220.94        45.57445
221.40        65.08833
221.86        93.71987
222.32        114.1023
222.77        109.7418
223.23        91.97836
223.69        73.19005
224.15        60.41893
224.61        53.11714
225.06        48.34256
225.52         45.9642
225.98        45.88074
226.44        47.58262
226.90        50.99002
227.36        54.83259
227.81        56.68489
228.27        56.19931
228.73        54.09208
229.19        51.90017
229.65        51.48962
230.10        52.96953
230.56        55.69293
231.02        58.46571
231.48        59.42707
231.93        58.22296
232.39        55.92767
232.85        53.58401
233.31        52.55338
233.77         52.9631
234.22        54.29719
234.68        55.85589
235.14        56.67457
235.60        56.44027
236.05        55.50402
236.51        54.04311
236.97        52.53765
237.43        51.32992
237.88        50.38529
238.34        49.86361
238.80        50.22656
239.26        51.67498
239.71        54.72256
240.17        59.03048
240.63        63.51172
241.08        67.30124
241.54        69.62889
242.00        71.48904
242.46        75.71303
242.91        84.71832
243.37        99.76622
243.83        121.1465
244.28        138.7235
244.74        137.7055
245.20        118.5474
245.66        96.00282
246.11        82.74922
246.57        79.06464
247.03        80.92632
247.48        83.57037
247.94        79.75948
248.40        70.90174
248.85        61.77352
249.31        54.99363
249.77        51.09863
250.22        49.27373
250.68        48.65602
251.14        49.30458
251.59         51.3536
252.05        54.51756
252.51        58.44285
252.96        61.31913
253.42        62.13756
253.88        61.18335
254.33        58.64821
254.79        56.85616
255.25        57.50484
255.70        60.23885
256.16        64.38656
256.62        67.39745
257.07        65.71085
257.53         60.9105
257.99        55.49917
258.44        51.28456
258.90         49.9651
259.35        50.54812
259.81        52.26416
260.27        54.00258
260.72        54.46781
261.18        53.76786
261.63         52.2813
262.09        50.80721
262.55        49.72572
263.00        48.99347
263.46        48.54149
263.91        48.01274
264.37        47.25051
264.83        46.23048
265.28        45.05215
265.74        44.06873
266.19        43.43054
266.65        43.20066
267.11        43.20468
267.56        43.25665
268.02        43.06787
268.47        42.56635
268.93        41.87795
269.38        41.07765
269.84        40.33803
270.30        39.69488
270.75         39.0734
271.21        38.52801
271.66        38.08918
272.12        37.74732
272.57        37.47858
273.03        37.15142
273.48        36.54032
273.94        35.67355
274.39        34.61128
274.85        33.59814
275.31        32.84153
275.76        32.35408
276.22        32.08651
276.67        31.88953
277.13         31.6322
277.58        31.23106
278.04        30.76278
278.49        30.22441
278.95        29.72317
279.40        29.23602
279.86        28.79429
280.31        28.33376
280.77        27.86659
281.22         27.3625
281.68        26.88895
282.13        26.45315
282.59        26.13743
283.04         25.9168
283.50        25.77845
283.95        25.67057
284.41        25.52857
284.86        25.33015
285.32        25.11254
285.77        24.88393
286.22        24.71115
286.68        24.60254
287.13        24.50644
287.59        24.41017
288.04        24.25381
288.50        24.05179
288.95         23.8091
289.41        23.56097
289.86        23.29707
290.32        23.05721
290.77        22.83248
291.22        22.66636
291.68        22.61098
292.13        22.66059
292.59        22.80771
293.04        23.01229
293.50        23.22893
293.95        23.43201
294.40        23.63787
294.86         23.8513
295.31        24.07478
295.77        24.32153
296.22        24.58347
296.68        24.88287
297.13        25.24271
297.58          25.669
298.04        26.15209
298.49        26.66461
298.95        27.17685
299.40         27.6644
299.85        28.12832
300.31         28.5616
300.76        28.95094
301.21        29.29496
301.67        29.60394
302.12         29.8678
302.58        30.12555
303.03        30.36359
303.48        30.59707
303.94        30.82391
304.39        31.01094
304.84        31.16299
305.30        31.29232
305.75        31.40295
306.20        31.54981
306.66        31.74382
307.11        31.95829
307.57        32.14466
308.02         32.1876
308.47        32.08532
308.93        31.88105
309.38        31.66093
309.83        31.59961
310.29        31.72414
310.74        31.97255
311.19        32.22184
311.65        32.26722
312.10        32.05861
312.55        31.66632
313.00        31.21489
313.46        30.88833
313.91        30.71992
314.36        30.65956
314.82         30.6242
315.27        30.48991
315.72        30.22403
316.18        29.88678
316.63        29.53285
317.08        29.25278
317.53        29.06916
317.99        28.94247
318.44        28.84576
318.89        28.73004
319.35        28.57512
319.80         28.3922
320.25        28.18506
320.70        27.95919
321.16        27.71592
321.61        27.46128
322.06        27.18875
322.51        26.89447
322.97        26.58032
323.42        26.25676
323.87        25.95552
324.32        25.72779
324.78        25.57263
325.23        25.49117
325.68        25.41454
326.13        25.23449
326.59         24.9283
327.04        24.53693
327.49         24.1402
327.94        23.86714
328.39        23.74099
328.85        23.71008
329.30        23.71953
329.75        23.62586
330.20        23.39235
330.66        23.06685
331.11        22.71882
331.56        22.43874
332.01         22.2539
332.46        22.12209
332.92        22.02461
333.37        21.96837
333.82        21.92828
334.27         21.9199
334.72        21.88451
335.17        21.71921
335.63        21.41316
336.08        21.00821
336.53        20.61903
336.98        20.44831
337.43        20.53978
337.88        20.82496
338.34        21.18134
338.79        21.41517
339.24         21.4476
339.69        21.33788
340.14        21.11873
340.59        20.85274
341.05        20.58753
341.50        20.30144
341.95        20.05625
342.40        19.94885
342.85        19.99116
343.30        20.16376
343.75        20.37638
344.20        20.47125
344.66        20.41162
345.11         20.2367
345.56        20.02522
346.01        19.90937
346.46        19.92272
346.91        20.01869
347.36        20.13962
347.81        20.20042
348.26        20.17602
348.72        20.09706
349.17        19.99006
349.62        19.90461
350.07        19.85528
350.52        19.82663
350.97        19.79373
351.42        19.72065
351.87        19.60302
352.32        19.45871
352.77        19.32137
353.22        19.23567
353.67        19.20835
354.13        19.22514
354.58        19.24999
355.03        19.22976
355.48        19.15146
355.93        19.03339
356.38        18.90709
356.83        18.81963
357.28        18.77942
357.73        18.76582
358.18        18.75484
358.63        18.71062
359.08        18.62096
359.53        18.49753
359.98        18.34907
360.43        18.18534
360.88        18.01217
361.33        17.83033
361.78        17.64322
362.23        17.45845
362.68        17.28328
363.13        17.12111
363.58        16.98073
364.03        16.87162
364.48        16.79136
364.93        16.73344
365.38        16.68184
365.83        16.61167
366.28        16.51569
366.73        16.39941
367.18        16.27098
367.63        16.14474
368.08         16.0259
368.53        15.91082
368.98        15.79842
369.43        15.68722
369.88        15.57494
370.33        15.46058
370.78        15.34481
371.23        15.22851
371.68        15.11259
372.13        14.99992
372.58        14.88317
373.03        14.74963
373.48        14.59951
373.93        14.43752
374.38        14.28609
374.83        14.18129
375.28        14.12804
375.72        14.10853
376.17        14.10133
376.62        14.05546
377.07        13.96038
377.52        13.83096
377.97        13.69138
378.42         13.5833
378.87        13.51953
379.32        13.48673
379.77        13.47006
380.22        13.44686
380.67        13.40876
381.11        13.36523
381.56        13.31324
382.01         13.2625
382.46        13.21715
382.91        13.17461
383.36         13.1321
383.81        13.08493
384.26        13.03234
384.71        12.97858
385.15        12.92713
385.60        12.88862
386.05        12.86471
386.50        12.85128
386.95        12.84804
387.40          12.855
387.85        12.86762
388.29        12.87466
388.74        12.88037
389.19        12.86253
389.64        12.81898
390.09        12.75421
390.54        12.67819
390.98        12.60589
391.43        12.55184
391.88        12.51041
392.33        12.47793
392.78        12.44757
393.23        12.41721
393.67        12.38458
394.12        12.36103
394.57        12.33733
395.02        12.31191
395.47        12.28039
395.91        12.25114
396.36        12.23068
396.81        12.22759
397.26        12.24097
397.71        12.25243
398.15        12.24212
398.60         12.2231
399.05        12.15215
399.50        12.06536
399.95        12.10363
400.39        12.23429
400.84        12.22828
401.29        12.08872
401.74        12.01294
402.18        12.00943
402.63         11.9564
403.08        11.87003
403.53         11.8298
403.97        11.84083
404.42        11.88221
404.87        11.92055
405.32        11.90019
405.76        11.81076
406.21        11.67962
406.66        11.54935
407.11        11.48745
407.55        11.51091
408.00        11.59006
408.45        11.68951
408.90        11.73957
409.34        11.71594
409.79        11.64407
410.24        11.54572
410.68        11.44552
411.13        11.35868
411.58        11.27726
412.03        11.20924
412.47        11.17376
412.92        11.17091
413.37         11.1982
413.81         11.2431
414.26        11.29542
414.71        11.34508
415.15        11.39477
415.60        11.43062
416.05         11.4378
416.49        11.41625
416.94          11.372
417.39         11.3218
417.83        11.29254
418.28         11.2899
418.73        11.30237
419.17        11.33129
419.62        11.37663
420.07        11.43199
420.51        11.49503
420.96        11.53728
421.41         11.5129
421.85        11.41625
422.30        11.26292
422.74        11.09837
423.19        11.04062
423.64        11.08601
424.08        11.14693
424.53        11.18696
424.98          11.232
425.42        11.27254
425.87        11.24705
426.31        11.17889
426.76         11.1889
427.21        11.25262
427.65        11.20005
428.10        11.05517
428.54        10.97307
428.99        10.96752
429.44         10.9967
429.88        11.02814
430.33        10.96728
430.77        10.84693
431.22        10.87016
431.66        11.02282
432.11        11.08952
432.56        11.06417
433.00        11.10171
433.45        11.15969
433.89         11.0836
434.34        10.95552
434.78        10.71702
435.23        10.97364
435.67        11.01971
436.12        11.00625
436.57         10.9636
437.01        10.90823
437.46        10.87227
437.90        10.85647
438.35        10.82363
438.79        10.77445
439.24        10.74509
439.68        10.73816
440.13        10.74212
440.57         10.7549
441.02        10.78394
441.46        10.82354
441.91        10.83911
442.35        10.82456
442.80        10.87994
443.24        10.95636
443.69        10.87043
444.13         10.6608
444.58        10.55964
445.02        10.58261
445.47        10.61964
445.91         10.6406
446.36        10.64863
446.80        10.63278
447.24        10.59301
447.69        10.55944
448.13        10.57337
448.58        10.64158
449.02        10.74485
449.47        10.84329
449.91         10.8707
450.36        10.81768
450.80         10.7069
451.25        10.58192
451.69        10.50379
452.13        10.48995
452.58        10.51978
453.02        10.56922
453.47        10.60114
453.91        10.60258
454.36        10.58709
454.80        10.55846
455.24        10.51995
455.69        10.47896
456.13        10.42573
456.58        10.37815
457.02        10.34687
457.46        10.33976
457.91        10.35472
458.35        10.37175
458.79        10.35886
459.24        10.32039
459.68        10.25826
460.13        10.20948
460.57        10.20193
461.01        10.24898
461.46         10.3291
461.90        10.42195
462.34        10.48281
462.79         10.4945
463.23        10.47439
463.68        10.42863
464.12         10.3764
464.56        10.32595
465.01        10.28513
465.45        10.24703
465.89         10.2318
466.34         10.2395
466.78        10.26376
467.22        10.29765
467.67        10.31722
468.11        10.32119
468.55        10.31076
468.99        10.29206
469.44        10.27474
469.88        10.26307
470.32        10.25404
470.77        10.24962
471.21        10.25559
471.65        10.27023
472.10        10.29376
472.54        10.31743
472.98        10.33142
473.42        10.33394
473.87        10.33233
474.31        10.32386
474.75        10.31577
475.20        10.31271
475.64        10.30692
476.08        10.30759
476.52        10.32309
476.97        10.35362
477.41        10.40288
477.85        10.45615
478.29        10.47325
478.74        10.45806
479.18        10.44585
479.62        10.44986
480.06        10.47504
480.50         10.5255
480.95        10.58868
481.39        10.63974
481.83        10.74471
482.27        10.74264
482.72        10.77652
483.16         10.8091
483.60        10.83651
484.04        10.84702
484.48        10.90447
484.93        11.08079
485.37        11.08433
485.81        11.17567
486.25        11.60981
486.69        11.33678
487.14        11.07493
487.58        11.84287
488.02        11.70495
488.46         11.4101
488.90        11.46314
489.34        11.33859
489.79        11.47995
490.23        11.61035
490.67        11.79845
491.11         11.9717
491.55        11.98367
491.99        11.88441
492.43        11.89303
492.88        12.03091
493.32        12.16024
493.76        12.26048
494.20          12.374
494.64        12.49876
495.08        12.59848
495.52        12.67282
495.96        12.80509
496.41        12.96894
496.85        12.96989
497.29        12.85042
497.73         12.9772
498.17        13.16588
498.61        13.32532
499.05        13.37783
499.49        13.44711
499.93        13.50645
500.37        13.62973
500.82        13.79067
501.26        13.90902
501.70          13.976
502.14        14.04028
502.58        14.12403
503.02        14.23501
503.46        14.37457
503.90        14.53938
504.34        14.68808
504.78        14.75149
505.22        14.71876
505.66        14.61572
506.10        14.49691
506.54        14.44878
506.98        14.49432
507.42        14.60814
507.86        14.75723
508.30        14.88524
508.74        14.97112
509.18        15.03105
509.62        15.07122
510.06        15.10181
510.50        15.12874
510.94        15.14547
511.38        15.15843
511.82        15.18122
512.26        15.21711
512.70        15.26578
513.14        15.32049
513.58        15.36751
514.02        15.40284
514.46        15.42914
514.90        15.45145
515.34        15.47856
515.78        15.51164
516.22        15.54616
516.66        15.57521
517.10        15.58864
517.54        15.58448
517.98        15.56702
518.42        15.54231
518.86        15.51991
519.30        15.50282
519.74        15.48802
520.18        15.47451
520.62        15.45977
521.06        15.44343
521.50        15.42917
521.93        15.41468
522.37        15.38976
522.81        15.35617
523.25        15.31379
523.69        15.27497
524.13        15.25966
524.57        15.26787
525.01        15.29051
525.45        15.30541
525.89        15.27667
526.32        15.19761
526.76        15.08848
527.20        14.96919
527.64        14.87193
528.08         14.8074
528.52        14.76435
528.96        14.74478
529.40        14.75106
529.83        14.77726
530.27         14.8227
530.71        14.86046
531.15        14.84824
531.59        14.77935
532.03        14.66493
532.46        14.53734
532.90         14.4605
533.34        14.44487
533.78        14.46318
534.22        14.48649
534.66        14.48688
535.09        14.44375
535.53        14.34196
535.97        14.20745
536.41         14.1165
536.85        14.08296
537.28        14.07166
537.72        14.08248
538.16        14.12555
538.60        14.19527
539.04        14.28921
539.47        14.38432
539.91        14.45318
540.35        14.48883
540.79        14.50057
541.22         14.5106
541.66        14.56182
542.10        14.66059
542.54        14.79158
542.97        14.93465
543.41        15.06401
543.85        15.16906
544.29        15.26123
544.72        15.34038
545.16        15.41717
545.60        15.49432
546.04        15.57143
546.47        15.66206
546.91        15.78564
547.35        15.94082
547.79        16.11954
548.22         16.2999
548.66         16.4444
549.10        16.56567
549.53        16.66823
549.97        16.76417
550.41        16.83464
550.84        16.90434
551.28         17.0154
551.72        17.15761
552.15        17.32833
552.59        17.54393
553.03        17.54513
553.46        17.84692
553.90        17.97141
554.34         18.0696
554.77        18.14693
555.21        18.22395
555.65        18.31849
556.08        18.42815
556.52        18.53749
556.96        18.63367
557.39        18.74875
557.83        18.86468
558.27        18.87653
558.70        18.81218
559.14        18.82895
559.57        18.92486
560.01        19.00249
560.45        19.04844
560.88        19.10254
561.32        19.17165
561.75        19.22332
562.19        19.27298
562.63        19.34013
563.06        19.42384
563.50        19.52307
563.93        19.60444
564.37        19.66598
564.80        19.71348
565.24        19.70474
565.68        19.63261
566.11        19.91128
566.55         19.8346
566.98        19.98157
567.42        20.14624
567.85        20.31827
568.29        20.49469
568.72        20.68763
569.16        20.90611
569.60        21.07076
570.03        21.26431
570.47        21.42252
570.90        21.54741
571.34        21.70903
571.77        21.87269
572.21        21.99262
572.64        22.02322
573.08        22.36761
573.51        22.46621
573.95        22.59568
574.38        22.60072
574.82         22.9431
575.25         22.7187
575.69        22.79863
576.12        22.88411
576.56        22.94631
576.99        23.08109
577.42        22.84037
577.86        23.07482
578.29        23.50243
578.73        23.15486
579.16        23.04262
579.60        22.78633
580.03        22.80878
580.47        22.84883
580.90        22.78284
581.33        22.70961
581.77        23.04767
582.20        22.81843
582.64        22.56091
583.07        22.43737
583.51        22.17734
583.94        21.99638
584.37        21.89736
584.81        21.89357
585.24        21.83647
585.68        21.74196
586.11        21.59275
586.54        21.54403
586.98         21.4487
587.41        21.37289
587.85        21.24791
588.28        21.09319
588.71        21.17639
589.15         20.9577
589.58        21.06097
590.01        20.96885
590.45        21.05599
590.88        21.16187
591.31        21.09841
591.75        20.94389
592.18        20.84657
592.61        20.79608
593.05        21.22125
593.48        21.35713
593.91        21.06239
594.35        21.08044
594.78         21.0559
595.21         21.2639
595.65        21.47607
596.08         21.7197
596.51        21.89239
596.94        21.92859
597.38        22.10593
597.81        22.41236
598.24        22.67979
598.68         22.9374
599.11        23.12481
599.54        23.83089
599.97        23.54357
600.41        24.10135
600.84        24.15631
601.27        24.55942
601.70        24.92202
602.14        25.34435
602.57        25.70593
603.00        26.07368
603.43        26.24676
603.87        27.19998
604.30        27.63097
604.73        27.90358
605.16        28.27247
605.60        28.73385
606.03        29.12369
606.46        29.46854
606.89        29.54078
607.32        30.44378
607.76        30.88735
608.19        31.23289
608.62        31.62625
609.05        32.12038
609.48        32.45917
609.92        33.11139
610.35         33.1524
610.78        33.64199
611.21        33.82607
611.64          34.226
612.07        34.62984
612.50        34.91306
612.94        35.26559
613.37        35.61792
613.80        35.85139
614.23        35.90794
614.66        36.25821
615.09        36.84538
615.52        37.21448
615.96         37.3293
616.39        37.78617
616.82        38.03929
617.25        38.36643
617.68        38.60813
618.11        38.91428
618.54        39.27555
618.97        39.57668
619.40        39.81667
619.84         40.1835
620.27        40.28991
620.70        40.56127
621.13        40.84908
621.56        40.67051
621.99        40.46088
622.42        40.48281
622.85        40.83696
623.28        40.90075
623.71        40.84848
624.14        40.93746
624.57        41.19279
625.00        41.03361
625.43        41.10155
625.86        41.00888
626.29        40.99045
626.72        40.54789
627.15        40.61547
627.58        40.38874
628.01        40.08722
628.44        39.96735
628.87        39.47414
629.30        39.12108
629.73        38.91595
630.16        38.63789
630.59        38.33021
631.02        38.05156
631.45          37.792
631.88        37.48061
632.31        37.10289
632.74        36.67693
633.17        36.19776
633.60        35.66059
634.03        35.07706
634.46        34.45578
634.89        33.83029
635.32        33.26059
635.75        32.76501
636.18        32.29714
636.61        31.85596
637.04        31.45179
637.47        31.07323
637.89        30.71176
638.32        30.33966
638.75        29.94626
639.18        29.53468
639.61         29.1123
640.04        28.71061
640.47        28.37617
640.90        28.11729
641.33         27.9229
641.76         27.7656
642.18        27.60266
642.61        27.41592
643.04        27.22338
643.47        27.05214
643.90         26.9441
644.33        26.91032
644.76         26.9398
645.18        27.00771
645.61        27.06862
646.04        27.11448
646.47        27.15911
646.90        27.23929
647.33        27.40349
647.75        27.65654
648.18        28.02242
648.61        28.46321
649.04        28.81514
649.47        29.03765
649.89        29.58515
650.32        29.74459
650.75        30.25917
651.18        30.88486
651.61        31.59771
652.03        32.33448
652.46        32.86824
652.89        33.27208
653.32         33.8188
653.74        34.58168
654.17        35.02253
654.60          36.037
655.03        35.99504
655.46        36.66323
655.88        37.43966
656.31        39.91735
656.74        42.44902
657.16        42.24982
657.59        42.04037
658.02        41.45443
658.45        41.93582
658.87        41.68533
659.30          42.354
659.73        42.79988
660.15        44.07983
660.58        44.09502
661.01          44.466
661.44        44.75706
661.86        45.01244
662.29        45.24686
662.72        45.92353
663.14         46.1736
663.57         46.5909
664.00        46.94128
664.42        47.39212
664.85        47.95449
665.27        48.53305
665.70        49.03938
666.13        49.42728
666.55        49.68307
666.98        49.75492
667.41        49.70535
667.83        49.99644
668.26        50.12834
668.69        50.42046
669.11         50.7067
669.54        51.02863
669.96        51.37487
670.39         51.7193
670.82        52.05068
671.24        52.32697
671.67        52.54762
672.09         52.7335
672.52        52.91077
672.94         53.0887
673.37        53.26412
673.80        53.37512
674.22        53.44852
674.65        53.55719
675.07        53.72218
675.50        53.88847
675.92        54.04576
676.35        54.18901
676.77        54.31475
677.20        54.42086
677.62         54.5267
678.05        54.66106
678.47        54.83006
678.90        55.03573
679.32        55.24648
679.75          55.422
680.17        55.54676
680.60        55.63023
681.02        55.72351
681.45        55.88217
681.87        56.12281
682.30        56.48146
682.72        56.88015
683.15        56.99888
683.57        56.89183
684.00        56.94541
684.42        57.18821
684.85        57.35949
685.27        57.45426
685.70        57.66227
686.12        57.93051
686.54         58.0706
686.97         58.0878
687.39        58.10118
687.82        58.11329
688.24        58.16667
688.66        58.24155
689.09        58.11255
689.51        57.87694
689.94        58.02045
690.36        58.48717
690.78        58.63363
691.21        58.48967
691.63        58.65682
692.06        59.08403
692.48        59.23281
692.90        59.09549
693.33        59.03431
693.75        59.07055
694.17        59.00075
694.60        58.89727
695.02        58.97901
695.44        59.24537
695.87        59.59539
696.29        59.93832
696.71        60.06831
697.14        60.01099
697.56        59.97009
697.98          59.988
698.41        60.15203
698.83        60.12144
699.25        60.30171
699.68        60.51242
700.10        60.62451
700.52        60.59497
700.94        60.48561
701.37        60.38274
701.79         60.4211
702.21        60.62605
702.64        60.92801
703.06         61.2524
703.48        61.49112
703.90        61.61112
704.33        61.53618
704.75        61.51258
705.17        61.42669
705.59        61.37351
706.01        61.33473
706.44        61.33889
706.86        61.44461
707.28        61.63937
707.70        61.90747
708.12        62.20328
708.55        62.43071
708.97        62.57193
709.39        62.66352
709.81        62.70171
710.23        62.68164
710.66        62.61314
711.08         62.5182
711.50        62.41887
711.92        62.36442
712.34        62.37151
712.76        62.44115
713.19        62.53913
713.61        62.63704
714.03        62.70953
714.45        62.77057
714.87        62.85228
715.29        63.00882
715.71        63.24136
716.13        63.51138
716.56        63.75709
716.98        63.96402
717.40        64.07711
717.82        64.11474
718.24        64.06348
718.66        63.90217
719.08        63.65899
719.50        63.36985
719.92        63.12116
720.34        63.04026
720.76        63.15179
721.19        63.39661
721.61         63.7472
722.03        64.10228
722.45        64.40671
722.87        64.66996
723.29        64.83853
723.71         64.8337
724.13        64.65713
724.55        64.34459
724.97        64.01281
725.39        63.81104
725.81        63.78131
726.23        63.95928
726.65        64.30488
727.07        64.36475
727.49        64.69774
727.91        64.84905
728.33         64.9989
728.75        65.13463
729.17        65.25946
729.59        65.34779
730.01        65.39883
730.43        65.44144
730.85        65.47925
731.27        65.50908
731.69        65.52101
732.10        65.49921
732.52        65.43616
732.94        65.34193
733.36         65.2561
733.78        65.13406
734.20         64.9922
734.62        65.07981
735.04        65.39756
735.46        65.01122
735.88        65.37142
736.30        65.38403
736.72        65.54491
737.13        66.16918
737.55        66.96873
737.97        67.17596
738.39        66.76341
738.81        66.13463
739.23        65.59547
739.65        65.77787
740.06        66.49316
740.48        66.82539
740.90        66.70853
741.32        66.52113
741.74        66.77161
742.16        66.83184
742.57        66.84329
742.99        66.86111
743.41        66.87238
743.83        66.82206
744.25        66.70835
744.67        66.54328
745.08        66.40677
745.50        66.40759
745.92        66.56802
746.34        66.83801
746.75        67.12361
747.17        67.25124
747.59        67.19372
748.01        67.04434
748.42        66.86314
748.84        66.71745
749.26        66.69494
749.68        66.77377
750.09        66.92796
750.51        67.33659
750.93         67.7784
751.35        67.52856
751.76         66.7421
752.18        66.36136
752.60        66.45741
753.01        66.53011
753.43        66.50347
753.85        66.51376
754.27         66.5516
754.68        66.60545
755.10         66.6927
755.52        66.82136
755.93        66.96082
756.35        67.10801
756.77        67.31268
757.18        67.39501
757.60        67.40058
758.02        67.93873
758.43        68.73123
758.85        68.07156
759.26         67.5657
759.68         66.7111
760.10        66.98798
760.51        67.89925
760.93        68.67795
761.34        68.35253
761.76        68.45094
762.18        68.14697
762.59        68.14828
763.01        68.35961
763.42        68.74493
763.84        69.00546
764.26        69.04556
764.67         68.6109
765.09        67.96655
765.50        68.01159
765.92        68.67082
766.33        68.43629
766.75        68.11665
767.16        67.80159
767.58        67.83572
768.00        67.87012
768.41        67.95695
768.83        68.38511
769.24        68.92358
769.66        68.96128
770.07        68.59453
770.49        68.09067
770.90         68.2121
771.32        68.54726
771.73         69.1277
772.15        69.36203
772.56         69.2084
772.97        68.97209
773.39        68.77927
773.80        68.72231
774.22        68.81976
774.63        69.09358
775.05        69.38267
775.46        69.49654
775.88        69.36139
776.29        69.07603
776.70        68.76302
777.12         68.6448
777.53        68.77368
777.95        69.01566
778.36         69.3141
778.77        69.50484
779.19        69.56564
779.60        69.68172
780.02        69.74806
780.43        69.54649
780.84        69.24545
781.26        68.77583
781.67        68.41419
782.09        69.49433
782.50        71.43761
782.91        71.24611
783.33        69.56153
783.74        68.91061
784.15        69.56647
784.57        69.89792
784.98        69.82643
785.39        69.80383
785.81        69.90919
786.22        70.43565
786.63        71.21249
787.04        71.54801
787.46        71.38144
787.87        71.04531
788.28        70.71862
788.70         70.4863
789.11        70.38519
789.52        70.53078
789.93         70.7849
790.35        70.67673
790.76        70.26301
791.17        70.10564
791.58        70.28907
792.00        70.35798
792.41        70.31344
792.82        70.74818
793.23        71.40723
793.65        71.04656
794.06        70.02798
794.47        70.05959
794.88        70.90395
795.29        71.96012
795.71        70.92837
796.12        70.86423
796.53        71.15414
796.94        70.82307
797.35        70.09501
797.76        70.44363
798.18        71.65511
798.59        72.12833
799.00        71.71194
799.41        71.23054
799.82        70.93451
800.23        70.76895
800.64        70.81889
801.06        71.03992
801.47        71.35941
801.88        71.56462
802.29        71.58267
802.70        71.46005
803.11        71.25082
803.52        71.05059
803.93        70.92284
804.34        70.85431
804.75        70.83466
805.17        70.94815
805.58        71.24661
805.99        71.34878
806.40         71.3294
806.81         72.1302
807.22        73.35075
807.63         73.0845
808.04        71.57674
808.45        70.88422
808.86        71.18282
809.27        71.37674
809.68        71.31735
810.09        71.29047
810.50         71.2544
810.91        71.12126
811.32        71.06717
811.73        71.29823
812.14        71.82298
812.55        72.80106
812.96        73.87982
813.37        73.81658
813.78        72.73315
814.19        72.16264
814.60        72.19166
815.01        71.85063
815.42        71.18326
815.83        70.82171
816.24        70.81854
816.65        70.89038
817.05        71.02261
817.46        71.28703
817.87        71.59887
818.28        71.76418
818.69        71.74715
819.10        71.55158
819.51        71.32697
819.92        71.37821
820.33        71.76556
820.74        72.36067
821.14        72.95217
821.55        73.24786
821.96        73.15086
822.37        72.66919
822.78        72.00583
823.19        71.60482
823.60        71.58768
824.00        71.81778
824.41        72.14473
824.82        72.45369
825.23        72.66081
825.64        72.79987
826.04        72.87687
826.45        72.85355
826.86        72.75184
827.27        72.58593
827.68         72.3643
828.08        72.14404
828.49         71.9034
828.90        71.65455
829.31        71.49917
829.72        71.59328
830.12         71.9725
830.53        72.53389
830.94        73.06221
831.35        73.13609
831.75        72.68332
832.16        71.82185
832.57         70.8671
832.97        70.30239
833.38        70.26025
833.79        70.57411
834.20        71.09734
834.60        71.59129
835.01         71.9635
835.42        72.33069
835.82        72.63761
836.23         72.7004
836.64        72.53276
837.04         72.1262
837.45        71.74654
837.86          71.909
838.26        72.72457
838.67        74.01334
839.08        75.30791
839.48        75.71767
839.89           75.02
840.29        73.53806
840.70         71.9575
841.11        71.07298
841.51        71.08794
841.92        71.74843
842.33        72.74879
842.73        73.53975
843.14        73.80413
843.54        73.75773
843.95        73.57864
844.35        73.60468
844.76        73.90184
845.17        74.33907
845.57        74.74194
845.98        74.82071
846.38        74.53508
846.79        73.98325
847.19         73.3791
847.60        73.02882
848.00        73.02186
848.41         73.2381
848.81        73.53559
849.22        73.58712
849.62        73.35758
850.03        72.95546
850.43        72.52593
850.84        72.22157
851.24        72.15407
851.65        72.19791
852.05        72.46036
852.46        72.99896
852.86        73.75203
853.27        74.64738
853.67        75.37982
854.07         75.6637
854.48        75.43829
854.88        74.82275
855.29        73.96865
855.69        73.31876
856.10        72.96573
856.50        72.89209
856.90         72.9901
857.31        73.08096
857.71        73.14733
858.12        73.17854
858.52        73.21548
858.92        73.19407
859.33        73.08434
859.73        72.92881
860.13        72.68729
860.54        72.33791
860.94        71.94872
861.34        71.53543
861.75        71.19573
862.15        71.12736
862.55        71.33631
862.96        71.71089
863.36        72.18398
863.76        72.54208
864.17        72.68941
864.57        72.71751
864.97        72.53813
865.38        72.03252
865.78         71.2551
866.18         70.2399
866.58        69.29768
866.99        68.97643
867.39        69.42663
867.79        70.47774
868.19        71.73502
868.60        72.56558
869.00        72.83112
869.40        72.64956
869.80        72.25201
870.21         72.0971
870.61        72.38646
871.01         72.8967
871.41        73.34905
871.81        73.36784
872.22        72.88202
872.62        72.02933
873.02        71.09756
873.42        70.55532
873.82        70.54214
874.22        70.92124
874.63        71.39996
875.03        71.53187
875.43        71.19234
875.83        70.53098
876.23        69.81498
876.63        69.44511
877.03        69.52532
877.44        69.91225
877.84        70.40078
878.24        70.65493
878.64        70.53704
879.04        70.02814
879.44        69.43969
879.84        69.33321
880.24        69.77132
880.64        70.54221
881.04        71.23789
881.44         71.2154
881.84        70.36059
882.24        68.93671
882.65        67.45137
883.05        66.67844
883.45        66.82013
883.85        67.64059
884.25        68.81364
884.65        69.76707
885.05        70.28513
885.45        70.53271
885.85        70.60305
886.25        70.64571
886.65         70.7269
887.05        70.75741
887.45        70.77675
887.85        70.88817
888.25        71.08807
888.65        71.35152
889.04        71.56775
889.44        71.57564
889.84        71.33039
890.24        70.89685
890.64        70.35104
891.04        69.83056
891.44        69.40591
891.84        69.06053
892.24        68.82468
892.64        68.72474
893.04        68.76537
893.44        68.97199
893.83        69.29505
894.23        69.58315
894.63        69.81474
895.03        69.97626
895.43         70.1739
895.83        70.60687
896.23        71.26665
896.63        72.03288
897.02        72.64704
897.42        72.73595
897.82         72.2384
898.22        71.34451
898.62        70.28121
899.01        69.36729
899.41        68.74911
899.81        68.34566
900.21        68.20525
900.61        68.39323
901.00        68.87327
901.40        69.60739
901.80        70.39614
902.20        70.90321
902.59        71.05372
902.99         70.9164
903.39        70.62354
903.79        70.42075
904.18        70.37485
904.58        70.39774
904.98        70.51027
905.38        70.75453
905.77        71.11442
906.17        71.62591
906.57         72.0697
906.96         72.0686
907.36        71.55638
907.76         70.6601
908.15        69.80185
908.55        69.63783
908.95        70.30151
909.34        71.58483
909.74        72.98055
910.14        73.73145
910.53        73.58921
910.93        72.81725
911.33        71.70267
911.72         70.6807
912.12        69.99281
912.52        69.52912
912.91        69.27045
913.31        69.21429
913.70        69.33275
914.10        69.60902
914.49        70.08086
914.89        70.68813
915.29        71.38682
915.68        72.14708
916.08        72.70122
916.47        72.71646
916.87        72.16875
917.26        71.16116
917.66        70.11778
918.05          69.522
918.45        69.49862
918.84        69.97858
919.24        70.65194
919.64        71.09545
920.03         71.1801
920.42        70.97574
920.82        70.77451
921.21        70.98128
921.61        71.64868
922.00        72.66788
922.40          73.624
922.79        73.96439
923.19        73.51923
923.58         72.5209
923.98        71.39851
924.37        70.69567
924.77        70.56694
925.16        70.82275
925.55        71.25674
925.95        71.48441
926.34        71.40184
926.74         71.1263
927.13        70.75095
927.52        70.34367
927.92        70.00375
928.31        69.68204
928.70        69.46239
929.10        69.45951
929.49        69.66602
929.89        69.99257
930.28         70.4584
930.67        70.95992
931.07        71.41152
931.46        71.91607
931.85         72.2383
932.24        72.06297
932.64        71.42152
933.03         70.3848
933.42        69.46865
933.82        69.42512
934.21        70.36893
934.60        72.11193
934.99        74.03434
935.39        75.00245
935.78        74.73245
936.17        73.46355
936.56        71.79601
936.96        70.68704
937.35        70.41041
937.74        70.69308
938.13        71.14702
938.53        71.17539
938.92        70.64062
939.31        69.81532
939.70        68.98909
940.09        68.53603
940.49        68.51704
940.88        68.80476
941.27        69.30067
941.66        69.82849
942.05        70.30247
942.44        70.80831
942.84        71.26455
943.23        71.53297
943.62        71.60093
944.01        71.41555
944.40        71.23202
944.79        71.50655
945.18        72.28767
945.57        73.44613
945.97        74.41129
946.36        74.31708
946.75        72.98647
947.14        70.83553
947.53        68.58675
947.92        67.25556
948.31        67.07947
948.70        67.75352
949.09        68.92883
949.48        69.98863
949.87        70.66325
950.26        71.09753
950.65         71.3198
951.04         71.3866
951.43        71.33817
951.82        71.11284
952.21        70.74908
952.60        70.35794
952.99        70.01679
953.38        69.77986
953.77         69.7076
954.16         69.8624
954.55        70.23259
954.94        70.74691
955.33        71.36916
955.72        72.02571
956.11        72.63419
956.50        73.19393
956.89        73.45768
957.28        73.05194
957.66        71.96471
958.05        70.41114
958.44        68.89663
958.83        68.13067
959.22        68.24818
959.61        69.07835
960.00        70.22353
960.39         70.9148
960.78        70.88488
961.16        70.32858
961.55        69.63491
961.94        69.30193
962.33        69.47166
962.72          70.021
963.11        70.69023
963.49        71.04067
963.88        70.84685
964.27        70.25587
964.66        69.69698
965.04        69.82331
965.43        70.69387
965.82        72.18005
966.21        73.63574
966.60        73.82845
966.98        72.45361
967.37        70.06928
967.76        67.63499
968.15        66.34235
968.53        66.41013
968.92        67.51286
969.31        69.08733
969.69        70.00574
970.08        69.77992
970.47        68.79349
970.86        67.67542
971.24        67.29932
971.63        67.86714
972.02        69.12518
972.40        70.60106
972.79        71.12809
973.17         70.4536
973.56        69.00244
973.95        67.50675
974.33        66.90448
974.72        67.38017
975.11        68.61957
975.49        70.18192
975.88        71.12253
976.26        71.15458
976.65        70.52668
977.04        69.58249
977.42        68.81883
977.81        68.37678
978.19        68.07437
978.58        67.99532
978.96        68.25254
979.35        68.78539
979.74        69.61617
980.12        70.50866
980.51        70.76434
980.89        70.37142
981.28        69.52086
981.66        68.61373
982.05        68.22339
982.43        68.49078
982.82        69.19084
983.20        70.32176
983.59        71.72064
983.97        73.30029
984.35        75.05061
984.74        76.41047
985.12        76.70832
985.51        75.77824
985.89        73.86491
986.28        71.79944
986.66        70.76794
987.04        71.11121
987.43        72.49937
987.81        74.35065
988.20        75.35061
988.58         75.0591
988.96        73.75942
989.35        72.03967
989.73        70.70945
990.12        69.97456
990.50        69.68285
990.88        69.37799
991.27        68.34829
991.65        66.55318
992.03        64.34384
992.42        62.58415
992.80        62.38811
993.18        63.93701
993.56        66.92447
993.95        70.30372
994.33        72.20972
994.71        71.87377
995.10        69.93684
995.48        67.48267
995.86         66.2279
996.24         66.5983
996.63         67.9584
997.01        69.93079
997.39        71.34339
997.77        71.65771
998.15        71.40642
998.54        70.63848
998.92        69.23258
999.30        67.45861
999.68        65.37273
1000.06        63.79037
1000.45        63.89928
1000.83        65.98605
1001.21        69.86267
1001.59        74.61702
1001.97        77.85958
1002.35        78.54279
1002.73        77.28765
1003.12        75.25681
1003.50        73.93797
1003.88        73.83765
1004.26         74.3658
1004.64        75.38165
1005.02        76.56706
1005.40        77.62296
1005.78        78.84818
1006.16        79.55573
1006.54         78.5817
1006.92        75.98004
1007.30         72.2186
1007.69        68.73804
1008.07        67.45079
1008.45        68.89437
1008.83        72.60996
1009.21        77.49744
1009.59         80.7321
1009.97        80.84898
1010.35        78.61388
1010.73        74.98124
1011.11        71.35812
1011.49        68.43867
1011.86        66.02751
1012.24        64.33359
1012.62        63.59054
1013.00        63.74986
1013.38        64.73719
1013.76        66.60915
1014.14        69.09831
1014.52          71.703
1014.90         74.2013
1015.28        75.69142
1015.66        75.14738
1016.04        72.60907
1016.41        68.40455
1016.79        63.83033
1017.17        61.47178
1017.55        62.03684
1017.93        64.64601
1018.31        68.03951
1018.69        70.40356
1019.06        71.26909
1019.44        71.20331
1019.82        70.14156
1020.20        68.16625
1020.58         65.7049
1020.95        62.72847
1021.33        60.40428
1021.71        59.93061
1022.09        61.44658
1022.46        65.19005
1022.84        69.89845
1023.22        72.17847
1023.60        70.67357
1023.97        66.08363
1024.35        61.74056
1024.73        61.73335
