SpectraSmart Spectrum 2.9.0.0
--------- Device Information -----------
Spectrum Name :  反射率_0
Saving Time :  2024/04/27 00:20:12
Spectro-Module Model Name : SE2030-DUVN
Spectro-Module Serial Number : OS361AC55029948
Wavelength Start : 200
Wavelength End : 1025
Wavelength Unit : Wavelength(nm)
Spectrum Unit : Reflectance(%)
-----------Spectrum Setting ------------
Integration Time : 20ms
Average : 10
Boxcar : 0
Background removal :  enabled
linearity correction :  enabled
SC :  disabled
Intensity correction :  disabled
DWT denoise :  enabled
savitzky-golay :  disabled
FFT :  disabled
Running average :  disabled
Kalman :  disabled
High pass :  disabled
---------------BEGIN--------------------
Wavelength(nm)             Reflectance(%)
200.29               0
200.75        40.10113
201.21         38.5494
201.67        36.93663
202.13        36.17737
202.58        36.31107
203.04        37.61678
203.50        39.87691
203.96        41.80472
204.42        42.50757
204.88        41.90607
205.34        41.24327
205.80        42.96044
206.26        46.96473
206.72        51.52202
207.18        54.80716
207.64         55.4788
208.10        53.55323
208.55        49.42558
209.01        42.69475
209.47        37.42122
209.93        37.20893
210.39        40.01783
210.85        43.41092
211.31        46.66977
211.77        50.83121
212.23        58.85816
212.69        78.71619
213.14        116.5848
213.60        122.2203
214.06        101.1968
214.52        84.84142
214.98        76.71929
215.44         72.3979
215.90        68.59048
216.36        65.88656
216.81        65.65227
217.27        68.75455
217.73        77.30423
218.19        89.24717
218.65        91.78548
219.11        81.99529
219.57        68.69276
220.02        61.21284
220.48        65.04651
220.94        80.05527
221.40        108.3853
221.86        149.3917
222.32        176.7086
222.77        167.2795
223.23        138.7368
223.69        110.4078
224.15        93.25605
224.61        85.54813
225.06        81.92868
225.52         81.5445
225.98        83.47449
226.44        87.02867
226.90        92.61489
227.36        98.25413
227.81        100.1665
228.27        98.08081
228.73        93.22367
229.19        88.68089
229.65        88.16373
230.10        91.74732
230.56        98.13779
231.02        104.6065
231.48        106.8205
231.93        104.0527
232.39         98.6534
232.85        93.03772
233.31        90.29112
233.77        90.76228
234.22        93.22709
234.68        96.42072
235.14        98.48247
235.60        98.74978
236.05        97.93591
236.51        96.05958
236.97        93.48999
237.43        90.64214
237.88        87.47459
238.34        84.59309
238.80        83.30009
239.26        84.02767
239.71         87.4651
240.17        92.85206
240.63        98.02683
241.08        101.5278
241.54        102.4926
242.00        102.7653
242.46        106.8974
242.91        118.3984
243.37        138.7781
243.83        168.4284
244.28        193.1916
244.74        191.8834
245.20        165.0515
245.66        132.3214
246.11        110.2711
246.57        99.38454
247.03        94.83157
247.48        92.08646
247.94        85.43319
248.40        76.39124
248.85        68.42852
249.31        63.36447
249.77        61.38804
250.22        61.78762
250.68        63.99554
251.14         67.6078
251.59        70.74821
252.05        72.14737
252.51        72.66908
252.96        72.18547
253.42        71.23554
253.88        70.14178
254.33        68.56741
254.79        68.50336
255.25        71.36933
255.70        76.76752
256.16        84.11782
256.62        90.45237
257.07        91.17907
257.53        87.66076
257.99        82.66647
258.44        78.47679
258.90        77.47092
259.35        78.53703
259.81        80.94285
260.27        83.26345
260.72         83.8233
261.18        82.88829
261.63         80.8998
262.09        79.13227
262.55        78.24789
263.00        78.10113
263.46        78.53632
263.91        78.75745
264.37        78.23574
264.83        76.90974
265.28        75.06737
265.74        73.46704
266.19        72.61847
266.65        72.66323
267.11        73.22479
267.56        73.87714
268.02        73.97189
268.47        73.32236
268.93        72.20728
269.38        70.81075
269.84        69.50219
270.30        68.38474
270.75        67.32524
271.21        66.40803
271.66        65.67673
272.12        65.11828
272.57        64.68926
273.03        64.21906
273.48        63.38464
273.94        62.21754
274.39        60.78456
274.85         59.3729
275.31        58.17674
275.76        57.21474
276.22         56.4812
276.67        55.84407
277.13        55.28305
277.58        54.67157
278.04         54.0416
278.49        53.32219
278.95        52.57967
279.40        51.75234
279.86        50.96441
280.31        50.05471
280.77        48.96886
281.22        47.68787
281.68        46.36698
282.13        45.21441
282.59        44.65548
283.04        44.65122
283.50        45.07534
283.95        45.56768
284.41        45.58786
284.86        45.00316
285.32        44.03802
285.77        42.95035
286.22        42.19806
286.68         41.8695
287.13        41.76239
287.59        41.73493
288.04        41.50841
288.50         41.0555
288.95        40.45576
289.41        39.81515
289.86         39.1781
290.32         38.6244
290.77        38.09962
291.22        37.66165
291.68        37.38155
292.13        37.24731
292.59        37.27002
293.04        37.37632
293.50        37.47174
293.95        37.52396
294.40        37.56286
294.86        37.65818
295.31        37.90997
295.77        38.34188
296.22        38.89592
296.68        39.50224
297.13        40.03327
297.58        40.46469
298.04        40.83587
298.49        41.18866
298.95        41.61339
299.40         42.1184
299.85        42.67006
300.31        43.23641
300.76        43.75366
301.21         44.2058
301.67        44.62329
302.12        44.98521
302.58          45.332
303.03        45.63923
303.48        45.92249
303.94        46.19318
304.39        46.42197
304.84        46.62444
305.30         46.8171
305.75         46.9891
306.20        47.18897
306.66        47.43296
307.11        47.69118
307.57        47.93505
308.02        48.05537
308.47        48.05433
308.93        47.96718
309.38        47.86011
309.83        47.89896
310.29        48.10512
310.74        48.41673
311.19        48.70279
311.65        48.74434
312.10         48.4912
312.55        48.02181
313.00        47.48934
313.46        47.11971
313.91        46.95091
314.36        46.92767
314.82        46.94228
315.27         46.8335
315.72        46.55609
316.18        46.18497
316.63        45.79075
317.08        45.49684
317.53        45.33278
317.99        45.24519
318.44        45.19109
318.89        45.09324
319.35        44.92246
319.80        44.69891
320.25         44.4408
320.70        44.17631
321.16        43.91332
321.61        43.65915
322.06        43.39104
322.51        43.08092
322.97        42.72325
323.42        42.33434
323.87        41.97506
324.32        41.74625
324.78        41.64813
325.23        41.67812
325.68        41.70194
326.13        41.50572
326.59        41.04513
327.04        40.39788
327.49        39.72816
327.94        39.30019
328.39        39.16822
328.85        39.23841
329.30        39.39604
329.75        39.35169
330.20         39.0266
330.66         38.5122
331.11        37.95801
331.56        37.56796
332.01        37.40423
332.46        37.38744
332.92        37.44241
333.37        37.50489
333.82        37.50939
334.27        37.49037
334.72         37.4179
335.17         37.2355
335.63        36.94268
336.08        36.57332
336.53        36.20459
336.98        35.98703
337.43        35.95644
337.88        36.06358
338.34        36.24014
338.79        36.39955
339.24        36.47876
339.69        36.50351
340.14        36.43843
340.59        36.23224
341.05        35.90934
341.50        35.49388
341.95        35.09107
342.40         34.8633
342.85        34.84743
343.30        34.99537
343.75        35.23837
344.20        35.45662
344.66        35.60183
345.11        35.69468
345.56        35.72552
346.01        35.68621
346.46        35.58832
346.91        35.43465
347.36        35.25999
347.81        35.12785
348.26        35.05373
348.72        35.02323
349.17          35.022
349.62        35.03537
350.07        35.05162
350.52        35.08122
350.97        35.08112
351.42        34.98391
351.87        34.78534
352.32        34.50398
352.77        34.22754
353.22        34.08591
353.67        34.09926
354.13        34.23293
354.58        34.38445
355.03         34.3796
355.48        34.18121
355.93        33.84801
356.38        33.49776
356.83        33.30868
357.28        33.30977
357.73        33.42679
358.18        33.55908
358.63          33.546
359.08        33.34354
359.53         33.0177
359.98        32.61522
360.43        32.19815
360.88        31.79925
361.33        31.40327
361.78        31.05188
362.23        30.81544
362.68        30.70372
363.13        30.70153
363.58        30.73781
364.03        30.69398
364.48        30.53642
364.93          30.286
365.38        29.99891
365.83        29.77608
366.28        29.64313
366.73        29.56829
367.18        29.49233
367.63        29.32418
368.08         29.0466
368.53        28.69576
368.98        28.33633
369.43        28.06519
369.88        27.90738
370.33        27.83461
370.78        27.79123
371.23        27.68686
371.68        27.49539
372.13        27.24137
372.58        26.97612
373.03        26.77992
373.48        26.66929
373.93        26.61586
374.38        26.56293
374.83         26.4238
375.28        26.18325
375.72        25.87063
376.17        25.56231
376.62        25.33786
377.07        25.21803
377.52        25.17675
377.97        25.17288
378.42        25.14314
378.87        25.06628
379.32        24.95539
379.77        24.84021
380.22        24.76281
380.67        24.72769
381.11        24.72678
381.56        24.69955
382.01          24.577
382.46        24.35645
382.91         24.0771
383.36        23.81339
383.81        23.66363
384.26        23.63914
384.71        23.70275
385.15        23.79628
385.60        23.82401
386.05         23.7548
386.50        23.61785
386.95        23.43928
387.40        23.26211
387.85        23.10591
388.29        22.94632
388.74        22.81513
389.19        22.70061
389.64        22.59956
390.09        22.51457
390.54        22.44124
390.98        22.36423
391.43        22.29586
391.88        22.23653
392.33        22.18894
392.78        22.15829
393.23        22.14203
393.67        22.12106
394.12         22.1158
394.57        22.11441
395.02        22.11148
395.47        22.10156
395.91        22.07479
396.36        22.00404
396.81        21.90253
397.26        21.78732
397.71        21.67392
398.15        21.59704
398.60        21.58738
399.05         21.5418
399.50        21.48036
399.95        21.59118
400.39        21.80068
400.84        21.72097
401.29        21.38128
401.74        21.17093
402.18         21.1219
402.63         21.0085
403.08        20.85756
403.53        20.80385
403.97        20.85204
404.42        20.96927
404.87        21.09325
405.32        21.11997
405.76        21.02457
406.21        20.84711
406.66        20.65869
407.11        20.57364
407.55         20.6236
408.00        20.76656
408.45        20.93438
408.90        20.99538
409.34        20.91145
409.79        20.72987
410.24        20.52905
410.68         20.4124
411.13        20.40853
411.58        20.48463
412.03        20.58078
412.47        20.59665
412.92        20.50046
413.37         20.3368
413.81         20.1691
414.26        20.10317
414.71        20.15026
415.15        20.28226
415.60        20.43362
416.05        20.50963
416.49        20.48174
416.94         20.3793
417.39        20.25094
417.83         20.1687
418.28        20.15266
418.73        20.17632
419.17        20.22102
419.62        20.25874
420.07        20.27774
420.51        20.28463
420.96        20.28087
421.41        20.26075
421.85        20.21997
422.30        20.15394
422.74         20.0668
423.19        20.05729
423.64        20.09823
424.08        20.05968
424.53        19.95215
424.98         19.9482
425.42        20.06659
425.87        20.16343
426.31         20.2086
426.76        20.30342
427.21        20.37703
427.65        20.16124
428.10        19.76912
428.54        19.58194
428.99        19.64486
429.44        19.84364
429.88        20.06696
430.33        20.06223
430.77        19.86729
431.22        19.88229
431.66        20.10933
432.11        20.20493
432.56        20.17139
433.00        20.27824
433.45        20.42185
433.89         20.2811
434.34        19.99313
434.78        19.47246
435.23        19.85228
435.67        19.89445
436.12        19.88327
436.57         19.8657
437.01        19.83417
437.46        19.78472
437.90        19.70634
438.35        19.55026
438.79         19.3763
439.24         19.3395
439.68        19.45683
440.13        19.67911
440.57        19.92645
441.02        20.08334
441.46         20.1109
441.91        19.99591
442.35        19.80917
442.80        19.84477
443.24        20.03616
443.69        20.01367
444.13        19.79615
444.58        19.72918
445.02        19.81793
445.47        19.87494
445.91        19.87912
446.36         19.8911
446.80        19.90155
447.24        19.89335
447.69        19.87557
448.13        19.85626
448.58        19.84226
449.02        19.82925
449.47        19.81581
449.91        19.78783
450.36        19.75032
450.80        19.70607
451.25        19.66838
451.69        19.64313
452.13        19.63494
452.58        19.63659
453.02        19.64386
453.47        19.65352
453.91        19.66138
454.36        19.67014
454.80        19.66529
455.24        19.62318
455.69        19.54911
456.13        19.44019
456.58        19.34027
457.02        19.28434
457.46        19.28761
457.91        19.33646
458.35        19.38734
458.79        19.37657
459.24        19.30838
459.68        19.19419
460.13        19.09197
460.57        19.04057
461.01        19.06516
461.46        19.13306
461.90        19.23356
462.34         19.3342
462.79        19.41191
463.23        19.47896
463.68        19.50998
464.12         19.4763
464.56         19.3772
465.01        19.25276
465.45        19.11098
465.89        19.01512
466.34        18.97513
466.78        18.96902
467.22        18.99934
467.67         19.0502
468.11        19.12072
468.55        19.20427
468.99        19.27466
469.44        19.28755
469.88          19.238
470.32        19.13784
470.77        19.02375
471.21        18.96085
471.65        18.96444
472.10         19.0184
472.54        19.09452
472.98        19.15373
473.42        19.18174
473.87        19.19562
474.31        19.19003
474.75        19.17455
475.20        19.15885
475.64        19.13372
476.08        19.11034
476.52        19.09678
476.97        19.09711
477.41        19.12155
477.85         19.1732
478.29         19.2268
478.74        19.29197
479.18        19.41227
479.62        19.56278
480.06        19.67093
480.50        19.72989
480.95        19.75139
481.39        19.72177
481.83        19.80937
482.27        19.72769
482.72        19.71977
483.16        19.73039
483.60        19.74994
484.04        19.77481
484.48        19.93501
484.93        20.24137
485.37        20.09567
485.81        20.20249
486.25        20.27476
486.69        20.68779
487.14        20.47734
487.58        20.79158
488.02        21.03397
488.46        20.45131
488.90        20.69207
489.34        20.77426
489.79        20.97059
490.23        21.01459
490.67         21.2256
491.11        21.53378
491.55        21.54439
491.99        21.32704
492.43        21.28946
492.88        21.46892
493.32        21.64562
493.76        21.78163
494.20        21.92752
494.64         22.0793
495.08        22.18257
495.52        22.25268
495.96        22.45823
496.41        22.75473
496.85         22.7897
497.29        22.60957
497.73        22.81716
498.17        23.07915
498.61         23.2496
499.05        23.21478
499.49        23.22823
499.93        23.25536
500.37        23.40856
500.82        23.64287
501.26        23.82099
501.70        23.92394
502.14        24.04241
502.58        24.18562
503.02        24.31858
503.46        24.43969
503.90        24.55579
504.34        24.65509
504.78        24.71912
505.22          24.747
505.66        24.74722
506.10        24.73798
506.54        24.74866
506.98        24.78769
507.42        24.84672
507.86        24.92103
508.30        25.00053
508.74         25.0798
509.18        25.16362
509.62        25.23999
510.06        25.29025
510.50        25.31229
510.94        25.30778
511.38        25.30267
511.82         25.3401
512.26        25.42731
512.70        25.55249
513.14         25.6784
513.58        25.74351
514.02        25.73576
514.46        25.67599
514.90        25.60513
515.34        25.58941
515.78        25.64435
516.22        25.74559
516.66        25.86166
517.10        25.94263
517.54        25.97198
517.98        25.96594
518.42        25.93311
518.86        25.88717
519.30        25.83612
519.74        25.77483
520.18        25.71415
520.62        25.67129
521.06        25.65112
521.50        25.65626
521.93        25.67264
522.37        25.66529
522.81        25.63071
523.25        25.57295
523.69        25.51914
524.13        25.51311
524.57        25.55722
525.01        25.63203
525.45        25.69259
525.89        25.66754
526.32        25.54253
526.76        25.35422
527.20        25.14569
527.64        24.98594
528.08        24.89548
528.52        24.85146
528.96        24.84428
529.40        24.85714
529.83        24.87784
530.27        24.91558
530.71        24.94177
531.15        24.91255
531.59          24.822
532.03        24.67663
532.46        24.51995
532.90        24.44139
533.34        24.45189
533.78        24.51311
534.22        24.56907
534.66        24.56216
535.09        24.45963
535.53        24.23774
535.97        23.96655
536.41        23.81659
536.85        23.81639
537.28         23.8933
537.72        24.00925
538.16        24.11974
538.60        24.20139
539.04        24.26995
539.47        24.32111
539.91        24.36304
540.35        24.39693
540.79        24.41942
541.22         24.4477
541.66        24.52147
542.10        24.64273
542.54        24.80011
542.97        24.96634
543.41        25.10693
543.85        25.21008
544.29        25.29225
544.72        25.36195
545.16        25.44999
545.60        25.56135
546.04        25.69035
546.47        25.84602
546.91        26.03793
547.35        26.25822
547.79        26.50089
548.22        26.73736
548.66        26.91829
549.10        27.06758
549.53        27.18709
549.97        27.29757
550.41         27.3725
550.84        27.45112
551.28        27.60069
551.72        27.79482
552.15        28.01183
552.59        28.27555
553.03         28.1806
553.46        28.57673
553.90         28.6873
554.34        28.75176
554.77        28.85321
555.21        29.04018
555.65        28.95662
556.08        29.24788
556.52        29.36937
556.96        29.48622
557.39        29.61921
557.83        29.74422
558.27        29.69644
558.70        29.52945
559.14        29.52472
559.57        29.68207
560.01        29.83141
560.45        29.94361
560.88        30.07579
561.32        30.22801
561.75        30.33795
562.19        30.41806
562.63        30.49686
563.06        30.57315
563.50        30.63757
563.93        30.67297
564.37        30.73731
564.80        30.84678
565.24        30.91761
565.68        30.88346
566.11        31.31132
566.55        31.07601
566.98        31.11655
567.42         31.1705
567.85        31.31283
568.29         31.5585
568.72        31.90826
569.16        32.33852
569.60        32.57916
570.03        32.71392
570.47        32.85509
570.90        33.10791
571.34        32.86177
571.77        33.18139
572.21        33.57732
572.64        33.71044
573.08         33.8502
573.51        33.73113
573.95        33.98503
574.38        34.50805
574.82        34.61348
575.25        34.17865
575.69        34.13198
576.12        34.22972
576.56        34.16072
576.99        34.58849
577.42        34.54833
577.86        34.41119
578.29        34.88264
578.73        34.86912
579.16        34.76315
579.60        34.22921
580.03        34.17464
580.47        34.21431
580.90        34.34982
581.33        34.30966
581.77        34.61393
582.20        34.26869
582.64        34.33122
583.07        33.87601
583.51        33.68327
583.94        33.66246
584.37        33.58921
584.81        33.44416
585.24        33.29654
585.68        33.18306
586.11        32.92179
586.54        32.81736
586.98        32.62741
587.41        32.40091
587.85        32.64002
588.28        32.41605
588.71        32.19146
589.15         32.2035
589.58        32.17895
590.01        31.95477
590.45        32.04654
590.88        32.29345
591.31         32.2985
591.75        32.13306
592.18        31.99217
592.61        31.90074
593.05        32.49837
593.48        32.98752
593.91        32.47315
594.35        32.58758
594.78        32.35763
595.21        32.38619
595.65        32.72136
596.08        33.35947
596.51        33.50453
596.94        33.50362
597.38        33.56624
597.81        33.78492
598.24        34.37131
598.68        34.13197
599.11        34.51847
599.54        35.42807
599.97        35.22408
600.41        35.74382
600.84        35.73196
601.27        36.25761
601.70        36.40447
602.14        36.73831
602.57        37.05668
603.00        37.58919
603.43        37.70609
603.87        38.75169
604.30        39.20081
604.73        39.59929
605.16        39.14038
605.60        39.75822
606.03        40.01652
606.46        40.40765
606.89        40.83627
607.32        41.40456
607.76        41.85306
608.19        42.30256
608.62        42.66017
609.05         43.0289
609.48        43.29515
609.92        44.02736
610.35        44.09075
610.78        44.07803
611.21        44.16571
611.64        44.61772
612.07        45.09555
612.50        45.35891
612.94        45.63531
613.37         45.8028
613.80        46.13632
614.23        45.80595
614.66        46.08884
615.09        46.67592
615.52        47.08307
615.96         47.2539
616.39        47.49657
616.82        47.82651
617.25        48.01392
617.68        48.09939
618.11        48.33766
618.54        48.70209
618.97        48.87203
619.40        48.85015
619.84        49.08093
620.27        49.10987
620.70        49.31223
621.13        49.50259
621.56        49.31173
621.99        48.81549
622.42         48.9314
622.85        49.34128
623.28        49.17556
623.71        49.35525
624.14        49.49176
624.57        49.65928
625.00        49.78284
625.43        49.80224
625.86        49.64268
626.29        49.37758
626.72        49.00938
627.15        49.00937
627.58        48.90577
628.01        48.77723
628.44        48.61722
628.87        48.42542
629.30        48.12916
629.73         47.7366
630.16        47.67609
630.59        47.37169
631.02        47.12218
631.45        46.99048
631.88         46.7445
632.31        46.44457
632.74        46.09935
633.17        45.71857
633.60         45.2957
634.03        44.84022
634.46        44.36114
634.89        43.87435
635.32         43.4159
635.75         42.9984
636.18        42.56693
636.61        42.14724
637.04        41.80088
637.47        41.52494
637.89         41.2966
638.32        41.04594
638.75        40.70228
639.18        40.25627
639.61        39.73719
640.04        39.22717
640.47        38.85097
640.90        38.63686
641.33        38.55346
641.76        38.53037
642.18        38.45319
642.61        38.27985
643.04        38.05082
643.47        37.83072
643.90        37.72277
644.33        37.75003
644.76        37.87522
645.18        38.03889
645.61        38.13881
646.04        38.15622
646.47        38.13023
646.90        38.11739
647.33        38.20368
647.75        38.40352
648.18        38.71222
648.61        39.11475
649.04        39.49728
649.47        39.78425
649.89        40.47583
650.32        40.53746
650.75        40.99889
651.18         41.5435
651.61        42.07234
652.03        42.57376
652.46        43.09278
652.89        43.63856
653.32        44.07744
653.74        44.52133
654.17        44.88585
654.60        45.51739
655.03        45.72536
655.46        45.91636
655.88        46.20176
656.31        49.23587
656.74        52.76202
657.16        52.03401
657.59        51.27708
658.02        49.66151
658.45        49.77937
658.87        50.18152
659.30        50.47777
659.73        50.46994
660.15        51.94645
660.58        51.02318
661.01        51.24966
661.44        51.52048
661.86        51.64701
662.29        51.59425
662.72        52.19352
663.14        52.42487
663.57        52.63158
664.00        52.61027
664.42        52.86276
664.85        53.41262
665.27        53.99559
665.70        54.46637
666.13         54.7582
666.55        54.84005
666.98        54.67831
667.41        54.37778
667.83        54.46592
668.26        54.42868
668.69         54.6725
669.11        54.98024
669.54        55.26969
669.96        55.51182
670.39        55.73433
670.82        55.93464
671.24        56.10032
671.67        56.23332
672.09        56.25344
672.52        56.22524
672.94        56.37426
673.37        56.64875
673.80        56.68165
674.22        56.52214
674.65        56.52941
675.07        56.74025
675.50         56.9352
675.92        57.08309
676.35        57.21983
676.77        57.33489
677.20        57.41171
677.62        57.47771
678.05        57.57808
678.47        57.71881
678.90        57.89364
679.32        58.06285
679.75        58.17306
680.17        58.21106
680.60        58.20016
681.02        58.18884
681.45        58.24536
681.87        58.39681
682.30        58.61858
682.72        58.87221
683.15        59.05162
683.57        59.15651
684.00        59.21472
684.42        59.26172
684.85        59.44464
685.27        59.58792
685.70        59.83189
686.12        60.07137
686.54         60.2421
686.97        60.32195
687.39        60.33933
687.82        60.32001
688.24        60.31802
688.66        60.34918
689.09        60.39958
689.51        60.46716
689.94        60.52171
690.36        60.56447
690.78        60.59029
691.21        60.63533
691.63        60.74581
692.06        60.93053
692.48        61.18606
692.90        61.42842
693.33        61.52886
693.75        61.46136
694.17        61.23327
694.60        60.99794
695.02        60.99953
695.44        61.25639
695.87        61.74575
696.29        62.27788
696.71        62.24874
697.14        61.75825
697.56        61.59925
697.98        61.83816
698.41        61.95837
698.83        61.96154
699.25        62.22644
699.68        62.62441
700.10        62.79983
700.52        62.68443
700.94        62.40227
701.37        62.10481
701.79         62.0404
702.21        62.25845
702.64        62.65316
703.06        63.10532
703.48        63.40733
703.90        63.49472
704.33        63.44059
704.75        63.29246
705.17        63.11723
705.59        62.96173
706.01        62.80558
706.44        62.71045
706.86        62.80054
707.28        63.07386
707.70        63.48264
708.12        63.92499
708.55         64.2487
708.97        64.40142
709.39        64.36683
709.81        64.21061
710.23        64.11992
710.66        64.13792
711.08        64.20219
711.50        64.26302
711.92        64.28113
712.34        64.24691
712.76        64.19368
713.19        64.13301
713.61        64.11279
714.03        64.13494
714.45        64.19123
714.87        64.29614
715.29        64.47658
715.71         64.7231
716.13        65.01025
716.56        65.27956
716.98        65.50522
717.40         65.6264
717.82        65.68385
718.24        65.67331
718.66         65.4415
719.08        65.25703
719.50        64.96614
719.92        64.71645
720.34        64.61391
720.76        64.68295
721.19        64.86356
721.61        65.15067
722.03        65.48624
722.45        65.82156
722.87        66.15469
723.29        66.39005
723.71        66.37926
724.13        66.11287
724.55        65.65046
724.97        65.15354
725.39        64.87447
725.81        64.88248
726.23        65.12312
726.65        65.50492
727.07        65.82936
727.49        66.09766
727.91        66.30042
728.33         66.4714
728.75        66.63644
729.17        66.79806
729.59        66.91855
730.01        66.98712
730.43        67.00591
730.85        66.98122
731.27        66.92601
731.69        66.82406
732.10        66.71702
732.52        66.62437
732.94        66.41626
733.36        66.12132
733.78        66.42929
734.20        66.14253
734.62        66.47619
735.04        67.02981
735.46        66.74702
735.88        66.98704
736.30        67.15949
736.72        67.64586
737.13        68.05876
737.55        68.22477
737.97         68.2349
738.39        68.06805
738.81         67.5318
739.23         66.8617
739.65        66.87746
740.06        67.46651
740.48          67.785
740.90        67.76589
741.32         67.8642
741.74        68.20277
742.16        68.34435
742.57        68.31121
742.99         68.1793
743.41        68.01041
743.83        67.88278
744.25        67.82577
744.67        67.80074
745.08        67.84457
745.50        67.99226
745.92        68.23714
746.34        68.55617
746.75        68.84046
747.17        68.90222
747.59        68.72347
748.01        68.36749
748.42        67.96337
748.84        67.76711
749.26        67.84838
749.68        67.99976
750.09        68.16532
750.51        68.57378
750.93        69.02174
751.35        68.83428
751.76        68.15853
752.18        67.85123
752.60        67.97631
753.01        68.09406
753.43        68.10843
753.85        68.08864
754.27        68.02508
754.68        67.93739
755.10        67.87974
755.52        67.92492
755.93        68.06591
756.35        68.24695
756.77        68.50467
757.18        68.73718
757.60        68.91149
758.02        69.40648
758.43        70.03549
758.85        69.30295
759.26         68.8648
759.68         68.2646
760.10        68.58154
760.51        69.04957
760.93        69.44943
761.34        69.57079
761.76        69.52341
762.18        69.46094
762.59        69.51636
763.01        69.54469
763.42        69.59602
763.84        69.57872
764.26        69.51762
764.67        69.49539
765.09        69.52997
765.50        69.43324
765.92        69.27419
766.33         69.1963
766.75         69.1463
767.16        69.13506
767.58        69.12689
768.00        69.02921
768.41        68.95506
768.83        69.32977
769.24        69.96691
769.66        70.16301
770.07        69.91309
770.49        69.55261
770.90         69.3105
771.32        69.73413
771.73        70.63676
772.15        70.96384
772.56        70.64394
772.97        70.25968
773.39        69.96836
773.80        69.80788
774.22        69.74266
774.63         69.8871
775.05         70.0844
775.46        70.18647
775.88        70.12097
776.29        69.96229
776.70        69.80123
777.12        69.80679
777.53        70.01939
777.95         70.3262
778.36        70.64776
778.77        70.82207
779.19         70.8426
779.60        70.76415
780.02        70.57839
780.43         70.4977
780.84        70.62305
781.26        70.04636
781.67        69.85818
782.09        70.57438
782.50        72.03411
782.91        72.04406
783.33        70.74738
783.74        70.24718
784.15         70.6357
784.57        70.77222
784.98        70.62683
785.39        70.50282
785.81        70.50026
786.22         70.9859
786.63        71.79136
787.04        72.14586
787.46        72.01952
787.87        71.89598
788.28        71.87638
788.70        71.81272
789.11        71.70975
789.52        71.73706
789.93         71.8187
790.35        71.63834
790.76        71.24748
791.17        71.02902
791.58        71.03104
792.00        70.93269
792.41        70.73847
792.82        70.97064
793.23         71.1087
793.65        71.12823
794.06        70.98787
794.47          71.256
794.88        71.79414
795.29        72.13725
795.71        71.85401
796.12        71.67876
796.53        71.58989
796.94        71.43214
797.35        71.31496
797.76        71.63391
798.18        72.22543
798.59        72.49367
799.00        72.33888
799.41        72.05566
799.82        71.77735
800.23         71.6161
800.64        71.62414
801.06        71.72868
801.47        71.89296
801.88        71.96042
802.29        71.88774
802.70        71.73074
803.11        71.53581
803.52        71.37231
803.93        71.29056
804.34        71.27873
804.75        71.35559
805.17        71.60681
805.58        72.06531
805.99        72.46054
806.40        72.76714
806.81        73.43043
807.22        74.16977
807.63        73.89832
808.04        72.80067
808.45        72.10385
808.86        71.98985
809.27        71.97985
809.68        71.98998
810.09         72.0119
810.50        72.01221
810.91        72.06246
811.32        72.22427
811.73        72.53033
812.14        72.97076
812.55        73.51423
812.96        73.99761
813.37        74.12644
813.78        73.83712
814.19         73.2532
814.60         72.5656
815.01        72.02947
815.42        71.71035
815.83        71.53661
816.24        71.50443
816.65        71.59554
817.05        71.78719
817.46        72.06765
817.87        72.34956
818.28         72.4409
818.69        72.30894
819.10        71.97446
819.51        71.61517
819.92        71.56719
820.33        71.90852
820.74         72.5336
821.14        73.20846
821.55        73.54993
821.96         73.4681
822.37        73.08146
822.78        72.58414
823.19        72.30666
823.60         72.3556
824.00        72.65443
824.41         73.0321
824.82        73.31175
825.23        73.41021
825.64        73.38925
826.04        73.30421
826.45        73.19433
826.86        73.10284
827.27        73.02048
827.68        72.92918
828.08        72.83715
828.49        72.69691
828.90        72.53127
829.31        72.42569
829.72        72.51102
830.12        72.82625
830.53        73.27647
830.94        73.68443
831.35        73.70076
831.75        73.27157
832.16        72.48686
832.57        71.64444
832.97        71.19415
833.38        71.24915
833.79        71.65694
834.20        72.22706
834.60        72.65162
835.01        72.83712
835.42        72.91943
835.82        72.94349
836.23         72.9016
836.64        72.85087
837.04        72.73309
837.45         72.6936
837.86        73.05154
838.26        73.85795
838.67        74.97453
839.08         76.0159
839.48        76.24482
839.89        75.49522
840.29        74.05327
840.70        72.53103
841.11         71.6165
841.51        71.49464
841.92        71.94515
842.33        72.75758
842.73         73.5469
843.14        74.03306
843.54        74.37159
843.95        74.59344
844.35        74.81205
844.76        75.03548
845.17        75.18955
845.57        75.23112
845.98        75.09035
846.38        74.79296
846.79        74.38405
847.19         73.9665
847.60        73.66357
848.00        73.52815
848.41        73.50939
848.81        73.58959
849.22        73.64098
849.62        73.66929
850.03        73.69513
850.43        73.73829
850.84        73.75963
851.24        73.80425
851.65        73.79522
852.05        73.87052
852.46        74.15187
852.86        74.63308
853.27        75.24378
853.67        75.72547
854.07        75.85043
854.48        75.56196
854.88        74.97328
855.29        74.20712
855.69        73.64001
856.10         73.3402
856.50        73.30567
856.90        73.42815
857.31        73.53766
857.71        73.61784
858.12        73.63439
858.52        73.65701
858.92        73.67371
859.33        73.66489
859.73        73.67865
860.13        73.59178
860.54        73.24072
860.94        72.67266
861.34        71.93841
861.75          71.301
862.15        71.22778
862.55        71.78014
862.96        72.77303
863.36         73.9119
863.76        74.59172
864.17        74.61018
864.57         74.1638
864.97        73.40852
865.38        72.61461
865.78        71.92937
866.18        71.27114
866.58        70.73767
866.99        70.50565
867.39        70.63203
867.79        71.09501
868.19        71.70512
868.60        72.11517
869.00        72.26707
869.40        72.19524
869.80         72.0477
870.21         72.1236
870.61        72.54958
871.01        73.14794
871.41        73.66931
871.81        73.78009
872.22        73.42386
872.62        72.71255
873.02        71.91119
873.42        71.46217
873.82        71.49487
874.22        71.88008
874.63        72.35916
875.03        72.53545
875.43        72.29249
875.83        71.76575
876.23        71.16815
876.63        70.81783
877.03        70.80339
877.44        71.00521
877.84        71.29184
878.24        71.44804
878.64        71.37301
879.04        71.02459
879.44        70.62545
879.84        70.60091
880.24        70.98521
880.64        71.59415
881.04        72.12558
881.44        72.11436
881.84        71.47044
882.24        70.38757
882.65        69.20547
883.05        68.43608
883.45         68.2368
883.85        68.47355
884.25        68.99333
884.65        69.51874
885.05        69.92646
885.45        70.28366
885.85        70.60236
886.25        70.90256
886.65        71.19662
887.05        71.44807
887.45        71.63743
887.85        71.76426
888.25        71.82033
888.65        71.79491
889.04         71.7317
889.44        71.72489
889.84        71.77312
890.24        71.86732
890.64         71.8929
891.04        71.66367
891.44        71.17081
891.84        70.50424
892.24        69.86642
892.64        69.54324
893.04         69.6062
893.44        69.99847
893.83        70.56668
894.23        70.99387
894.63        71.20144
895.03        71.22294
895.43        71.23588
895.83        71.54668
896.23        72.18163
896.63        72.99884
897.02        73.65711
897.42        73.65629
897.82        72.92377
898.22        71.69868
898.62        70.35432
899.01        69.42686
899.41        69.08405
899.81        69.15453
900.21        69.50047
900.61        69.88818
901.00         70.2037
901.40        70.50286
901.80        70.72974
902.20         70.7816
902.59        70.66582
902.99        70.39459
903.39        70.05542
903.79        69.81599
904.18        69.71814
904.58        69.71378
904.98        69.83772
905.38        70.14075
905.77        70.60501
906.17        71.24455
906.57        71.82397
906.96        71.95001
907.36        71.54473
907.76         70.7343
908.15        69.93976
908.55        69.81796
908.95        70.50744
909.34        71.80473
909.74        73.20722
910.14        73.96745
910.53        73.83842
910.93         73.0747
911.33        71.97624
911.72        70.99472
912.12        70.37164
912.52        70.00106
912.91        69.81599
913.31        69.74022
913.70        69.74062
914.10        69.81966
914.49        70.10998
914.89        70.71449
915.29         71.6228
915.68        72.75436
916.08        73.71049
916.47        73.93347
916.87        73.34629
917.26        72.13286
917.66        70.82911
918.05        70.08241
918.45        70.05405
918.84          70.605
919.24        71.40137
919.64        71.97645
920.03        72.17358
920.42        72.09914
920.82        71.96601
921.21          72.051
921.61        72.39422
922.00        72.90073
922.40        73.35776
922.79        73.57419
923.19        73.46132
923.58        73.15323
923.98        72.76244
924.37        72.36732
924.77        72.03777
925.16        71.70037
925.55        71.47531
925.95        71.54724
926.34        71.93798
926.74        72.56243
927.13        73.11478
927.52        73.03741
927.92        72.30068
928.31        71.09366
928.70        69.83567
929.10        69.14092
929.49        69.14168
929.89        69.58694
930.28        70.35982
930.67        71.12174
931.07        71.68723
931.46        72.25333
931.85        72.57143
932.24         72.2905
932.64        71.45927
933.03        70.13836
933.42        68.95383
933.82         68.8413
934.21        69.95266
934.60         72.0719
934.99        74.45002
935.39        75.70518
935.78        75.47335
936.17        74.04017
936.56        72.16298
936.96        71.06082
937.35        71.05709
937.74         71.7891
938.13        72.66888
938.53        72.78176
938.92        71.93931
939.31        70.55456
939.70        69.13361
940.09        68.35777
940.49        68.36503
940.88        68.93179
941.27        69.84326
941.66         70.7167
942.05        71.36048
942.44        71.88841
942.84        72.25472
943.23          72.374
943.62        72.26899
944.01        71.90845
944.40        71.48042
944.79        71.34352
945.18        71.55515
945.57        72.00466
945.97        72.41654
946.36        72.40818
946.75        71.85182
947.14        70.97572
947.53        69.96689
947.92        69.06307
948.31        68.37423
948.70        67.83397
949.09        67.59135
949.48        67.90252
949.87        68.77092
950.26         70.0974
950.65        71.52706
951.04        72.45939
951.43        72.70863
951.82        72.39955
952.21        71.77024
952.60        71.25312
952.99        71.01151
953.38        70.94734
953.77        70.99256
954.16        71.04187
954.55        71.03966
954.94        71.00606
955.33        70.98961
955.72        71.04004
956.11        71.15671
956.50        71.34238
956.89        71.37824
957.28        70.92258
957.66        69.95639
958.05        68.66532
958.44        67.51273
958.83        67.15999
959.22        67.70113
959.61        68.93716
960.00        70.38815
960.39        71.14682
960.78        70.92026
961.16        69.97614
961.55        68.79138
961.94        67.97658
962.33        67.71726
962.72        67.86594
963.11        68.25355
963.49        68.60096
963.88        68.70609
964.27        68.66091
964.66        68.68731
965.04        69.13097
965.43         69.9966
965.82         71.2382
966.21        72.35292
966.60        72.41685
966.98        71.21806
967.37        69.16147
967.76        67.14273
968.15        66.29636
968.53        66.81624
968.92        68.44366
969.31        70.44189
969.69        71.32394
970.08        70.55141
970.47        68.64291
970.86        66.63629
971.24         65.9819
971.63        66.97934
972.02        69.22746
972.40        71.91731
972.79        73.14431
973.17        72.37599
973.56        70.29025
973.95        67.91321
974.33        66.56276
974.72        66.52994
975.11        67.37301
975.49        68.66993
975.88        69.54437
976.26        69.70493
976.65        69.40889
977.04        68.87667
977.42        68.37881
977.81        68.00621
978.19        67.63158
978.58        67.40529
978.96        67.57671
979.35        68.12805
979.74         69.0112
980.12        70.02784
980.51        70.54282
980.89        70.51774
981.28        70.13027
981.66        69.59622
982.05        69.21106
982.43        69.09501
982.82        69.10828
983.20        69.50747
983.59        70.63095
983.97         72.5439
984.35        75.07378
984.74        77.41631
985.12        78.46535
985.51        77.87868
985.89        76.02304
986.28        73.75266
986.66        72.28778
987.04        72.03561
987.43        72.66275
987.81        73.79486
988.20        74.52639
988.58        74.55898
988.96        74.09249
989.35        73.46976
989.73        73.14832
990.12        73.21513
990.50        73.53017
990.88        73.70364
991.27        73.14021
991.65        71.78561
992.03        69.93129
992.42        68.23331
992.80        67.50823
993.18         67.9246
993.56        69.26175
993.95         70.9072
994.33        71.87568
994.71        71.71089
995.10         70.8475
995.48        69.77013
995.86        69.30555
996.24        69.65586
996.63        70.34547
997.01        71.42767
997.39         72.6155
997.77        73.62584
998.15        74.63255
998.54         75.0489
998.92        73.86278
999.30        71.21198
999.68        67.52547
1000.06        64.15859
1000.45        63.01871
1000.83        64.58875
1001.21        68.51479
1001.59        73.64372
1001.97        77.07876
1002.35        77.56918
1002.73        75.89307
1003.12        73.52735
1003.50          72.381
1003.88        73.03563
1004.26        74.79664
1004.64          77.095
1005.02        78.75838
1005.40         79.2141
1005.78        79.02077
1006.16        78.18745
1006.54        76.63988
1006.92        74.63573
1007.30        72.24802
1007.69        70.30264
1008.07         69.8271
1008.45        71.10854
1008.83        73.90244
1009.21        77.37934
1009.59        79.39613
1009.97        78.93814
1010.35        76.68696
1010.73        73.38514
1011.11        70.13387
1011.49        67.47034
1011.86        65.15494
1012.24        63.64983
1012.62        63.54259
1013.00        64.83422
1013.38        67.52012
1013.76        70.84828
1014.14        72.76737
1014.52        72.34766
1014.90        70.06807
1015.28        67.12184
1015.66        65.27789
1016.04        64.95712
1016.41        65.66175
1016.79        66.93475
1017.17        67.99763
1017.55        68.48804
1017.93        68.67112
1018.31         68.6815
1018.69        68.64117
1019.06        68.65503
1019.44        68.67828
1019.82        68.58414
1020.20         68.2309
1020.58        67.61414
1020.95        66.68711
1021.33        66.11371
1021.71        66.54245
1022.09        68.08299
1022.46        70.94607
1022.84        74.00736
1023.22        74.60299
1023.60        71.89464
1023.97        66.64553
1024.35        61.82789
1024.73        60.82825
