SpectraSmart Spectrum 2.9.0.0
--------- Device Information -----------
Spectrum Name :  反射率_0
Saving Time :  2024/04/27 00:17:33
Spectro-Module Model Name : SE2030-DUVN
Spectro-Module Serial Number : OS361AC55029948
Wavelength Start : 200
Wavelength End : 1025
Wavelength Unit : Wavelength(nm)
Spectrum Unit : Reflectance(%)
-----------Spectrum Setting ------------
Integration Time : 20ms
Average : 10
Boxcar : 0
Background removal :  enabled
linearity correction :  enabled
SC :  disabled
Intensity correction :  disabled
DWT denoise :  enabled
savitzky-golay :  disabled
FFT :  disabled
Running average :  disabled
Kalman :  disabled
High pass :  disabled
---------------BEGIN--------------------
Wavelength(nm)             Reflectance(%)
200.29               0
200.75        18.89845
201.21        18.82006
201.67        19.03547
202.13        19.42153
202.58        19.91336
203.04        21.24924
203.50        23.09331
203.96        23.95895
204.42        22.94221
204.88        19.60068
205.34        16.44641
205.80         18.1954
206.26         24.7588
206.72           33.36
207.18        39.74554
207.64         40.2842
208.10        34.71375
208.55        22.92493
209.01        5.468697
209.47       -5.125793
209.93      -0.8921887
210.39        10.38244
210.85        20.71013
211.31        27.20132
211.77        31.54967
212.23        36.71423
212.69        47.52356
213.14        71.58181
213.60        81.13038
214.06        71.25877
214.52        61.54861
214.98        56.26583
215.44        53.08681
215.90        50.18565
216.36        47.65383
216.81        45.72161
217.27        44.70379
217.73        45.09594
218.19        46.26174
218.65        45.44938
219.11        42.71945
219.57        39.99212
220.02        39.11388
220.48        41.65905
220.94        47.78879
221.40        58.50072
221.86        73.79373
222.32        84.50455
222.77        81.97068
223.23        72.32256
223.69        62.09236
224.15        55.06871
224.61        50.91394
225.06         47.9111
225.52        46.37354
225.98        46.50001
226.44        47.93421
226.90        50.57296
227.36        53.04976
227.81        52.96196
228.27        50.30051
228.73          46.132
229.19        42.40802
229.65        41.33326
230.10        42.96374
230.56        46.45234
231.02        50.37431
231.48        52.43008
231.93        52.06163
232.39        50.41084
232.85        48.50178
233.31        47.68922
233.77        48.17358
234.22        49.45661
234.68         51.0115
235.14        52.19426
235.60        52.75963
236.05         52.9621
236.51        52.84931
236.97        52.52549
237.43         52.0974
237.88        51.58218
238.34        51.01741
238.80        50.71306
239.26        50.80856
239.71        51.60095
240.17        53.03418
240.63        55.25206
241.08        58.32042
241.54        61.82323
242.00        65.90527
242.46        71.24664
242.91        79.00948
243.37        89.57915
243.83        102.9835
244.28        113.2465
244.74         110.977
245.20        96.51814
245.66        78.53632
246.11        63.28064
246.57         51.2746
247.03        41.06951
247.48        33.03857
247.94         28.9248
248.40         28.8892
248.85        31.03827
249.31        33.94843
249.77        36.83194
250.22        39.73406
250.68        43.07882
251.14         46.8803
251.59        50.00937
252.05        51.49643
252.51        51.78625
252.96        50.32937
253.42        47.16912
253.88          43.066
254.33        38.45452
254.79        35.87556
255.25        37.27275
255.70        42.22387
256.16        49.83691
256.62         56.8668
257.07        58.30222
257.53        55.16381
257.99        50.38102
258.44        46.60567
258.90        46.24168
259.35        48.28378
259.81        51.68904
260.27        54.78821
260.72        55.53772
261.18        54.15668
261.63        51.50947
262.09        49.03588
262.55        47.76193
263.00        47.59933
263.46        48.15916
263.91        48.63717
264.37        48.29495
264.83        47.08219
265.28        45.37004
265.74        43.86029
266.19        43.14361
266.65        43.32282
267.11        44.02282
267.56        44.82177
268.02         45.0616
268.47        44.56427
268.93        43.60403
269.38        42.36098
269.84        41.16125
270.30        40.12006
270.75        39.12537
271.21        38.30224
271.66         37.7892
272.12        37.58216
272.57        37.63594
273.03        37.69531
273.48        37.32286
273.94        36.48937
274.39        35.30015
274.85        34.11024
275.31        33.28631
275.76        32.87386
276.22        32.78393
276.67        32.76809
277.13        32.55797
277.58        32.05803
278.04        31.39753
278.49        30.71188
278.95        30.30817
279.40        30.16833
279.86        30.22606
280.31        30.23265
280.77        29.94876
281.22        29.31297
281.68        28.50565
282.13        27.68085
282.59        27.12375
283.04        26.85079
283.50        26.78309
283.95        26.80264
284.41        26.74073
284.86        26.54224
285.32        26.28747
285.77        26.00967
286.22        25.80665
286.68        25.69613
287.13        25.60835
287.59        25.52482
288.04        25.38124
288.50        25.18965
288.95        24.95542
289.41        24.71369
289.86        24.45154
290.32         24.2051
290.77        23.95822
291.22        23.75441
291.68        23.64373
292.13        23.62423
292.59        23.70292
293.04        23.82759
293.50        23.93557
293.95        24.00299
294.40        24.04313
294.86         24.1202
295.31        24.32832
295.77        24.68488
296.22        25.15155
296.68        25.62961
297.13        25.95359
297.58        26.10117
298.04        26.12595
298.49        26.15067
298.95        26.38539
299.40        26.85888
299.85        27.49244
300.31        28.14777
300.76        28.60788
301.21         28.8214
301.67        28.87041
302.12        28.82643
302.58        28.85009
303.03        28.96126
303.48        29.12573
303.94        29.30857
304.39        29.43367
304.84        29.49314
305.30         29.5273
305.75         29.5388
306.20         29.5728
306.66         29.6449
307.11        29.72584
307.57        29.80388
308.02        29.82658
308.47        29.79296
308.93        29.72238
309.38         29.6351
309.83        29.60121
310.29        29.63166
310.74        29.70285
311.19        29.75917
311.65        29.70753
312.10        29.52759
312.55        29.24964
313.00        28.95736
313.46        28.77326
313.91        28.71078
314.36         28.7422
314.82        28.77886
315.27        28.68532
315.72        28.43082
316.18        28.06918
316.63         27.6905
317.08        27.44516
317.53        27.36385
317.99        27.39271
318.44        27.45037
318.89        27.39508
319.35         27.1899
319.80        26.88092
320.25        26.53581
320.70        26.26115
321.16        26.08631
321.61         25.9857
322.06        25.91216
322.51        25.79386
322.97        25.60451
323.42        25.36796
323.87        25.12628
324.32        24.94914
324.78        24.84133
325.23        24.79329
325.68        24.72496
326.13        24.51383
326.59        24.14106
327.04        23.66508
327.49        23.19234
327.94        22.88622
328.39        22.78156
328.85        22.82105
329.30        22.94013
329.75        22.97492
330.20        22.87209
330.66        22.67493
331.11        22.44499
331.56        22.26461
332.01        22.16138
332.46        22.09808
332.92          22.048
333.37         22.0094
333.82         21.9591
334.27        21.90982
334.72         21.8487
335.17        21.74692
335.63        21.60215
336.08        21.43739
336.53        21.27675
336.98        21.17025
337.43        21.13177
337.88        21.14125
338.34        21.18852
338.79        21.27604
339.24        21.37931
339.69        21.49206
340.14        21.56384
340.59        21.51698
341.05        21.35065
341.50        21.09422
341.95        20.81652
342.40         20.6231
342.85        20.54672
343.30        20.56055
343.75        20.64214
344.20        20.75161
344.66        20.86838
345.11        20.99478
345.56         21.1097
346.01        21.18116
346.46        21.20402
346.91        21.18331
347.36        21.13227
347.81        21.08092
348.26        21.03834
348.72        20.99484
349.17        20.95712
349.62        20.94474
350.07        20.95753
350.52        20.99884
350.97        21.02309
351.42        20.95455
351.87        20.78858
352.32        20.55442
352.77        20.33343
353.22        20.24616
353.67        20.31139
354.13        20.48902
354.58        20.69625
355.03        20.79783
355.48        20.75456
355.93        20.60954
356.38        20.42069
356.83        20.27659
357.28        20.19996
357.73        20.15525
358.18        20.11875
358.63        20.05767
359.08        19.95759
359.53         19.8332
359.98        19.68195
360.43        19.49166
360.88        19.26704
361.33        19.01949
361.78        18.76632
362.23        18.53848
362.68        18.35141
363.13        18.20045
363.58         18.0959
364.03        18.04906
364.48        18.05272
364.93        18.09798
365.38        18.14703
365.83        18.13965
366.28        18.06003
366.73        17.92008
367.18        17.75277
367.63        17.61459
368.08        17.51978
368.53        17.45195
368.98         17.3874
369.43        17.28739
369.88        17.14246
370.33        16.96851
370.78        16.78619
371.23        16.62772
371.68        16.50641
372.13        16.41691
372.58        16.34855
373.03        16.28203
373.48        16.21276
373.93        16.14739
374.38        16.09658
374.83        16.07806
375.28        16.08834
375.72        16.10365
376.17        16.11769
376.62        16.10396
377.07        16.05575
377.52        15.98473
377.97        15.88271
378.42        15.73986
378.87        15.56523
379.32        15.36592
379.77         15.1875
380.22        15.09312
380.67        15.09026
381.11        15.16869
381.56        15.25859
382.01        15.25332
382.46        15.12988
382.91        14.92478
383.36        14.71479
383.81        14.60767
384.26        14.62105
384.71        14.72018
385.15        14.83882
385.60        14.87244
386.05        14.79227
386.50        14.63347
386.95        14.45729
387.40        14.35682
387.85        14.35042
388.29        14.39344
388.74        14.45038
389.19        14.44134
389.64        14.35197
390.09        14.20734
390.54        14.04577
390.98        13.92592
391.43        13.87441
391.88        13.86873
392.33        13.87853
392.78        13.86104
393.23        13.80764
393.67        13.72792
394.12        13.65757
394.57        13.61909
395.02        13.61724
395.47        13.63769
395.91        13.66423
396.36        13.66233
396.81        13.63142
397.26        13.58298
397.71        13.52818
398.15        13.49176
398.60        13.49256
399.05         13.4632
399.50        13.41062
399.95        13.44378
400.39         13.5177
400.84        13.39921
401.29         13.1208
401.74        12.94284
402.18        12.89205
402.63         12.8261
403.08        12.76095
403.53        12.77742
403.97        12.87132
404.42        13.01619
404.87        13.15497
405.32        13.19456
405.76        13.11355
406.21         12.9468
406.66        12.75387
407.11        12.63032
407.55        12.60579
408.00        12.65086
408.45        12.72747
408.90        12.75909
409.34        12.72296
409.79        12.64819
410.24        12.57417
410.68        12.55083
411.13         12.5918
411.58        12.67493
412.03        12.76463
412.47         12.8037
412.92        12.76898
413.37        12.68167
413.81        12.57442
414.26        12.50217
414.71        12.47324
415.15        12.47941
415.60         12.4872
416.05        12.44977
416.49        12.35897
416.94        12.23036
417.39        12.11207
417.83        12.07428
418.28        12.12745
418.73         12.2475
419.17         12.3771
419.62        12.42433
420.07        12.36942
420.51        12.24088
420.96        12.09572
421.41        12.01988
421.85        12.02771
422.30        12.08402
422.74         12.1465
423.19        12.21152
423.64        12.24699
424.08        12.19799
424.53        12.08655
424.98        12.04546
425.42        12.09843
425.87        12.14621
426.31        12.17679
426.76        12.26462
427.21        12.36464
427.65        12.31034
428.10        12.14208
428.54         12.0495
428.99        12.05303
429.44        12.09523
429.88        12.13442
430.33        12.06093
430.77        11.90987
431.22        11.90975
431.66        12.04591
432.11        12.08372
432.56        12.01853
433.00        12.01933
433.45        12.04453
433.89        11.93787
434.34        11.79236
434.78        11.54424
435.23         11.8387
435.67        11.90505
436.12        11.90274
436.57        11.86476
437.01        11.81451
437.46        11.79686
437.90         11.8117
438.35        11.81184
438.79        11.78517
439.24        11.75356
439.68        11.71789
440.13        11.67421
440.57        11.63207
441.02         11.6201
441.46        11.64117
441.91        11.65353
442.35        11.65021
442.80        11.73747
443.24        11.86163
443.69        11.82614
444.13        11.65986
444.58        11.59636
445.02        11.64668
445.47        11.68709
445.91        11.70162
446.36        11.72344
446.80        11.74403
447.24        11.75653
447.69        11.75903
448.13        11.74179
448.58        11.70851
449.02        11.66246
449.47        11.61576
449.91        11.58211
450.36        11.56849
450.80        11.56872
451.25        11.58092
451.69        11.59503
452.13         11.6073
452.58        11.61679
453.02        11.61912
453.47        11.60937
453.91        11.58722
454.36        11.55701
454.80         11.5177
455.24        11.46699
455.69        11.41206
456.13        11.34795
456.58        11.30111
457.02        11.29086
457.46        11.32416
457.91        11.39236
458.35        11.45937
458.79        11.46942
459.24        11.42277
459.68        11.32903
460.13        11.23993
460.57        11.20287
461.01        11.23721
461.46        11.31536
461.90        11.41303
462.34        11.47761
462.79        11.48939
463.23        11.47079
463.68        11.42739
464.12        11.37676
464.56          11.327
465.01        11.28534
465.45        11.24844
465.89        11.24551
466.34        11.27676
466.78        11.33282
467.22        11.39771
467.67        11.42985
468.11        11.42474
468.55        11.38946
468.99        11.34116
469.44        11.30741
469.88        11.29747
470.32        11.30164
470.77        11.31752
471.21        11.34348
471.65        11.37396
472.10        11.41243
472.54        11.44403
472.98        11.44972
473.42        11.42769
473.87        11.38799
474.31        11.34226
474.75        11.32069
475.20        11.33309
475.64        11.36727
476.08        11.41457
476.52        11.45451
476.97         11.4816
477.41        11.50679
477.85        11.53911
478.29        11.57571
478.74        11.62652
479.18        11.71379
479.62        11.81488
480.06        11.87855
480.50        11.89678
480.95        11.87291
481.39        11.81717
481.83         11.8591
482.27        11.83691
482.72        11.89494
483.16        11.95919
483.60        11.99158
484.04        11.98069
484.48        11.93772
484.93        11.97429
485.37        12.02823
485.81        12.36988
486.25        12.62728
486.69        12.35883
487.14        12.07079
487.58        12.87162
488.02        12.65476
488.46        12.54233
488.90        12.59568
489.34        12.40775
489.79         12.5606
490.23        12.77295
490.67        12.98934
491.11        13.13087
491.55        13.11514
491.99        13.00048
492.43        12.99567
492.88          13.126
493.32        13.25735
493.76        13.36116
494.20        13.46819
494.64        13.57479
495.08        13.64462
495.52        13.69071
495.96         13.8251
496.41        14.02217
496.85        14.06221
497.29        13.96969
497.73        14.11255
498.17        14.28291
498.61        14.38958
499.05        14.36622
499.49        14.37591
499.93        14.39925
500.37        14.50768
500.82        14.66231
501.26        14.75996
501.70        14.78778
502.14        14.80634
502.58        14.84904
503.02        14.93784
503.46        15.07894
503.90        15.26521
504.34        15.44641
504.78         15.5396
505.22        15.52828
505.66        15.43818
506.10        15.33245
506.54        15.31232
506.98        15.40131
507.42        15.56774
507.86        15.75856
508.30        15.88563
508.74        15.92401
509.18        15.90345
509.62        15.85741
510.06        15.83946
510.50        15.86655
510.94        15.91773
511.38        15.98279
511.82        16.04732
512.26        16.10407
512.70        16.16222
513.14        16.21259
513.58        16.23758
514.02        16.23619
514.46        16.21102
514.90        16.18489
515.34        16.19644
515.78        16.25267
516.22        16.34188
516.66        16.43453
517.10        16.48306
517.54        16.47511
517.98        16.42338
518.42        16.35459
518.86        16.31162
519.30        16.30615
519.74        16.32693
520.18        16.35032
520.62        16.33881
521.06        16.28615
521.50        16.20737
521.93        16.13252
522.37        16.10271
522.81        16.12934
523.25        16.19422
523.69        16.26873
524.13        16.31057
524.57        16.30638
525.01        16.26635
525.45        16.20443
525.89        16.14378
526.32        16.09193
526.76        16.04809
527.20        16.00317
527.64        15.94535
528.08        15.87406
528.52        15.79488
528.96        15.72621
529.40        15.69422
529.83        15.70137
530.27        15.73921
530.71        15.77744
531.15        15.76951
531.59        15.70653
532.03        15.60271
532.46        15.48893
532.90        15.42578
533.34        15.42273
533.78        15.45159
534.22        15.48489
534.66        15.49918
535.09        15.47389
535.53         15.3904
535.97        15.27352
536.41        15.20092
536.85         15.1859
537.28        15.19126
537.72        15.21749
538.16        15.27669
538.60        15.36243
539.04        15.47053
539.47        15.57402
539.91        15.64102
540.35        15.66322
540.79          15.651
541.22        15.63083
541.66        15.65265
542.10        15.72536
542.54        15.83387
542.97        15.95414
543.41        16.05399
543.85        16.12317
544.29        16.17722
544.72        16.22449
545.16        16.28846
545.60        16.37321
546.04        16.47299
546.47        16.59264
546.91        16.73686
547.35        16.89986
547.79        17.07852
548.22        17.25333
548.66        17.39124
549.10         17.5072
549.53        17.60066
549.97        17.68839
550.41        17.75815
550.84        17.83503
551.28        17.96192
551.72        18.11217
552.15        18.25709
552.59        18.41216
553.03        18.31775
553.46        18.53666
553.90        18.60679
554.34        18.69341
554.77         18.7895
555.21         18.9003
555.65        19.01786
556.08          19.131
556.52        19.23286
556.96        19.31255
557.39        19.40666
557.83        19.49985
558.27         19.4815
558.70        19.39036
559.14        19.40508
559.57        19.52544
560.01        19.64637
560.45        19.73931
560.88        19.82205
561.32        19.89731
561.75        19.93865
562.19        19.97297
562.63        20.03902
563.06        20.13828
563.50        20.25841
563.93        20.35857
564.37          20.428
564.80        20.46846
565.24        20.44178
565.68        20.33204
566.11        20.55312
566.55        20.37938
566.98         20.4179
567.42        20.48313
567.85        20.60555
568.29         20.7881
568.72        21.02744
569.16        21.31097
569.60        21.51467
570.03        21.70908
570.47        21.85735
570.90        21.97456
571.34        22.05264
571.77        22.15604
572.21        22.21911
572.64        22.26143
573.08         22.3887
573.51        22.62245
573.95        22.75753
574.38        22.78644
574.82          23.134
575.25        22.83053
575.69        22.87334
576.12        23.01525
576.56        22.97421
576.99        23.20937
577.42        23.32088
577.86        23.22646
578.29        23.49291
578.73        23.21762
579.16        23.12577
579.60        22.92947
580.03         22.9606
580.47        22.94812
580.90        22.92669
581.33        22.98905
581.77        23.13615
582.20        22.87876
582.64        22.64226
583.07        22.46482
583.51        22.32517
583.94        22.33957
584.37        22.34036
584.81        22.27101
585.24         22.1111
585.68        21.96159
586.11        21.65512
586.54        21.72937
586.98        21.72139
587.41        21.76421
587.85        21.62273
588.28        21.35758
588.71        21.31518
589.15        21.38018
589.58        21.30525
590.01        21.43224
590.45        21.43811
590.88        21.43749
591.31        21.30517
591.75        21.14517
592.18        21.16382
592.61        21.32167
593.05        21.64123
593.48        21.89558
593.91        21.55939
594.35         21.5996
594.78        21.54686
595.21        21.70308
595.65         21.8479
596.08        22.03279
596.51        22.21387
596.94        22.30503
597.38         22.4846
597.81        22.71595
598.24        22.92969
598.68         23.1728
599.11        23.26569
599.54        23.75957
599.97        23.72432
600.41         24.1256
600.84        24.21921
601.27        24.61098
601.70         24.8466
602.14        25.18847
602.57        25.51894
603.00        25.93234
603.43        25.98183
603.87        26.65536
604.30        27.02503
604.73        27.21435
605.16        27.47403
605.60        27.76738
606.03        28.09799
606.46         28.4461
606.89         28.7358
607.32        29.33652
607.76        29.72658
608.19        29.99672
608.62        30.18787
609.05         30.4319
609.48        30.77932
609.92        31.54116
610.35        32.00603
610.78        31.84179
611.21        31.84662
611.64        32.27181
612.07        32.72266
612.50        33.06282
612.94        33.34994
613.37        33.50348
613.80        33.70813
614.23        33.56369
614.66        33.82385
615.09        34.33355
615.52        34.71398
615.96        34.90407
616.39        35.20123
616.82        35.62955
617.25         35.5914
617.68        35.86527
618.11        36.06708
618.54        36.41402
618.97        36.68459
619.40        36.84803
619.84        37.13761
620.27        37.19477
620.70        37.30059
621.13        37.35622
621.56        37.32982
621.99        37.26442
622.42        37.32276
622.85        37.51092
623.28        37.63658
623.71        37.66925
624.14        37.87304
624.57        38.04509
625.00        37.88062
625.43        37.92231
625.86        37.79994
626.29        37.76322
626.72        37.29601
627.15        37.51689
627.58        37.43332
628.01        37.26265
628.44        37.39012
628.87        36.80058
629.30        36.57903
629.73        36.41439
630.16        36.22447
630.59        35.89692
631.02        35.64028
631.45        35.43156
631.88        35.19657
632.31        34.92752
632.74        34.64312
633.17        34.33353
633.60         33.9799
634.03        33.58327
634.46        33.14781
634.89        32.69002
635.32        32.24686
635.75        31.83219
636.18        31.40563
636.61        30.98394
637.04        30.60818
637.47        30.27731
637.89        29.97738
638.32        29.67369
638.75         29.3398
639.18        28.97384
639.61        28.59039
640.04        28.22336
640.47          27.922
640.90        27.69679
641.33        27.53459
641.76        27.41033
642.18        27.28634
642.61        27.14346
643.04        26.99574
643.47        26.86384
643.90        26.78005
644.33         26.7516
644.76        26.76863
645.18        26.80678
645.61        26.82301
646.04        26.81139
646.47        26.78541
646.90        26.78588
647.33        26.86999
647.75        27.04539
648.18        27.33097
648.61        27.68717
649.04        27.96069
649.47        28.11522
649.89        28.56035
650.32        28.60232
650.75          29.047
651.18        29.63008
651.61        30.10049
652.03        30.44707
652.46         30.8655
652.89        31.38078
653.32        31.80051
653.74        32.15813
654.17        32.64854
654.60        33.21716
655.03        33.59048
655.46        33.39884
655.88        34.45292
656.31        36.37471
656.74        37.80886
657.16        37.38425
657.59        36.87204
658.02        36.61008
658.45         37.1475
658.87        37.22092
659.30        37.89957
659.73         37.9596
660.15        38.75322
660.58        38.59205
661.01        38.94006
661.44        39.36694
661.86        39.49351
662.29        39.36614
662.72        39.79527
663.14        40.05331
663.57        40.44364
664.00        40.73176
664.42        41.09543
664.85        41.53339
665.27         41.9678
665.70        42.32734
666.13        42.56531
666.55        42.67523
666.98        42.63341
667.41        42.50203
667.83        42.65652
668.26        42.68772
668.69        42.93173
669.11        43.22652
669.54        43.51791
669.96        43.78503
670.39        44.04176
670.82         44.2938
671.24        44.52762
671.67        44.73833
672.09        44.91171
672.52         45.0674
672.94        45.21616
673.37        45.36796
673.80        45.51491
674.22         45.6652
674.65          45.802
675.07        45.93477
675.50        46.06485
675.92        46.18113
676.35        46.25605
676.77        46.29239
677.20        46.29811
677.62        46.32381
678.05        46.43999
678.47        46.64837
678.90        46.96348
679.32        47.32048
679.75        47.51946
680.17        47.50333
680.60        47.72329
681.02        47.52713
681.45        47.59758
681.87        47.74911
682.30        48.05043
682.72        48.40605
683.15        48.43844
683.57        48.22844
684.00        48.27457
684.42        48.59784
684.85        48.82274
685.27        48.93653
685.70        49.18131
686.12        49.49574
686.54        49.66345
686.97        49.66872
687.39        49.61397
687.82        49.54327
688.24        49.50988
688.66        49.54028
689.09        49.62762
689.51        49.76396
689.94        49.90358
690.36        50.03739
690.78        50.16508
691.21        50.29969
691.63        50.45135
692.06        50.62374
692.48        50.82307
692.90        51.00466
693.33        51.09035
693.75        51.06467
694.17        50.94926
694.60        50.86626
695.02        50.86332
695.44        51.14388
695.87        51.59193
696.29        52.10615
696.71        52.03475
697.14        51.53396
697.56        51.57307
697.98        52.10805
698.41        52.36356
698.83        52.20808
699.25        52.25678
699.68        52.46163
700.10        52.59687
700.52        52.63636
700.94        52.65466
701.37         52.6926
701.79         52.8185
702.21        53.03683
702.64        53.30327
703.06        53.56491
703.48        53.72828
703.90        53.76913
704.33        53.71844
704.75        53.62101
705.17        53.54395
705.59        53.52122
706.01        53.53915
706.44        53.60345
706.86        53.74736
707.28         53.9566
707.70        54.18195
708.12        54.40512
708.55        54.67091
708.97        54.92696
709.39        54.97939
709.81        54.85875
710.23        54.82094
710.66        54.89387
711.08         54.9521
711.50        54.97353
711.92        54.99919
712.34        55.02964
712.76        55.06643
713.19        55.10183
713.61        55.14954
714.03        55.20164
714.45        55.26443
714.87        55.35606
715.29         55.5065
715.71        55.71383
716.13        55.95256
716.56        56.18201
716.98        56.40917
717.40         56.5869
717.82        56.71936
718.24        56.77195
718.66        56.69209
719.08        56.49579
719.50        56.22496
719.92        55.97074
720.34        55.86981
720.76         55.9528
721.19        56.16131
721.61        56.47055
722.03        56.78999
722.45        57.06885
722.87        57.31752
723.29        57.48314
723.71        57.48503
724.13        57.32398
724.55        57.03482
724.97        56.72225
725.39        56.54285
725.81         56.5426
726.23        56.70888
726.65        56.99872
727.07        57.21556
727.49        57.50663
727.91        57.74235
728.33        57.96907
728.75        58.16653
729.17        58.32605
729.59        58.43269
730.01        58.48939
730.43        58.50802
730.85        58.50335
731.27        58.50621
731.69        58.50472
732.10         58.4543
732.52         58.3512
732.94        58.22699
733.36        58.14531
733.78        58.07342
734.20        58.01521
734.62        58.23236
735.04        58.71003
735.46        58.26855
735.88        58.67252
736.30        58.65104
736.72        58.77585
737.13        59.18066
737.55         59.6847
737.97        59.82373
738.39        59.58356
738.81        59.25784
739.23        59.02222
739.65        59.21748
740.06        59.71789
740.48        59.98031
740.90        59.94866
741.32        59.98654
741.74        60.12696
742.16        60.22081
742.57        60.27181
742.99         60.3163
743.41        60.34741
743.83         60.3192
744.25        60.24257
744.67        60.15797
745.08        60.11265
745.50        60.13048
745.92        60.22365
746.34        60.38013
746.75        60.55392
747.17        60.64143
747.59        60.63086
748.01        60.58619
748.42         60.5216
748.84        60.43762
749.26        60.38993
749.68        60.37694
750.09        60.41878
750.51        60.71161
750.93        61.10333
751.35        61.03598
751.76        60.57644
752.18        60.35164
752.60        60.39207
753.01         60.3618
753.43        60.25798
753.85        60.22516
754.27        60.26437
754.68        60.55226
755.10        60.67083
755.52         60.8433
755.93        60.92551
756.35         60.9287
756.77        60.93476
757.18        60.99661
757.60        61.13315
758.02        61.50726
758.43        61.94687
758.85        61.59682
759.26        61.45619
759.68        60.96681
760.10        60.68466
760.51         61.3436
760.93        61.88068
761.34        61.29012
761.76        61.60327
762.18        61.53334
762.59        61.82499
763.01        62.11484
763.42        62.36759
763.84        62.45775
764.26        62.35994
764.67        62.04012
765.09        61.66309
765.50        61.61083
765.92        61.88801
766.33        61.92019
766.75        61.56484
767.16        61.94387
767.58        61.63847
768.00         61.6291
768.41        61.58287
768.83        61.93342
769.24        62.47498
769.66        62.52026
770.07        62.13422
770.49        61.73877
770.90         61.5688
771.32        62.08982
771.73        63.05934
772.15        63.42158
772.56        63.09178
772.97         62.5733
773.39        62.11388
773.80        62.04095
774.22        62.34221
774.63         62.6326
775.05        62.75844
775.46        62.88739
775.88        62.94862
776.29        62.80696
776.70        62.55658
777.12        62.48239
777.53        62.63766
777.95        62.88377
778.36        63.15254
778.77        63.30427
779.19        63.32196
779.60        63.28348
780.02        63.17543
780.43        63.10589
780.84        63.15211
781.26        62.81583
781.67        62.28553
782.09         63.0227
782.50         64.6488
782.91        64.06006
783.33        62.92908
783.74        62.35558
784.15        62.90385
784.57        63.27679
784.98        63.36839
785.39        63.44542
785.81        63.51517
786.22        63.75672
786.63        64.12823
787.04        64.32899
787.46        64.35152
787.87        64.34371
788.28         64.3511
788.70        64.35168
789.11        64.34268
789.52        64.37118
789.93        64.40686
790.35        64.38109
790.76        64.27953
791.17         64.1304
791.58        64.03008
792.00        63.94755
792.41        63.87232
792.82        64.41979
793.23        64.63795
793.65        64.40067
794.06        63.71656
794.47        63.80333
794.88        64.49573
795.29        65.03591
795.71        64.46645
796.12        64.35831
796.53        64.50766
796.94         64.3655
797.35        64.06686
797.76         64.4224
798.18        65.26371
798.59        65.64677
799.00        65.45827
799.41        65.18324
799.82        64.95571
800.23        64.80124
800.64        64.77215
801.06        64.82044
801.47        64.92712
801.88        64.97615
802.29        64.92933
802.70        64.82194
803.11        64.66837
803.52        64.48885
803.93        64.32299
804.34        64.17924
804.75        64.09328
805.17         64.1958
805.58        64.54246
805.99        64.81368
806.40        65.01225
806.81         65.7597
807.22        66.72614
807.63        66.49844
808.04        65.29028
808.45        64.70489
808.86        64.89077
809.27        64.99655
809.68        64.91962
810.09        64.89462
810.50        64.89977
810.91        64.87978
811.32         64.9113
811.73        65.10956
812.14        65.47844
812.55        65.97157
812.96        66.43871
813.37        66.59953
813.78        66.38592
814.19        65.91663
814.60        65.34532
815.01        64.87371
815.42        64.56064
815.83        64.34846
816.24        64.26488
816.65        64.35334
817.05        64.61018
817.46        65.00529
817.87        65.42316
818.28        65.63665
818.69        65.59907
819.10        65.33751
819.51        65.02491
819.92        64.98912
820.33         65.3069
820.74        65.87341
821.14        66.46029
821.55        66.69777
821.96        66.50185
822.37        65.99177
822.78        65.37424
823.19        64.99615
823.60        64.97147
824.00        65.22706
824.41        65.58051
824.82         65.8175
825.23        65.85036
825.64        65.74877
826.04        65.60631
826.45          65.531
826.86        65.57059
827.27        65.68496
827.68        65.79624
828.08        65.81016
828.49        65.65624
828.90        65.39288
829.31        65.14114
829.72        65.09229
830.12        65.31094
830.53        65.68787
830.94        66.07537
831.35         66.1767
831.75        65.93246
832.16        65.41654
832.57        64.83332
832.97        64.48376
833.38        64.45261
833.79        64.63533
834.20         64.9302
834.60        65.17402
835.01         65.3151
835.42        65.44439
835.82        65.56971
836.23        65.62491
836.64        65.63542
837.04        65.56763
837.45        65.55467
837.86        65.88446
838.26        66.61012
838.67        67.60779
839.08        68.53717
839.48         68.7522
839.89        68.10722
840.29        66.84548
840.70        65.53178
841.11        64.80692
841.51        64.83161
841.92        65.39866
842.33        66.25807
842.73        66.95273
843.14         67.2086
843.54        67.21173
843.95        67.07594
844.35        67.04012
844.76        67.15031
845.17        67.29796
845.57        67.41781
845.98        67.39561
846.38        67.22501
846.79          66.966
847.19        66.66137
847.60        66.34261
848.00        66.04986
848.41        65.75169
848.81        65.53356
849.22        65.45611
849.62         65.5688
850.03        65.85167
850.43        66.20232
850.84        66.38548
851.24         66.3867
851.65        66.18448
852.05         66.0201
852.46        66.21566
852.86        66.81276
853.27        67.66269
853.67        68.39023
854.07        68.59937
854.48        68.20035
854.88        67.34536
855.29        66.25459
855.69         65.4622
856.10         65.0988
856.50        65.12084
856.90        65.31493
857.31        65.32384
857.71         65.0976
858.12        64.69507
858.52        64.33565
858.92        64.26361
859.33        64.51987
859.73        65.03512
860.13        65.57773
860.54         65.8028
860.94        65.66158
861.34        65.25092
861.75        64.75972
862.15        64.54025
862.55        64.66833
862.96        64.99556
863.36        65.44122
863.76        65.78857
864.17        65.93498
864.57        65.97752
864.97        65.85487
865.38        65.47291
865.78        64.87878
866.18        64.10173
866.58        63.34415
866.99        62.97451
867.39         63.1153
867.79        63.65864
868.19        64.40812
868.60        65.02921
869.00         65.4473
869.40        65.71799
869.80        65.88313
870.21        66.02572
870.61        66.22202
871.01         66.3664
871.41        66.40061
871.81        66.26398
872.22        65.95217
872.62        65.50411
873.02        65.03519
873.42          64.723
873.82         64.6227
874.22        64.69322
874.63        64.81612
875.03        64.81361
875.43        64.62952
875.83        64.32661
876.23        64.01002
876.63        63.84326
877.03        63.86726
877.44        63.99384
877.84        64.16401
878.24         64.3048
878.64        64.33028
879.04        64.11882
879.44        63.79612
879.84        63.66109
880.24        63.74726
880.64         63.9535
881.04        64.08733
881.44        63.87279
881.84        63.27525
882.24        62.39514
882.65        61.58382
883.05        61.37423
883.45        61.87545
883.85        62.94378
884.25        64.16556
884.65        64.83295
885.05        64.75964
885.45        64.14985
885.85        63.42274
886.25        63.22935
886.65        63.71217
887.05        64.65096
887.45        65.68529
887.85         66.2229
888.25        66.09333
888.65         65.4957
889.04        64.71512
889.44         64.2122
889.84        64.09992
890.24        64.23196
890.64        64.43246
891.04         64.4265
891.44        64.14743
891.84        63.72755
892.24        63.29673
892.64        63.01698
893.04        62.94964
893.44        63.05872
893.83        63.31209
894.23        63.61272
894.63        63.93594
895.03        64.26057
895.43        64.63289
895.83        65.13866
896.23        65.73836
896.63        66.34358
897.02        66.73203
897.42        66.59517
897.82        65.90837
898.22         64.8588
898.62        63.69334
899.01        62.75776
899.41        62.19693
899.81        61.92381
900.21        61.96449
900.61        62.34446
901.00        63.00001
901.40        63.88102
901.80        64.77458
902.20        65.33214
902.59        65.47617
902.99        65.28521
903.39        64.88263
903.79        64.50639
904.18        64.24146
904.58        64.01484
904.98        63.91776
905.38        64.08914
905.77        64.52669
906.17         65.2418
906.57        65.92345
906.96        66.03846
907.36         65.4758
907.76        64.39146
908.15         63.3036
908.55        63.02666
908.95        63.73819
909.34        65.20235
909.74        66.80274
910.14        67.58961
910.53        67.28016
910.93        66.19859
911.33        64.81575
911.72        63.85122
912.12        63.57222
912.52         63.7484
912.91        64.13285
913.31        64.37823
913.70        64.38578
914.10        64.25691
914.49        64.18955
914.89        64.41095
915.29        64.97779
915.68        65.76933
916.08        66.47792
916.47        66.68839
916.87        66.32237
917.26        65.51598
917.66         64.6162
918.05        63.99587
918.45        63.76776
918.84        63.87556
919.24        64.12647
919.64        64.31395
920.03         64.3729
920.42        64.32899
920.82        64.34203
921.21        64.60178
921.61        65.11433
922.00        65.82994
922.40        66.47065
922.79        66.70991
923.19        66.43694
923.58        65.79511
923.98        65.06982
924.37        64.61122
924.77        64.53233
925.16        64.71637
925.55        65.03346
925.95        65.23394
926.34        65.24488
926.74        65.10829
927.13        64.89941
927.52        64.66676
927.92        64.48041
928.31        64.31529
928.70        64.15163
929.10        63.93731
929.49        63.65941
929.89        63.28658
930.28        63.04788
930.67         63.2216
931.07        63.82576
931.46        64.84657
931.85        65.82808
932.24        66.07201
932.64        65.48772
933.03        64.26025
933.42        63.01892
933.82         62.6895
934.21        63.45385
934.60        65.07304
934.99        66.92577
935.39        67.89087
935.78         67.6729
936.17        66.51763
936.56        65.02974
936.96         64.1554
937.35         64.1507
937.74        64.73966
938.13        65.43716
938.53         65.5036
938.92        64.78525
939.31        63.58807
939.70         62.3801
940.09        61.80181
940.49        61.96798
940.88        62.69759
941.27        63.66553
941.66        64.28886
942.05        64.37518
942.44        64.11675
942.84        63.76212
943.23        63.68904
943.62        64.00253
944.01        64.52306
944.40        65.12743
944.79        65.64779
945.18        65.98971
945.57        66.20373
945.97        66.17824
946.36        65.82943
946.75        65.15116
947.14        64.24405
947.53         63.3223
947.92        62.68031
948.31         62.3969
948.70        62.41331
949.09        62.66538
949.48          63.021
949.87        63.40327
950.26        63.81672
950.65        64.21849
951.04        64.54686
951.43        64.77271
951.82        64.88584
952.21        64.86922
952.60        64.72182
952.99        64.48389
953.38        64.19626
953.77        63.96054
954.16        63.93143
954.55        64.12595
954.94        64.46647
955.33        64.88776
955.72        65.25775
956.11        65.50667
956.50        65.69021
956.89        65.65949
957.28        65.18902
957.66        64.28829
958.05        63.08064
958.44        61.97243
958.83         61.5507
959.22        61.88779
959.61        62.81551
960.00        63.87651
960.39        64.21394
960.78         63.5907
961.16          62.302
961.55        60.83895
961.94        59.81969
962.33        59.42653
962.72        59.51485
963.11        59.94522
963.49         60.4714
963.88        60.89307
964.27        61.26448
964.66        61.71285
965.04        62.47387
965.43         63.5265
965.82        64.81422
966.21        65.91148
966.60        66.04571
966.98        65.03835
967.37        63.25785
967.76        61.43348
968.15         60.4732
968.53        60.54644
968.92        61.44143
969.31        62.67723
969.69        63.28123
970.08        62.86365
970.47        61.76363
970.86        60.60394
971.24        60.25036
971.63        60.88474
972.02          62.261
972.40        63.86655
972.79        64.46558
973.17        63.76084
973.56        62.18133
973.95        60.47147
974.33        59.58347
974.72        59.70469
975.11        60.52119
975.49        61.61866
975.88        62.14728
976.26        61.87065
976.65        61.05389
977.04        60.04023
977.42        59.30367
977.81        58.97541
978.19         58.8828
978.58        59.09042
978.96        59.67619
979.35        60.56285
979.74        61.73947
980.12        62.97021
980.51        63.57613
980.89        63.51544
981.28        62.96165
981.66        62.24281
982.05        61.82846
982.43        61.86519
982.82        62.17191
983.20        62.88339
983.59        64.11204
983.97        65.84899
984.35        68.02974
984.74         69.9437
985.12        70.64033
985.51        69.85416
985.89        67.88331
986.28        65.64288
986.66        64.46212
987.04        64.71162
987.43        66.01398
987.81        67.72964
988.20        68.46967
988.58        67.81987
988.96        66.20435
989.35        64.25599
989.73        62.83417
990.12        62.15199
990.50        61.96314
990.88        61.98217
991.27        61.77105
991.65        61.21793
992.03        60.52885
992.42        59.99203
992.80         59.9362
993.18        60.44299
993.56        61.38894
993.95        62.42545
994.33        63.11027
994.71        63.16874
995.10        62.81596
995.48        62.32742
995.86        62.22267
996.24        62.62144
996.63        63.21559
997.01        63.98586
997.39        64.55403
997.77        64.71656
998.15        64.68259
998.54        64.28133
998.92        63.11792
999.30        61.34626
999.68        59.17118
1000.06        57.34754
1000.45        56.90869
1000.83        58.13063
1001.21         60.8207
1001.59        64.28809
1001.97        66.73769
1002.35        67.37954
1002.73        66.68631
1003.12        65.51552
1003.50         64.9328
1003.88        65.33006
1004.26        66.24859
1004.64        67.54782
1005.02        68.89907
1005.40        70.01691
1005.78        71.14548
1006.16        71.73781
1006.54        70.90156
1006.92        68.69501
1007.30         65.4534
1007.69        62.43248
1008.07         61.2609
1008.45        62.38653
1008.83        65.44518
1009.21        69.29607
1009.59        71.15543
1009.97        69.80177
1010.35        66.14635
1010.73        61.56243
1011.11        57.96581
1011.49        55.93473
1011.86        54.92941
1012.24        54.67136
1012.62        54.79404
1013.00        55.14872
1013.38        55.94431
1013.76        57.12532
1014.14         58.3387
1014.52        59.29529
1014.90         59.7983
1015.28        59.95444
1015.66        60.11611
1016.04        60.36917
1016.41        60.67498
1016.79        60.73196
1017.17        60.07985
1017.55        58.73019
1017.93        56.96495
1018.31        55.40105
1018.69        54.83575
1019.06        55.44021
1019.44        57.11275
1019.82        59.33508
1020.20        60.76491
1020.58        60.77062
1020.95        59.62256
1021.33        58.23785
1021.71        57.64035
1022.09        58.03117
1022.46        59.29053
1022.84        60.73162
1023.22        60.80847
1023.60        59.06061
1023.97        56.01316
1024.35        53.36727
1024.73        52.86533
