SpectraSmart Spectrum 2.9.0.0
--------- Device Information -----------
Spectrum Name :  反射率_0
Saving Time :  2024/04/27 00:14:55
Spectro-Module Model Name : SE2030-DUVN
Spectro-Module Serial Number : OS361AC55029948
Wavelength Start : 200
Wavelength End : 1025
Wavelength Unit : Wavelength(nm)
Spectrum Unit : Reflectance(%)
-----------Spectrum Setting ------------
Integration Time : 20ms
Average : 10
Boxcar : 0
Background removal :  enabled
linearity correction :  enabled
SC :  disabled
Intensity correction :  disabled
DWT denoise :  enabled
savitzky-golay :  disabled
FFT :  disabled
Running average :  disabled
Kalman :  disabled
High pass :  disabled
---------------BEGIN--------------------
Wavelength(nm)             Reflectance(%)
200.29               0
200.75        70.12194
201.21        64.87529
201.67        60.68712
202.13        59.72514
202.58        62.11258
203.04        68.17231
203.50        77.29976
203.96        85.37637
204.42        89.08556
204.88        88.32059
205.34         84.9747
205.80        84.06328
206.26         86.5971
206.72         89.8508
207.18        92.33105
207.64        92.95641
208.10        91.73824
208.55        90.10777
209.01        86.45635
209.47        80.39256
209.93        75.16744
210.39         72.1559
210.85        72.38574
211.31        77.17752
211.77        88.66347
212.23        115.2356
212.69        181.7503
213.14        292.9602
213.60         288.211
214.06        209.3266
214.52        156.1891
214.98        133.0471
215.44        124.1503
215.90        119.9054
216.36        119.1495
216.81        121.7614
217.27        128.0964
217.73        142.2385
218.19        162.3515
218.65        170.4583
219.11        160.4117
219.57        143.3998
220.02        132.6519
220.48        136.8931
220.94        155.7094
221.40        191.3041
221.86        243.3871
222.32        279.8667
222.77         270.924
223.23        237.8567
223.69         203.157
224.15        179.5758
224.61        166.1127
225.06        157.0884
225.52        153.2903
225.98        154.9236
226.44        161.0342
226.90        171.4207
227.36        182.6536
227.81         188.207
228.27        187.2145
228.73        181.6657
229.19         176.194
229.65          176.47
230.10        182.6349
230.56         192.705
231.02        202.6067
231.48        205.9494
231.93        201.7075
232.39        193.6556
232.85        185.2184
233.31        180.7599
233.77         180.854
234.22         183.675
234.68        187.9801
235.14        191.9427
235.60        194.7143
236.05        197.1916
236.51        198.1898
236.97        196.0194
237.43        190.3639
237.88        181.6236
238.34        171.8666
238.80        165.1058
239.26        162.5966
239.71        164.9798
240.17        170.5101
240.63        175.1193
241.08        176.3723
241.54        173.5411
242.00        170.0518
242.46        172.8893
242.91        187.1863
243.37        214.9864
243.83        256.2451
244.28        289.1513
244.74        282.6826
245.20        238.8844
245.66        189.1413
246.11        159.5616
246.57        149.8666
247.03        152.1601
247.48        156.3812
247.94        147.9811
248.40        129.8294
248.85        111.2663
249.31        98.21712
249.77        92.80937
250.22        93.74834
250.68        99.43732
251.14         108.959
251.59        117.2281
252.05         120.613
252.51        121.7258
252.96        120.8871
253.42        119.6925
253.88        118.7014
254.33        116.6303
254.79        117.5374
255.25        124.8629
255.70        137.7334
256.16        155.0192
256.62        169.4948
257.07        170.1169
257.53        160.4954
257.99        147.8239
258.44        138.0947
258.90        136.7747
259.35        141.3385
259.81         149.368
260.27        157.3408
260.72        160.8951
261.18        160.3134
261.63        156.9592
262.09        153.4673
262.55        151.2735
263.00        150.2686
263.46        150.2063
263.91        149.8651
264.37         148.703
264.83        146.5901
265.28        143.9107
265.74        141.7657
266.19        140.7056
266.65        140.9512
267.11        141.9343
267.56        143.0595
268.02         143.468
268.47        142.8508
268.93        141.5783
269.38        139.7883
269.84        137.8809
270.30         135.983
270.75        133.9581
271.21        132.0802
271.66         130.595
272.12        129.5449
272.57        128.7887
273.03         128.026
273.48         126.657
273.94        124.7297
274.39        122.3767
274.85         120.053
275.31        118.0073
275.76        116.2567
276.22        114.8271
276.67        113.5668
277.13        112.6221
277.58        111.7625
278.04        111.0058
278.49        110.0592
278.95        108.8187
279.40        107.1322
279.86        105.3032
280.31        103.2174
280.77        101.0674
281.22        98.82268
281.68        96.68452
282.13        94.78274
282.59        93.59619
283.04        92.99817
283.50        92.88686
283.95         92.8396
284.41        92.28445
284.86        91.06553
285.32        89.46289
285.77        87.70058
286.22        86.27145
286.68        85.27248
287.13        84.45699
287.59        83.74005
288.04        82.87012
288.50        81.85798
288.95        80.73314
289.41        79.58155
289.86        78.32228
290.32        77.06673
290.77        75.77692
291.22        74.58323
291.68        73.64282
292.13        72.93773
292.59        72.44647
293.04        72.08506
293.50        71.77411
293.95        71.45364
294.40        71.15151
294.86        70.85068
295.31        70.49907
295.77        70.11774
296.22        69.69558
296.68        69.30897
297.13        69.03489
297.58        68.90327
298.04        68.89188
298.49        68.93542
298.95        68.96688
299.40        68.94139
299.85        68.88101
300.31        68.81507
300.76        68.74856
301.21        68.69615
301.67        68.66818
302.12        68.60664
302.58        68.53572
303.03        68.41286
303.48        68.27994
303.94        68.17896
304.39        68.09132
304.84        68.03857
305.30        68.01867
305.75        67.98431
306.20        67.95947
306.66        67.95533
307.11        67.93915
307.57        67.89006
308.02         67.6803
308.47        67.32761
308.93         66.8833
309.38        66.43291
309.83        66.19176
310.29        66.19093
310.74        66.35323
311.19        66.53132
311.65        66.47552
312.10        66.12255
312.55        65.55878
313.00        64.93996
313.46        64.49509
313.91        64.25662
314.36         64.1667
314.82        64.11654
315.27        63.95431
315.72        63.63264
316.18        63.22542
316.63        62.79567
317.08        62.46221
317.53        62.25344
317.99        62.11915
318.44        62.01441
318.89        61.85532
319.35        61.61393
319.80         61.3121
320.25        60.98839
320.70        60.70345
321.16        60.46944
321.61        60.29269
322.06        60.11338
322.51        59.84234
322.97        59.45986
323.42        58.99972
323.87        58.57404
324.32        58.37357
324.78        58.40842
325.23        58.65466
325.68        58.90582
326.13        58.82556
326.59        58.33971
327.04        57.57954
327.49        56.76395
327.94        56.24822
328.39        56.11803
328.85         56.2382
329.30        56.52277
329.75         56.6917
330.20        56.64491
330.66         56.4583
331.11        56.20206
331.56        55.94021
332.01        55.71043
332.46        55.46959
332.92        55.22784
333.37        55.10562
333.82        55.09509
334.27        55.19981
334.72        55.34858
335.17        55.40453
335.63        55.33139
336.08        55.19185
336.53        55.06751
336.98        55.12204
337.43        55.38406
337.88        55.77274
338.34        56.18333
338.79        56.50431
339.24        56.65416
339.69        56.67704
340.14         56.5475
340.59        56.23106
341.05        55.77826
341.50        55.22023
341.95        54.71132
342.40        54.48272
342.85        54.57911
343.30        54.93054
343.75        55.40843
344.20        55.78841
344.66        55.99454
345.11        56.08132
345.56        56.07323
346.01        56.02066
346.46        55.95943
346.91        55.87175
347.36        55.80235
347.81        55.83521
348.26        55.97299
348.72        56.18254
349.17        56.40468
349.62        56.55783
350.07        56.61348
350.52        56.61018
350.97        56.50943
351.42        56.25634
351.87        55.87334
352.32        55.38773
352.77        54.95909
353.22        54.81977
353.67        54.99857
354.13        55.42502
354.58        55.90195
355.03        56.08203
355.48        55.87555
355.93        55.38309
356.38        54.80359
356.83        54.44338
357.28        54.36618
357.73        54.46148
358.18        54.57656
358.63        54.46992
359.08        54.08075
359.53        53.50881
359.98        52.86003
360.43        52.27571
360.88        51.80183
361.33        51.39698
361.78        51.03703
362.23        50.69091
362.68        50.35061
363.13        50.03685
363.58        49.75657
364.03        49.50926
364.48        49.28659
364.93        49.07253
365.38         48.8518
365.83        48.61005
366.28        48.34333
366.73        48.05667
367.18        47.75241
367.63        47.43381
368.08        47.10632
368.53        46.77443
368.98        46.45183
369.43        46.15681
369.88        45.89447
370.33        45.66243
370.78        45.44978
371.23        45.23931
371.68        45.02413
372.13        44.80301
372.58        44.58576
373.03        44.38779
373.48        44.20787
373.93        44.03914
374.38        43.85276
374.83        43.60721
375.28        43.29906
375.72        42.93449
376.17        42.58497
376.62        42.30509
377.07        42.11078
377.52        41.99101
377.97        41.89973
378.42        41.76662
378.87        41.57318
379.32        41.32757
379.77        41.09302
380.22        40.96098
380.67        40.93757
381.11        41.00782
381.56        41.03271
382.01        40.82919
382.46        40.38132
382.91        39.77959
383.36        39.20155
383.81        38.88628
384.26        38.86791
384.71        39.06388
385.15        39.34151
385.60        39.47329
386.05        39.38956
386.50        39.15759
386.95        38.85011
387.40        38.58383
387.85        38.39655
388.29        38.22246
388.74        38.08778
389.19        37.93814
389.64        37.76094
390.09        37.57273
390.54        37.38123
390.98        37.18585
391.43        37.01747
391.88        36.87424
392.33        36.75512
392.78        36.65849
393.23         36.5814
393.67        36.50132
394.12        36.46026
394.57         36.4507
395.02        36.46332
395.47         36.4782
395.91        36.47354
396.36        36.39859
396.81        36.26667
397.26        36.10852
397.71        35.93265
398.15        35.77208
398.60        35.68295
399.05        35.51105
399.50        35.32634
399.95        35.49047
400.39          35.891
400.84         35.8723
401.29        35.45234
401.74        35.22445
402.18        35.22379
402.63        35.08543
403.08        34.85149
403.53        34.74663
403.97        34.78347
404.42        34.90464
404.87        35.03349
405.32        35.04335
405.76        34.90166
406.21        34.66436
406.66        34.40989
407.11        34.26404
407.55        34.26367
408.00        34.35299
408.45        34.46446
408.90        34.46365
409.34        34.31419
409.79        34.07681
410.24        33.82207
410.68        33.63363
411.13        33.54298
411.58        33.52091
412.03        33.53982
412.47         33.5586
412.92        33.54836
413.37        33.52985
413.81        33.51192
414.26        33.54011
414.71        33.60612
415.15        33.70382
415.60        33.78608
416.05        33.81057
416.49        33.77115
416.94        33.68396
417.39        33.58559
417.83        33.52753
418.28        33.52237
418.73        33.54435
419.17        33.59228
419.62        33.66409
420.07        33.74793
420.51        33.83693
420.96        33.88781
421.41          33.826
421.85        33.63765
422.30        33.33899
422.74         33.0033
423.19         32.8828
423.64        32.95114
424.08        32.97444
424.53        32.90366
424.98        32.90675
425.42        32.98701
425.87        32.94046
426.31        32.81504
426.76        32.92475
427.21        33.19421
427.65        33.13896
428.10         32.8174
428.54        32.71299
428.99        32.86489
429.44        33.00698
429.88        33.08231
430.33         33.1405
430.77        33.14109
431.22         33.1049
431.66        33.06223
432.11        33.02253
432.56        33.01585
433.00        33.10114
433.45        33.15228
433.89         32.9912
434.34        32.75091
434.78        32.19474
435.23          32.566
435.67        32.61855
436.12        32.63862
436.57        32.52459
437.01        32.32048
437.46         32.2202
437.90        32.23438
438.35        32.22512
438.79        32.17419
439.24        32.16362
439.68         32.1828
440.13        32.20195
440.57        32.23508
441.02        32.28577
441.46        32.33396
441.91        32.43656
442.35        32.51588
442.80         32.4623
443.24        32.29216
443.69        32.23797
444.13        32.28992
444.58        32.27592
445.02        32.19001
445.47        32.14674
445.91        32.15111
446.36        32.16525
446.80         32.1798
447.24        32.20746
447.69        32.23496
448.13        32.22789
448.58        32.18929
449.02        32.12104
449.47        32.04804
449.91         31.9949
450.36        31.97978
450.80        31.98639
451.25        32.01531
451.69        32.04461
452.13        32.07107
452.58        32.08957
453.02         32.1013
453.47        32.11316
453.91        32.12403
454.36        32.13845
454.80        32.12496
455.24        32.03585
455.69        31.88037
456.13        31.65825
456.58        31.46473
457.02        31.39128
457.46        31.46503
457.91        31.65533
458.35        31.84831
458.79        31.87586
459.24        31.73252
459.68        31.45712
460.13        31.19606
460.57        31.09207
461.01        31.19796
461.46         31.4405
461.90        31.74433
462.34        31.95731
462.79        32.02065
463.23        31.99488
463.68        31.89844
464.12        31.77455
464.56        31.64357
465.01        31.53423
465.45        31.41144
465.89        31.31329
466.34        31.24207
466.78         31.1863
467.22        31.16253
467.67        31.16488
468.11        31.20691
468.55        31.27394
468.99        31.33574
469.44        31.34113
469.88        31.28474
470.32         31.1792
470.77        31.06984
471.21        31.03483
471.65        31.08882
472.10        31.21089
472.54        31.35101
472.98        31.44037
473.42         31.4589
473.87        31.43479
474.31        31.38004
474.75        31.34299
475.20        31.34153
475.64        31.34925
476.08        31.36102
476.52        31.33799
476.97         31.2734
477.41        31.22749
477.85        31.22975
478.29        31.12805
478.74        31.19373
479.18        31.30366
479.62         31.4878
480.06        31.62072
480.50        31.69131
480.95          31.715
481.39        31.67432
481.83         31.8513
482.27        31.78133
482.72          31.846
483.16        31.92399
483.60         31.9592
484.04        31.94307
484.48        32.06408
484.93        32.32761
485.37        32.03185
485.81        32.35371
486.25        32.30732
486.69        32.60512
487.14         33.0461
487.58        32.65646
488.02        33.18812
488.46         32.7802
488.90        32.70301
489.34        32.90011
489.79        33.02118
490.23        33.13099
490.67        33.11316
491.11        33.00778
491.55         32.8802
491.99        32.78703
492.43        32.78017
492.88        32.88144
493.32         33.0869
493.76        33.34713
494.20        33.57585
494.64        33.75369
495.08        33.88679
495.52        33.96894
495.96        34.09336
496.41        34.24803
496.85        34.18275
497.29         33.9586
497.73        34.23161
498.17        34.49073
498.61        34.66659
499.05        34.58604
499.49        34.54344
499.93        34.48268
500.37        34.59393
500.82        34.82108
501.26        34.98139
501.70        35.05363
502.14        35.16274
502.58        35.31686
503.02        35.45723
503.46         35.5796
503.90        35.69936
504.34        35.79752
504.78        35.84539
505.22         35.8406
505.66        35.78867
506.10        35.72944
506.54        35.72768
506.98        35.79579
507.42        35.91727
507.86        36.04605
508.30         36.1038
508.74        36.07528
509.18        35.99021
509.62        35.89614
510.06        35.86939
510.50        35.92984
510.94        36.04881
511.38        36.20021
511.82        36.34229
512.26        36.45689
512.70        36.55735
513.14        36.63384
513.58        36.67024
514.02        36.66844
514.46        36.62965
514.90        36.58456
515.34        36.58681
515.78         36.6451
516.22        36.74164
516.66        36.84134
517.10        36.88518
517.54        36.85874
517.98         36.7844
518.42        36.68125
518.86        36.58041
519.30        36.49611
519.74        36.41875
520.18        36.36107
520.62        36.34136
521.06        36.36163
521.50        36.42463
521.93        36.50082
522.37        36.52641
522.81         36.4941
523.25        36.41453
523.69         36.3377
524.13        36.34526
524.57        36.44589
525.01        36.60545
525.45        36.75613
525.89        36.78937
526.32        36.67855
526.76        36.47564
527.20        36.23436
527.64        36.04084
528.08        35.92485
528.52        35.86103
528.96        35.84377
529.40        35.86342
529.83        35.90634
530.27        35.97846
530.71        36.04685
531.15        36.06008
531.59        36.00815
532.03        35.90074
532.46        35.76588
532.90        35.67778
533.34        35.64719
533.78        35.63555
534.22         35.6216
534.66        35.61506
535.09        35.58231
535.53        35.45513
535.97        35.26572
536.41        35.15517
536.85        35.14001
537.28        35.14816
537.72        35.17556
538.16        35.24239
538.60        35.33921
539.04        35.45963
539.47        35.56957
539.91        35.63933
540.35        35.65732
540.79        35.63624
541.22        35.60728
541.66        35.63441
542.10        35.72608
542.54         35.8613
542.97        36.00862
543.41        36.13392
543.85        36.22165
544.29        36.29229
544.72        36.34579
545.16        36.40408
545.60        36.47037
546.04        36.54457
546.47        36.65102
546.91        36.82363
547.35        37.05884
547.79        37.34188
548.22        37.62769
548.66        37.83963
549.10        38.00422
549.53        38.12139
549.97        38.21546
550.41        38.24331
550.84         38.2597
551.28          38.363
551.72         38.5135
552.15        38.67833
552.59         38.8981
553.03        38.61848
553.46        39.01664
553.90        39.10051
554.34        39.21291
554.77        39.34594
555.21        39.51044
555.65        39.69165
556.08        39.86636
556.52        40.01277
556.96        40.11671
557.39        40.26708
557.83        40.43172
558.27        40.38088
558.70        40.16721
559.14        40.11922
559.57        40.23099
560.01        40.29638
560.45        40.30799
560.88        40.37672
561.32        40.51751
561.75        40.65954
562.19        40.79251
562.63        40.88153
563.06        40.91925
563.50         40.9437
563.93        40.93938
564.37         40.9702
564.80        41.06024
565.24        41.10267
565.68        41.01383
566.11        41.54749
566.55        41.21122
566.98        41.25624
567.42        41.31104
567.85        41.44351
568.29         41.6663
568.72        41.97317
569.16        42.38261
569.60        42.64001
570.03        42.88168
570.47        43.17305
570.90        43.53777
571.34        43.25807
571.77        43.56178
572.21        43.45352
572.64        43.36457
573.08         43.4391
573.51        43.68652
573.95        43.96008
574.38        44.29618
574.82        44.23884
575.25        43.91999
575.69        44.05235
576.12        44.52309
576.56        44.02566
576.99         44.4788
577.42        44.53222
577.86        44.31659
578.29        45.23036
578.73        44.74031
579.16        44.66905
579.60        44.30138
580.03        44.33989
580.47        44.18671
580.90        44.58558
581.33        44.66018
581.77        44.62637
582.20        44.33502
582.64        44.34498
583.07        44.14545
583.51        43.89578
583.94        43.60201
584.37        43.47364
584.81        43.54221
585.24        43.50397
585.68         43.3987
586.11         43.2392
586.54        43.27671
586.98        43.09106
587.41        42.86404
587.85        42.71996
588.28        42.71459
588.71        42.64523
589.15        42.49279
589.58        42.52991
590.01        42.48982
590.45        42.52862
590.88        43.06876
591.31        42.96732
591.75        42.48914
592.18        42.23587
592.61        42.39382
593.05        42.65733
593.48        43.51091
593.91        43.52047
594.35        43.17825
594.78        42.82708
595.21        42.69249
595.65        43.09922
596.08        43.99528
596.51        43.99599
596.94        43.74657
597.38         43.6643
597.81        43.94576
598.24        44.64528
598.68        44.47291
599.11        44.64451
599.54        45.79365
599.97        45.38694
600.41        45.92564
600.84        45.79596
601.27        46.35521
601.70        46.41262
602.14        46.80783
602.57        46.97088
603.00        47.24528
603.43        47.10644
603.87        48.32464
604.30        48.72257
604.73        48.90897
605.16        48.96239
605.60        49.36272
606.03        49.58771
606.46        49.75699
606.89        49.90318
607.32        50.73564
607.76        50.83158
608.19        51.35222
608.62        51.70587
609.05        52.07623
609.48        52.42001
609.92        53.35416
610.35        53.28119
610.78        53.36942
611.21        53.22463
611.64        53.72731
612.07        54.14558
612.50        54.33415
612.94        54.59234
613.37        54.79153
613.80        55.04351
614.23        54.83364
614.66        55.03988
615.09        55.49825
615.52          55.956
615.96        56.31281
616.39        56.62019
616.82        56.87239
617.25        56.92112
617.68        56.82895
618.11        57.14878
618.54        57.44616
618.97        57.68892
619.40        57.71052
619.84        57.99125
620.27        57.99529
620.70        58.10333
621.13        58.13213
621.56        58.01664
621.99        57.82013
622.42        57.71336
622.85        57.77573
623.28        57.97235
623.71         58.4427
624.14        58.60501
624.57        58.73061
625.00        58.66914
625.43        58.74731
625.86        58.52691
626.29        58.14523
626.72         58.0246
627.15        57.92637
627.58        57.99125
628.01        57.98281
628.44        57.89697
628.87        57.81205
629.30        56.90636
629.73        56.81509
630.16        56.97918
630.59        56.46321
631.02        56.40223
631.45        56.34089
631.88        56.21602
632.31        55.97358
632.74        55.65296
633.17        55.27825
633.60        54.86586
634.03        54.43644
634.46        53.98019
634.89        53.51038
635.32        53.06483
635.75        52.65709
636.18        52.22888
636.61        51.80598
637.04        51.45381
637.47        51.17196
637.89        50.93458
638.32        50.68548
638.75        50.38597
639.18        50.02844
639.61        49.63018
640.04        49.23951
640.47        48.92926
640.90        48.71649
641.33        48.58395
641.76         48.4914
642.18         48.3788
642.61        48.21395
643.04        48.01831
643.47        47.83496
643.90        47.73177
644.33        47.72165
644.76        47.78612
645.18        47.86683
645.61        47.85706
646.04        47.74707
646.47        47.58038
646.90         47.4471
647.33        47.47787
647.75        47.68655
648.18        48.08175
648.61        48.60572
649.04        48.97462
649.47        49.10508
649.89        49.81666
650.32         49.8172
650.75        50.11737
651.18        50.37838
651.61        50.80447
652.03        51.35864
652.46        51.80003
652.89        52.16143
653.32        52.47942
653.74        52.90992
654.17         53.3378
654.60        54.40985
655.03        54.38423
655.46        54.19448
655.88        54.27538
656.31        57.54348
656.74        60.92238
657.16        60.57222
657.59        59.70933
658.02        57.86523
658.45        58.55342
658.87        57.83307
659.30        58.17658
659.73        58.65067
660.15        59.86612
660.58        58.86735
661.01        59.05406
661.44        59.58506
661.86         59.7136
662.29        59.44064
662.72        60.06664
663.14        60.40795
663.57        60.67306
664.00        60.59773
664.42        60.81591
664.85        61.35184
665.27        61.88495
665.70        62.28478
666.13        62.53821
666.55        62.62481
666.98        62.49162
667.41        62.22575
667.83          62.376
668.26         62.3349
668.69        62.58065
669.11        62.88605
669.54        63.17586
669.96        63.42103
670.39        63.69339
670.82        63.96572
671.24        64.05975
671.67        64.03175
672.09        64.09874
672.52        64.29416
672.94        64.53429
673.37        64.77947
673.80        64.87086
674.22        64.86339
674.65        65.04902
675.07        65.41221
675.50        65.60069
675.92        65.60985
676.35        65.67051
676.77        65.78982
677.20        65.83907
677.62        65.84663
678.05        65.90543
678.47        66.02439
678.90        66.22472
679.32        66.40128
679.75        66.53736
680.17        66.59483
680.60        66.59496
681.02        66.60205
681.45        66.69901
681.87        66.91347
682.30        67.24813
682.72        67.62019
683.15         67.7575
683.57        67.68493
684.00        67.65033
684.42        67.73195
684.85        67.87832
685.27        68.09802
685.70         68.4595
686.12        68.85911
686.54        69.10187
686.97        69.14588
687.39        69.06147
687.82        68.90837
688.24        68.80332
688.66        68.78681
689.09        68.82751
689.51         68.9252
689.94        69.05259
690.36        69.20225
690.78        69.35685
691.21         69.5346
691.63        69.75986
692.06        70.02875
692.48        70.33342
692.90        70.59784
693.33        70.70069
693.75        70.61948
694.17        70.39964
694.60        70.19057
695.02        70.13187
695.44        70.29241
695.87        70.87426
696.29        71.62033
696.71        71.69239
697.14        71.18616
697.56        70.87075
697.98        70.82641
698.41         71.3783
698.83        71.11793
699.25        71.56411
699.68        72.12657
700.10        72.42841
700.52        72.36639
700.94        72.08821
701.37        71.78931
701.79        71.75034
702.21        72.03365
702.64        72.52227
703.06         73.0575
703.48        73.36311
703.90        73.37136
704.33        73.19168
704.75        72.93468
705.17        72.76263
705.59        72.73197
706.01        72.77596
706.44        72.91669
706.86        73.16183
707.28        73.46554
707.70        73.96975
708.12        74.52155
708.55        74.52518
708.97        74.10326
709.39        74.08691
709.81        74.48373
710.23        74.60717
710.66        74.43862
711.08        74.43385
711.50        74.56461
711.92        74.58708
712.34        74.49828
712.76        74.38789
713.19        74.28844
713.61        74.29089
714.03        74.40434
714.45        74.59741
714.87        74.86358
715.29         75.2059
715.71        75.60049
716.13        76.01637
716.56        76.38052
716.98        76.67615
717.40        76.83768
717.82           76.88
718.24        76.79137
718.66        76.55928
719.08        76.22762
719.50        75.84769
719.92        75.52948
720.34        75.43173
720.76        75.58382
721.19        75.90661
721.61        76.37238
722.03        76.86697
722.45        77.31691
722.87        77.72873
723.29        77.99731
723.71        77.95926
724.13        77.60538
724.55        77.02921
724.97        76.43304
725.39        76.06792
725.81        76.00385
726.23        76.48648
726.65        76.77599
727.07        77.32367
727.49        77.59059
727.91        77.86459
728.33        78.06907
728.75        78.23675
729.17        78.37775
729.59        78.45436
730.01        78.47472
730.43        78.46407
730.85         78.4338
731.27        78.39128
731.69        78.34061
732.10        78.28012
732.52        78.20779
732.94        78.13982
733.36        78.11938
733.78        78.04513
734.20        77.91305
734.62        78.08428
735.04        78.59899
735.46        77.99779
735.88        78.63838
736.30        78.73468
736.72        79.02355
737.13        79.60805
737.55        80.25284
737.97        80.54858
738.39        80.40041
738.81        79.80228
739.23        79.04138
739.65        79.04329
740.06        79.69186
740.48        79.98154
740.90        79.84448
741.32        79.94669
741.74        80.30203
742.16        80.55202
742.57        80.66741
742.99          80.726
743.41        80.72881
743.83        80.65493
744.25        80.51964
744.67        80.32134
745.08         80.1425
745.50        80.09122
745.92        80.20069
746.34        80.43361
746.75        80.70992
747.17        80.87709
747.59        80.90372
748.01        80.84399
748.42        80.75034
748.84         80.6999
749.26         80.7338
749.68        80.82017
750.09        80.93206
750.51        81.09748
750.93        81.24095
751.35        81.17046
751.76        80.91586
752.18        80.73122
752.60        80.62076
753.01        80.49915
753.43        80.39267
753.85        80.29066
754.27        80.17838
754.68        80.67029
755.10        80.77769
755.52         80.9497
755.93        80.88548
756.35        81.22326
756.77        81.49217
757.18        81.59782
757.60        81.88662
758.02        82.41592
758.43        83.05728
758.85        82.32078
759.26        82.14071
759.68        80.68673
760.10        80.90351
760.51        81.55145
760.93        82.74641
761.34        82.17598
761.76        82.50902
762.18        82.29686
762.59        82.46307
763.01        82.56678
763.42        82.65047
763.84        82.67281
764.26        82.63476
764.67        82.51817
765.09        82.42852
765.50        82.49883
765.92        82.68867
766.33        82.65862
766.75        82.31666
767.16        81.97607
767.58         81.7207
768.00        81.51575
768.41        81.51238
768.83        82.10928
769.24        83.02102
769.66        83.37439
770.07        83.12836
770.49        82.70206
770.90        82.36042
771.32        82.69559
771.73        83.53994
772.15        83.79282
772.56        83.40598
772.97        83.00598
773.39         82.7748
773.80        82.76923
774.22        82.97573
774.63        83.29497
775.05        83.55045
775.46         83.6916
775.88        83.63252
776.29        83.36639
776.70        83.02467
777.12        82.89766
777.53        83.06057
777.95        83.38091
778.36         83.7515
778.77        83.94241
779.19        83.91815
779.60        83.77882
780.02         83.5914
780.43        83.54578
780.84        83.71292
781.26        83.69971
781.67        83.61249
782.09        84.32793
782.50        85.48328
782.91        85.37624
783.33        84.17207
783.74        83.64784
784.15        83.90712
784.57        84.06509
784.98        84.06943
785.39        83.96813
785.81        83.89399
786.22        84.46801
786.63        85.47182
787.04        85.91951
787.46        85.73276
787.87        85.36917
788.28        85.05583
788.70        84.91466
789.11        84.98787
789.52        85.34019
789.93        85.76663
790.35        85.79153
790.76        85.42001
791.17        84.99641
791.58        84.72375
792.00        84.66154
792.41        84.78992
792.82        85.17704
793.23        85.58983
793.65        85.18963
794.06        84.36385
794.47        84.65841
794.88         85.7336
795.29         86.8865
795.71        85.81943
796.12        85.53332
796.53        85.52669
796.94        85.25233
797.35        84.89325
797.76        85.29285
798.18        86.24604
798.59        86.76307
799.00        86.71421
799.41         86.3237
799.82        86.23593
800.23        86.07497
800.64        86.04794
801.06        86.07851
801.47        86.15808
801.88        86.16448
802.29        86.05348
802.70        85.85888
803.11        85.62576
803.52        85.42398
803.93        85.31712
804.34        85.31656
804.75        85.38215
805.17        85.59655
805.58         86.0219
805.99        86.09032
806.40        85.95701
806.81        87.13315
807.22        89.03366
807.63        88.73989
808.04         86.5871
808.45        85.66262
808.86        86.20148
809.27        86.52438
809.68        86.41386
810.09        86.32354
810.50        86.21155
810.91        85.96543
811.32         85.7827
811.73        85.94764
812.14        86.49513
812.55        87.41302
812.96         88.4003
813.37         88.6978
813.78        88.23275
814.19        87.61611
814.60        87.05086
815.01        86.47152
815.42        85.96204
815.83        85.65511
816.24        85.56561
816.65        85.60297
817.05        85.75677
817.46        86.04082
817.87        86.39013
818.28        86.62869
818.69        86.71678
819.10        86.65488
819.51        86.56059
819.92        86.66949
820.33        87.02406
820.74         87.5388
821.14        88.03326
821.55        88.21201
821.96         88.0202
822.37        87.56425
822.78        87.02216
823.19        86.69322
823.60        86.67532
824.00        86.90887
824.41        87.23946
824.82        87.53886
825.23        87.72517
825.64        87.83991
826.04        87.87749
826.45        87.77234
826.86        87.55576
827.27        87.26014
827.68        86.94109
828.08        86.73672
828.49        86.63149
828.90        86.60712
829.31        86.72224
829.72        87.06319
830.12        87.63956
830.53        88.34969
830.94        88.95697
831.35        89.00341
831.75        88.42239
832.16        87.33601
832.57        86.14056
832.97        85.44339
833.38        85.40923
833.79        85.84861
834.20        86.54108
834.60        87.12245
835.01         87.4714
835.42        87.74484
835.82        87.96165
836.23        88.04646
836.64        88.04553
837.04         87.9004
837.45        87.80453
837.86        88.17957
838.26        89.10545
838.67        90.40995
839.08        91.64264
839.48         91.9389
839.89        91.09673
840.29        89.44804
840.70        87.70687
841.11        86.67184
841.51        86.55439
841.92        87.09351
842.33        88.01985
842.73        88.84893
843.14        89.24708
843.54        89.41069
843.95        89.42254
844.35        89.48609
844.76        89.63171
845.17        89.76894
845.57        89.80755
845.98        89.59191
846.38        89.14051
846.79        88.52935
847.19         87.9372
847.60        87.60294
848.00        87.59673
848.41        87.80476
848.81        88.13542
849.22         88.3249
849.62        88.34284
850.03        88.25569
850.43        88.10043
850.84        87.84877
851.24        87.58906
851.65        87.23769
852.05        87.05552
852.46        87.34926
852.86        88.13541
853.27         89.2589
853.67        90.28865
854.07        90.79256
854.48        90.66103
854.88        90.07152
855.29        89.17619
855.69         88.4479
856.10        87.98745
856.50        87.78447
856.90        87.76826
857.31        87.83715
857.71        88.00204
858.12        88.22144
858.52        88.51199
858.92        88.73419
859.33        88.82233
859.73        88.84344
860.13        88.72498
860.54        88.40365
860.94        87.95394
861.34        87.38774
861.75        86.87733
862.15        86.75778
862.55        87.06377
862.96        87.65659
863.36        88.37407
863.76        88.80875
864.17        88.81952
864.57        88.55391
864.97        88.05943
865.38        87.43029
865.78        86.77131
866.18          86.056
866.58        85.44797
866.99        85.24025
867.39        85.52167
867.79        86.19345
868.19        87.02323
868.60        87.60934
869.00        87.87142
869.40        87.86576
869.80        87.69027
870.21        87.55589
870.61        87.62177
871.01        87.76686
871.41        87.86391
871.81         87.7408
872.22         87.3607
872.62         86.7747
873.02        86.21021
873.42        86.02825
873.82        86.30375
874.22        86.93166
874.63        87.55554
875.03        87.62788
875.43         87.0336
875.83        85.96317
876.23        84.84304
876.63        84.32019
877.03        84.55444
877.44        85.34641
877.84        86.36308
878.24        86.98904
878.64        87.00386
879.04        86.49998
879.44        85.85712
879.84         85.6955
880.24        86.10261
880.64         86.8557
881.04        87.48233
881.44        87.22943
881.84         85.9817
882.24        84.07596
882.65        82.12484
883.05        81.04253
883.45        81.07918
883.85        81.97041
884.25        83.33739
884.65        84.51512
885.05        85.23187
885.45         85.6362
885.85        85.83626
886.25        86.01704
886.65        86.23788
887.05        86.39346
887.45         86.4234
887.85        86.27557
888.25        85.95433
888.65        85.53095
889.04        85.09995
889.44        84.80858
889.84        84.68032
890.24        84.68337
890.64        84.75446
891.04        84.78654
891.44        84.74332
891.84        84.65668
892.24        84.55813
892.64        84.48557
893.04        84.47087
893.44        84.53561
893.83        84.68586
894.23         84.8699
894.63        85.09747
895.03        85.32806
895.43        85.65652
895.83        86.24901
896.23        87.06572
896.63        87.99046
897.02        88.68845
897.42        88.66472
897.82        87.86005
898.22        86.52596
898.62        85.01181
899.01        83.82101
899.41        83.14658
899.81        82.83572
900.21        82.88692
900.61        83.27856
901.00        83.92401
901.40        84.80355
901.80        85.65079
902.20        86.02434
902.59        85.84536
902.99        85.20992
903.39        84.38713
903.79        83.85119
904.18         83.7346
904.58        83.90876
904.98        84.27628
905.38        84.68809
905.77        85.08055
906.17        85.53727
906.57        85.93552
906.96         86.0608
907.36        85.86631
907.76        85.40311
908.15         84.9619
908.55        85.00106
908.95        85.60408
909.34        86.62513
909.74        87.65421
910.14        88.11932
910.53        87.84093
910.93        87.04669
911.33        85.97034
911.72        84.95034
912.12        84.21807
912.52        83.70676
912.91         83.4389
913.31        83.48284
913.70        83.81297
914.10         84.3596
914.49        85.13085
914.89        86.00056
915.29        86.89737
915.68        87.81506
916.08        88.42641
916.47        88.32625
916.87        87.50885
917.26        86.11447
917.66        84.72438
918.05        84.02203
918.45        84.16286
918.84         85.0145
919.24        86.12597
919.64        86.83309
920.03        86.93104
920.42        86.56349
920.82        86.09793
921.21        86.05745
921.61        86.53111
922.00        87.36833
922.40        88.19254
922.79        88.54961
923.19        88.27528
923.58         87.5985
923.98        86.79985
924.37        86.17794
924.77        85.85561
925.16         85.6787
925.55        85.65968
925.95        85.79969
926.34        86.07088
926.74        86.45206
927.13        86.71053
927.52        86.39127
927.92        85.51392
928.31        84.24468
928.70        82.98609
929.10        82.32397
929.49        82.37948
929.89        82.89375
930.28        83.79185
930.67         84.7823
931.07        85.66254
931.46        86.60379
931.85        87.22659
932.24        86.98637
932.64        85.91174
933.03        84.14052
933.42        82.46948
933.82        82.07976
934.21        83.19421
934.60        85.54872
934.99        88.30482
935.39         89.9046
935.78        89.91919
936.17        88.64674
936.56        86.89797
936.96        85.98323
937.35        86.23427
937.74        87.23697
938.13        88.27751
938.53        88.26717
938.92        86.99741
939.31        84.96276
939.70        82.86133
940.09        81.63908
940.49        81.49237
940.88        82.16156
941.27           83.28
941.66        84.17844
942.05        84.60941
942.44        84.79873
942.84           84.91
943.23        85.18889
943.62        85.70722
944.01        86.26559
944.40        86.85882
944.79        87.54713
945.18         88.2687
945.57        89.00178
945.97        89.41512
946.36        89.07397
946.75        87.90237
947.14        86.17203
947.53        84.36005
947.92        83.12061
948.31        82.62984
948.70        82.73471
949.09        83.27644
949.48        83.95168
949.87        84.60636
950.26        85.28441
950.65        85.94073
951.04        86.51279
951.43        86.95282
951.82        87.19841
952.21        87.21554
952.60        86.99994
952.99        86.61337
953.38        86.15254
953.77        85.71732
954.16        85.44777
954.55        85.37828
954.94        85.42283
955.33        85.67532
955.72        86.26859
956.11         87.1658
956.50        88.34666
956.89        89.30192
957.28        89.19656
957.66        87.90555
958.05        85.76248
958.44        83.61821
958.83         82.7041
959.22        83.24292
959.61        84.90575
960.00        86.93447
960.39        87.89848
960.78        87.35775
961.16        85.75972
961.55        83.90617
961.94        82.83133
962.33         82.8113
962.72        83.57362
963.11        84.69566
963.49        85.42371
963.88        85.38102
964.27        84.83402
964.66        84.30213
965.04        84.57218
965.43        85.74048
965.82        87.61253
966.21         89.4826
966.60        90.01771
966.98        88.83469
967.37        86.50892
967.76        84.05736
968.15        82.74547
968.53        82.83205
968.92        84.01322
969.31        85.64738
969.69        86.46496
970.08        85.95421
970.47        84.55149
970.86        83.14743
971.24        82.99072
971.63        84.32579
972.02         86.7967
972.40         89.5353
972.79        90.48634
973.17        89.16013
973.56        86.32024
973.95        83.22542
974.33         81.4948
974.72        81.45107
975.11        82.56376
975.49        84.26482
975.88        85.32423
976.26        85.35199
976.65        84.72717
977.04        83.73322
977.42        82.73476
977.81        81.88432
978.19        81.00845
978.58        80.42126
978.96        80.65636
979.35        81.71991
979.74        83.51192
980.12         85.5061
980.51        86.42657
980.89        86.08849
981.28        84.86324
981.66        83.36787
982.05        82.50967
982.43        82.53219
982.82        83.10192
983.20        84.24182
983.59        85.79238
983.97        87.66992
984.35        89.87965
984.74        91.73002
985.12        92.31525
985.51        91.40283
985.89        89.28011
986.28        86.94247
986.66        85.84515
987.04        86.40531
987.43        88.22128
987.81         90.6008
988.20        91.93073
988.58        91.70357
988.96        90.29344
989.35        88.45912
989.73        87.23988
990.12        86.89158
990.50        87.15423
990.88        87.46918
991.27         86.9362
991.65        85.41408
992.03        83.29124
992.42        81.42233
992.80        80.85603
993.18        81.82173
993.56        84.05665
993.95        86.62357
994.33        87.98308
994.71        87.47663
995.10         85.6646
995.48        83.59941
995.86        82.95657
996.24        84.11572
996.63        86.44731
997.01        89.31887
997.39        90.94372
997.77        90.61729
998.15        89.05453
998.54         86.8352
998.92        84.61883
999.30         82.8131
999.68        81.19296
1000.06        80.21912
1000.45        80.52442
1000.83        82.24417
1001.21        85.38452
1001.59        89.07637
1001.97        91.11071
1002.35        90.69626
1002.73         88.4818
1003.12        85.89747
1003.50        84.74905
1003.88          85.554
1004.26        87.65936
1004.64        90.58164
1005.02        93.17478
1005.40        94.76051
1005.78        95.82858
1006.16        95.90077
1006.54        94.21986
1006.92        91.04716
1007.30        86.74003
1007.69        82.93162
1008.07        81.83714
1008.45        84.02929
1008.83        89.03658
1009.21        95.41264
1009.59         99.4072
1009.97        99.17173
1010.35        95.78078
1010.73        90.58775
1011.11        85.60757
1011.49        81.73071
1011.86        78.53733
1012.24        76.41805
1012.62        75.79869
1013.00        76.63368
1013.38        78.97674
1013.76        82.34438
1014.14        85.15556
1014.52        86.46288
1014.90        86.34774
1015.28        85.28123
1015.66        84.18757
1016.04        83.36104
1016.41        82.57351
1016.79        81.67353
1017.17        80.60008
1017.55        79.40624
1017.93        78.25895
1018.31        77.42246
1018.69        77.12425
1019.06        77.43214
1019.44        78.37122
1019.82         79.4994
1020.20        79.80103
1020.58        78.94865
1020.95        77.12151
1021.33        75.55341
1021.71        75.59609
1022.09        77.49552
1022.46        81.32957
1022.84        85.78262
1023.22        87.63547
1023.60        85.68119
1023.97        80.80502
1024.35         76.2524
1024.73        75.83923
