SpectraSmart Spectrum 2.9.0.0
--------- Device Information -----------
Spectrum Name :  反射率_0
Saving Time :  2024/04/27 00:20:28
Spectro-Module Model Name : SE2030-DUVN
Spectro-Module Serial Number : OS361AC55029948
Wavelength Start : 200
Wavelength End : 1025
Wavelength Unit : Wavelength(nm)
Spectrum Unit : Reflectance(%)
-----------Spectrum Setting ------------
Integration Time : 20ms
Average : 10
Boxcar : 0
Background removal :  enabled
linearity correction :  enabled
SC :  disabled
Intensity correction :  disabled
DWT denoise :  enabled
savitzky-golay :  disabled
FFT :  disabled
Running average :  disabled
Kalman :  disabled
High pass :  disabled
---------------BEGIN--------------------
Wavelength(nm)             Reflectance(%)
200.29               0
200.75         36.7624
201.21        35.08802
201.67        33.27545
202.13        31.98638
202.58        31.23634
203.04        30.81879
203.50        31.47829
203.96        34.92069
204.42        41.70415
204.88         51.4472
205.34        60.82152
205.80         64.2536
206.26        60.84725
206.72        52.86436
207.18        44.66447
207.64        39.68143
208.10        37.88409
208.55        38.76878
209.01        41.19454
209.47         41.6017
209.93        39.00871
210.39        36.15841
210.85        35.00965
211.31        36.87337
211.77         42.9338
212.23        57.41253
212.69        94.77522
213.14        162.5155
213.60        168.4385
214.06        127.1187
214.52          97.087
214.98        83.52657
215.44         77.8543
215.90        74.27363
216.36        71.98023
216.81         70.5303
217.27        69.99958
217.73        72.21931
218.19        76.10688
218.65        75.62476
219.11        70.39555
219.57        64.23138
220.02        61.95698
220.48        67.48946
220.94         81.3074
221.40         105.777
221.86        140.4705
222.32        163.3934
222.77        155.1952
223.23        130.6566
223.69        106.1417
224.15        90.94071
224.61        83.58736
225.06        79.60925
225.52        78.40611
225.98        79.16017
226.44        81.28069
226.90           85.15
227.36        88.97646
227.81        89.49421
228.27        86.61126
228.73        81.42059
229.19        76.88946
229.65        76.53584
230.10        80.35853
230.56         87.1184
231.02        93.90598
231.48        96.08505
231.93        92.94506
232.39        86.92751
232.85        80.82142
233.31        78.18434
233.77        79.40979
234.22        83.14861
234.68        87.77505
235.14        90.84465
235.60        91.53944
236.05         90.6733
236.51        88.67641
236.97        86.70924
237.43        85.40266
237.88        84.42112
238.34        83.70998
238.80        83.55785
239.26        84.02686
239.71        85.79288
240.17        88.34307
240.63        90.75518
241.08        92.52161
241.54        92.93785
242.00        93.23621
242.46        96.20396
242.91        104.1716
243.37        118.1846
243.83        138.8272
244.28        156.8875
244.74        157.7535
245.20         141.063
245.66         119.554
246.11        104.4686
246.57        96.44025
247.03        91.98396
247.48         88.2969
247.94        82.16574
248.40        75.12628
248.85        69.49164
249.31        65.86216
249.77        63.52027
250.22        61.69579
250.68        59.56324
251.14        57.86013
251.59         58.9634
252.05        63.58864
252.51        70.62225
252.96        75.51571
253.42        74.78828
253.88        69.69374
254.33        62.26639
254.79        57.41356
255.25        59.23837
255.70        67.11779
256.16        79.07295
256.62        90.05209
257.07        92.30779
257.53          87.368
257.99        79.93063
258.44        73.73553
258.90        72.06413
259.35        73.56011
259.81        76.85087
260.27        80.01979
260.72        80.78879
261.18        79.41117
261.63        76.72744
262.09        74.22809
262.55        72.78983
263.00        72.29742
263.46        72.45946
263.91         72.5237
264.37         71.9947
264.83        70.79141
265.28        69.19633
265.74        67.80869
266.19         66.9534
266.65        66.76168
267.11        66.92552
267.56        67.21262
268.02        67.28764
268.47        67.01643
268.93        66.55067
269.38        65.85189
269.84        64.94843
270.30        63.86589
270.75        62.58208
271.21        61.33767
271.66        60.41628
272.12        59.87718
272.57        59.61923
273.03        59.38552
273.48        58.72311
273.94        57.62499
274.39        56.20304
274.85        54.82742
275.31         53.8173
275.76        53.18736
276.22        52.85631
276.67        52.56835
277.13        52.11619
277.58        51.37057
278.04        50.46305
278.49        49.44195
278.95        48.53903
279.40          47.735
279.86         47.0648
280.31        46.36713
280.77        45.57558
281.22        44.63287
281.68        43.68206
282.13        42.80186
282.59        42.22502
283.04         41.9124
283.50        41.80385
283.95        41.73494
284.41        41.48762
284.86        40.99984
285.32        40.38242
285.77        39.71252
286.22        39.17901
286.68        38.81685
287.13        38.52284
287.59        38.25783
288.04        37.90351
288.50        37.47151
288.95        36.97748
289.41        36.48074
289.86        35.97231
290.32        35.50876
290.77        35.06598
291.22        34.69181
291.68        34.43862
292.13        34.29712
292.59        34.27274
293.04        34.32948
293.50        34.43476
293.95        34.56459
294.40        34.73063
294.86        34.93988
295.31        35.19481
295.77        35.50072
296.22        35.83126
296.68        36.19014
297.13        36.56656
297.58        36.96106
298.04        37.37908
298.49        37.79597
298.95        38.19197
299.40        38.55898
299.85        38.91358
300.31        39.28666
300.76        39.71063
301.21        40.18967
301.67        40.70829
302.12        41.21857
302.58        41.71877
303.03        42.15892
303.48        42.55703
303.94        42.89194
304.39        43.08949
304.84         43.1675
305.30        43.16674
305.75        43.12538
306.20        43.16621
306.66        43.32531
307.11        43.55084
307.57        43.80515
308.02        43.96785
308.47          44.024
308.93        44.01039
309.38         43.9547
309.83        43.95711
310.29        44.03508
310.74        44.15179
311.19        44.23732
311.65        44.17565
312.10        43.94464
312.55        43.59089
313.00        43.22297
313.46        42.99909
313.91        42.93296
314.36        42.98043
314.82        43.04024
315.27        42.96087
315.72        42.69984
316.18        42.32432
316.63         41.8958
317.08        41.52626
317.53        41.24967
317.99        41.02521
318.44        40.84179
318.89        40.67086
319.35        40.49657
319.80        40.32866
320.25        40.15471
320.70        39.95018
321.16        39.70938
321.61        39.45249
322.06        39.18007
322.51        38.90403
322.97        38.62671
323.42        38.34296
323.87        38.09266
324.32         37.9463
324.78         37.8941
325.23         37.9412
325.68        37.95751
326.13         37.7336
326.59        37.23566
327.04        36.54861
327.49        35.85083
327.94        35.42602
328.39        35.33495
328.85        35.47953
329.30        35.74622
329.75         35.8507
330.20        35.69973
330.66        35.37081
331.11        34.96989
331.56        34.63988
332.01        34.43123
332.46        34.28331
332.92        34.16111
333.37        34.07051
333.82        33.97973
334.27        33.91209
334.72        33.83823
335.17        33.69511
335.63        33.47381
336.08        33.21048
336.53        32.95862
336.98        32.82465
337.43        32.83297
337.88         32.9414
338.34        33.10277
338.79          33.269
339.24        33.39207
339.69         33.4861
340.14        33.50766
340.59        33.39225
341.05        33.15382
341.50        32.81508
341.95        32.47605
342.40        32.29201
342.85        32.29666
343.30        32.44283
343.75        32.65569
344.20        32.80715
344.66        32.85569
345.11        32.83561
345.56         32.7633
346.01        32.66717
346.46        32.57065
346.91        32.46947
347.36        32.38568
347.81         32.3611
348.26        32.39824
348.72        32.47802
349.17        32.58132
349.62        32.68912
350.07        32.78214
350.52        32.86385
350.97        32.87782
351.42        32.73869
351.87        32.44812
352.32        32.04546
352.77        31.64185
353.22        31.39848
353.67        31.34652
354.13        31.44161
354.58         31.5935
355.03        31.64593
355.48        31.55338
355.93          31.363
356.38        31.14055
356.83        30.98648
357.28        30.91978
357.73        30.89304
358.18        30.86236
358.63        30.76398
359.08        30.58225
359.53        30.35247
359.98        30.08767
360.43        29.79917
360.88         29.4978
361.33        29.17759
361.78        28.87812
362.23        28.66492
362.68        28.54962
363.13        28.52042
363.58        28.50634
364.03        28.39205
364.48          28.153
364.93        27.81558
365.38        27.46768
365.83        27.25831
366.28        27.21712
366.73        27.29246
367.18        27.37859
367.63        27.31014
368.08        27.05262
368.53          26.667
368.98        26.24494
369.43        25.92921
369.88        25.76229
370.33        25.69976
370.78        25.69379
371.23        25.66674
371.68        25.58719
372.13        25.47652
372.58        25.34773
373.03        25.21804
373.48        25.09192
373.93        24.95733
374.38        24.79989
374.83        24.60582
375.28        24.37663
375.72        24.11626
376.17        23.86997
376.62        23.67056
377.07        23.52743
377.52        23.43757
377.97        23.36712
378.42         23.2626
378.87        23.11482
379.32        22.93538
379.77          22.778
380.22        22.72129
380.67        22.77243
381.11        22.91194
381.56        23.04221
382.01        23.02311
382.46        22.82825
382.91        22.51296
383.36         22.1858
383.81        21.99702
384.26        21.97079
384.71        22.05632
385.15        22.17517
385.60          22.198
386.05        22.08965
386.50        21.89971
386.95        21.67936
387.40         21.5062
387.85        21.40388
388.29        21.32795
388.74        21.29139
389.19        21.26518
389.64        21.23639
390.09        21.20931
390.54        21.16598
390.98        21.07047
391.43        20.93481
391.88        20.77125
392.33        20.60678
392.78        20.47961
393.23        20.39879
393.67         20.3443
394.12         20.3249
394.57        20.31294
395.02        20.29773
395.47        20.27395
395.91        20.24736
396.36        20.21594
396.81        20.19107
397.26        20.17848
397.71        20.15204
398.15        20.08652
398.60        20.00966
399.05        19.85133
399.50        19.68509
399.95         19.7623
400.39        20.02874
400.84        20.09955
401.29         19.9533
401.74        19.87183
402.18        19.85884
402.63        19.72742
403.08        19.51577
403.53        19.37302
403.97        19.31967
404.42        19.31916
404.87        19.34075
405.32        19.33218
405.76         19.2762
406.21        19.19911
406.66        19.12773
407.11        19.10467
407.55        19.14295
408.00        19.21707
408.45        19.29228
408.90        19.30117
409.34        19.22588
409.79        19.09287
410.24        18.94826
410.68        18.85011
411.13        18.81672
411.58        18.83013
412.03        18.85773
412.47        18.84555
412.92        18.77438
413.37        18.67124
413.81        18.56863
414.26        18.52717
414.71        18.55118
415.15        18.62829
415.60        18.71951
416.05        18.77445
416.49        18.77765
416.94        18.74095
417.39        18.69446
417.83        18.68367
418.28        18.71724
418.73        18.77517
419.17        18.83519
419.62        18.86309
420.07        18.85063
420.51        18.80965
420.96        18.75306
421.41         18.6954
421.85        18.63728
422.30        18.56643
422.74        18.48824
423.19        18.49447
423.64        18.55769
424.08         18.5626
424.53         18.4948
424.98        18.47356
425.42        18.51152
425.87         18.4868
426.31        18.42319
426.76        18.49437
427.21        18.65076
427.65        18.62049
428.10        18.43991
428.54        18.35963
428.99        18.40055
429.44        18.49083
429.88        18.57521
430.33        18.49525
430.77          18.306
431.22        18.34897
431.66        18.60573
432.11        18.72752
432.56        18.70359
433.00        18.79576
433.45        18.91065
433.89         18.7518
434.34        18.45456
434.78        17.94521
435.23        18.27022
435.67        18.29453
436.12        18.27945
436.57        18.25836
437.01        18.24007
437.46        18.24402
437.90        18.25811
438.35        18.23346
438.79        18.16447
439.24        18.10465
439.68        18.05885
440.13        18.00677
440.57        17.97738
441.02        18.02337
441.46        18.13881
441.91         18.2962
442.35         18.4272
442.80        18.52465
443.24        18.54816
443.69         18.4397
444.13        18.25192
444.58        18.15715
445.02        18.17524
445.47        18.23535
445.91        18.30331
446.36        18.35285
446.80        18.36594
447.24        18.35793
447.69        18.33703
448.13        18.30585
448.58        18.27387
449.02        18.23289
449.47        18.19924
449.91        18.19178
450.36        18.21733
450.80        18.26704
451.25        18.32273
451.69        18.34299
452.13        18.32215
452.58        18.26715
453.02        18.20261
453.47        18.17216
453.91        18.18427
454.36        18.22755
454.80        18.26568
455.24        18.24031
455.69        18.14737
456.13        17.99739
456.58        17.85094
457.02        17.76794
457.46        17.76928
457.91        17.83424
458.35        17.90622
458.79        17.90115
459.24        17.81874
459.68        17.67827
460.13        17.55294
460.57        17.50683
461.01        17.56638
461.46        17.68963
461.90        17.84463
462.34        17.96408
462.79        18.01723
463.23        18.02985
463.68        17.99564
464.12        17.91773
464.56         17.8064
465.01        17.68769
465.45         17.5686
465.89        17.50768
466.34        17.51011
466.78        17.55663
467.22        17.63256
467.67        17.69156
468.11         17.7267
468.55        17.74137
468.99        17.73617
469.44        17.71188
469.88        17.67397
470.32        17.61964
470.77        17.56615
471.21         17.5458
471.65        17.56295
472.10        17.61304
472.54        17.67043
472.98        17.69919
473.42        17.69116
473.87        17.66312
474.31        17.62433
474.75        17.60645
475.20         17.6211
475.64        17.65131
476.08        17.69153
476.52        17.72439
476.97        17.74496
477.41        17.76704
477.85        17.79904
478.29        17.82732
478.74        17.86629
479.18         17.9571
479.62        18.07353
480.06        18.14413
480.50        18.16447
480.95        18.14777
481.39          18.097
481.83         18.1896
482.27        18.16167
482.72        18.22608
483.16        18.30853
483.60        18.34942
484.04        18.31908
484.48        18.42664
484.93        18.71285
485.37        18.48692
485.81        18.40205
486.25        18.92397
486.69        18.95738
487.14        19.00963
487.58        19.60051
488.02        19.56725
488.46        18.99596
488.90        19.03674
489.34        19.22569
489.79        19.49588
490.23        19.58969
490.67        19.72557
491.11        19.86376
491.55        19.83957
491.99         19.7176
492.43        19.70942
492.88        19.84541
493.32        20.02607
493.76        20.21233
494.20        20.38975
494.64        20.54618
495.08        20.64814
495.52        20.70419
495.96        20.85156
496.41        21.04923
496.85        21.00804
497.29         20.7873
497.73        20.89395
498.17        21.05951
498.61        21.30341
499.05        21.47571
499.49         21.5874
499.93        21.57979
500.37        21.66247
500.82        21.82228
501.26        21.94545
501.70         22.0291
502.14         22.1442
502.58         22.3006
503.02        22.47315
503.46        22.65553
503.90        22.85197
504.34        23.02533
504.78        23.11426
505.22        23.10934
505.66        23.03021
506.10         22.9279
506.54        22.88616
506.98         22.9267
507.42        23.02531
507.86         23.1517
508.30        23.25285
508.74        23.31093
509.18        23.34542
509.62        23.36073
510.06        23.36332
510.50        23.36004
510.94        23.34535
511.38        23.33845
511.82        23.37236
512.26         23.4519
512.70        23.57028
513.14        23.69636
513.58        23.77712
514.02        23.80048
514.46        23.78031
514.90          23.749
515.34        23.76077
515.78        23.82664
516.22         23.9255
516.66        24.02677
517.10        24.08252
517.54        24.07985
517.98        24.03693
518.42        23.97034
518.86        23.90561
519.30        23.85423
519.74        23.80916
520.18        23.77459
520.62        23.75679
521.06        23.75546
521.50        23.77232
521.93          23.797
522.37        23.80124
522.81        23.78298
523.25        23.74724
523.69        23.70852
524.13        23.69182
524.57        23.69925
525.01        23.71673
525.45        23.72993
525.89        23.71671
526.32        23.66823
526.76        23.60156
527.20        23.51473
527.64        23.40598
528.08         23.2834
528.52        23.15178
528.96        23.03888
529.40        22.98717
529.83        23.00086
530.27        23.06591
530.71        23.14571
531.15        23.18255
531.59        23.16015
532.03        23.09344
532.46         22.9987
532.90        22.92034
533.34        22.86712
533.78        22.81385
534.22        22.75821
534.66        22.72509
535.09        22.69657
535.53        22.62508
535.97         22.5187
536.41        22.44673
536.85        22.41533
537.28        22.38486
537.72        22.36539
538.16         22.3899
538.60        22.45753
539.04        22.55791
539.47        22.65802
539.91        22.72168
540.35        22.73805
540.79        22.72155
541.22        22.70207
541.66        22.73621
542.10        22.83239
542.54        22.97091
542.97        23.12348
543.41        23.25524
543.85         23.3532
544.29        23.43562
544.72        23.50591
545.16        23.58458
545.60        23.67562
546.04        23.77524
546.47        23.90148
546.91        24.07931
547.35        24.30453
547.79        24.56677
548.22        24.82629
548.66        25.01742
549.10        25.15766
549.53        25.25267
549.97        25.33487
550.41        25.40149
550.84        25.49255
551.28        25.66289
551.72        25.87036
552.15        26.06754
552.59        26.27419
553.03         26.1238
553.46        26.41624
553.90        26.48748
554.34         26.5738
554.77        26.66616
555.21        26.78251
555.65        26.92946
556.08        27.09335
556.52        27.25774
556.96        27.39246
557.39        27.52567
557.83         27.6318
558.27        27.56446
558.70        27.38921
559.14        27.37655
559.57        27.53004
560.01        27.69035
560.45         27.8205
560.88        27.95098
561.32        28.08184
561.75        28.17679
562.19        28.24761
562.63         28.3067
563.06        28.35539
563.50        28.39516
563.93        28.41498
564.37        28.47253
564.80        28.58315
565.24        28.66547
565.68        28.65551
566.11        29.07539
566.55         28.8781
566.98        28.93758
567.42        29.00066
567.85        29.12411
568.29        29.32154
568.72        29.59554
569.16        29.94706
569.60        30.16619
570.03        30.32765
570.47        30.53718
570.90        30.85135
571.34        30.68568
571.77        30.86782
572.21        31.40933
572.64        31.11093
573.08        31.60349
573.51         31.4677
573.95        31.70078
574.38        31.95686
574.82        32.20804
575.25        31.91811
575.69          31.823
576.12        31.84785
576.56        31.81551
576.99        32.08178
577.42        32.21251
577.86        32.17335
578.29        32.42231
578.73        32.49712
579.16        32.36649
579.60        31.91132
580.03        31.82177
580.47        31.72607
580.90        31.96249
581.33        31.85647
581.77         31.9719
582.20        31.64686
582.64        31.64787
583.07        31.41422
583.51        31.21101
583.94        31.03768
584.37        30.95881
584.81          30.985
585.24        30.95339
585.68        30.86897
586.11        30.51999
586.54        30.63709
586.98        30.05568
587.41        30.12327
587.85        30.15623
588.28        29.99778
588.71        30.02459
589.15        29.86644
589.58        29.92389
590.01        29.72605
590.45        29.85464
590.88        30.10854
591.31        30.02765
591.75         29.7304
592.18         29.5944
592.61        29.66901
593.05        30.18623
593.48        30.99646
593.91        30.33274
594.35        30.48616
594.78        30.22358
595.21        30.26998
595.65        30.53541
596.08        31.04305
596.51        31.07388
596.94        31.03671
597.38        31.09974
597.81        31.40058
598.24        31.71788
598.68        31.84881
599.11         31.9868
599.54        32.93883
599.97        32.65659
600.41        33.20636
600.84        33.19917
601.27        33.65657
601.70        34.02002
602.14        34.36433
602.57        34.64525
603.00        34.96844
603.43        34.98884
603.87        36.00253
604.30        36.49491
604.73        36.76981
605.16        36.79811
605.60        37.03108
606.03        37.34135
606.46        37.79148
606.89          38.245
607.32        38.73548
607.76        39.16919
608.19        39.54784
608.62        39.85468
609.05        40.16125
609.48        40.43796
609.92        41.23754
610.35        41.34268
610.78        41.38234
611.21        41.75079
611.64        42.07338
612.07        42.54332
612.50        42.74881
612.94        43.03312
613.37        43.30534
613.80        43.42263
614.23        43.34451
614.66        43.56494
615.09        44.05055
615.52        44.55528
615.96         44.9656
616.39        45.24324
616.82        45.39993
617.25        45.45277
617.68        45.49792
618.11        45.78045
618.54        46.23552
618.97        46.48834
619.40        46.55126
619.84        46.57563
620.27        46.87223
620.70        47.03099
621.13        47.12156
621.56        47.02807
621.99        46.79587
622.42        46.81003
622.85        47.11834
623.28        46.82789
623.71        47.12845
624.14        47.19458
624.57        47.49489
625.00        47.44784
625.43        47.45646
625.86        47.25494
626.29        47.00649
626.72        46.83696
627.15        46.72436
627.58        46.73216
628.01        46.72852
628.44        46.48989
628.87        46.08414
629.30        45.69817
629.73        45.31029
630.16        45.65984
630.59        44.99871
631.02        44.90719
631.45        44.83194
631.88         44.6303
632.31        44.25874
632.74         43.9274
633.17        43.42227
633.60        42.96619
634.03        42.50697
634.46        42.04181
634.89        41.57627
635.32         41.1339
635.75        40.72527
636.18        40.31067
636.61        39.90086
637.04        39.52473
637.47        39.17895
637.89        38.85071
638.32        38.51242
638.75         38.1603
639.18          37.797
639.61        37.42968
640.04        37.08205
640.47        36.78711
640.90        36.55027
641.33        36.36402
641.76         36.2068
642.18        36.04744
642.61        35.86893
643.04        35.68739
643.47        35.52742
643.90        35.42765
644.33        35.39622
644.76        35.42176
645.18        35.48138
645.61         35.5273
646.04        35.55553
646.47        35.58857
646.90        35.65303
647.33        35.78024
647.75        35.96494
648.18        36.23363
648.61        36.59403
649.04        36.90062
649.47        37.10785
649.89        37.85722
650.32        38.11594
650.75        38.46772
651.18        38.67867
651.61         39.1346
652.03        39.78753
652.46        40.31993
652.89        40.76207
653.32        41.06992
653.74         41.3181
654.17        42.17836
654.60        42.75882
655.03        42.95144
655.46         43.0716
655.88        43.71838
656.31        46.37196
656.74        49.36918
657.16        48.55514
657.59        48.20176
658.02        46.94955
658.45        47.25967
658.87         47.0171
659.30        47.53003
659.73        47.88202
660.15        48.69683
660.58        48.57481
661.01         48.8755
661.44        49.25149
661.86        49.26892
662.29         49.0037
662.72        49.53355
663.14        49.88834
663.57        50.21619
664.00        50.27963
664.42        50.57398
664.85        51.10205
665.27        51.65607
665.70        52.14132
666.13        52.22078
666.55        52.44099
666.98        52.30541
667.41        52.05755
667.83        52.14685
668.26        52.08089
668.69        52.26556
669.11        52.51777
669.54        52.81029
669.96        53.12096
670.39        53.45429
670.82        53.78932
671.24        54.06234
671.67        54.25452
672.09        54.36396
672.52        54.43056
672.94        54.49052
673.37        54.56761
673.80        54.65042
674.22        54.75339
674.65        54.86486
675.07        54.99804
675.50         55.1515
675.92        55.31236
676.35         55.4458
676.77        55.54606
677.20        55.61602
677.62        55.69565
678.05        55.82144
678.47        55.99329
678.90        56.25399
679.32        56.55943
679.75        56.56565
680.17        56.71048
680.60        56.66044
681.02        56.61605
681.45        56.67446
681.87        56.87543
682.30        57.14537
682.72        57.43576
683.15         57.7089
683.57        57.91464
684.00         57.9187
684.42        57.80569
684.85         57.8515
685.27        58.07882
685.70        58.36286
686.12        58.61989
686.54        58.77875
686.97        58.81261
687.39        58.75906
687.82         58.6696
688.24        58.64489
688.66         58.7127
689.09        58.83338
689.51        58.99617
689.94        59.17693
690.36        59.35402
690.78        59.47677
691.21        59.56469
691.63        59.68459
692.06        59.84373
692.48        60.01181
692.90        60.14797
693.33        60.20521
693.75        60.17374
694.17        60.05521
694.60        59.94023
695.02        59.95169
695.44        60.10208
695.87        60.43201
696.29        60.82125
696.71        60.79044
697.14         60.4356
697.56        60.40125
697.98        60.70275
698.41        60.90551
698.83        60.90434
699.25        61.11125
699.68         61.4136
700.10         61.5679
700.52         61.5253
700.94         61.3676
701.37         61.2111
701.79        61.24753
702.21        61.51019
702.64        61.92064
703.06        62.35812
703.48        62.61494
703.90        62.63505
704.33        62.47535
704.75        62.23653
705.17        62.09213
705.59        62.09104
706.01        62.14783
706.44        62.23372
706.86        62.37206
707.28        62.53759
707.70        62.67413
708.12        62.79902
708.55         63.0301
708.97        63.31723
709.39        63.41034
709.81        63.31961
710.23        63.29768
710.66        63.36216
711.08        63.38944
711.50        63.35241
711.92        63.29299
712.34        63.22091
712.76        63.13983
713.19        63.08355
713.61        63.14164
714.03         63.3108
714.45        63.56335
714.87        63.85888
715.29        64.13779
715.71        64.37367
716.13        64.56648
716.56        64.68643
716.98        64.78844
717.40        64.84872
717.82        64.83131
718.24        64.73936
718.66        64.66655
719.08        64.60419
719.50        64.37193
719.92        64.05206
720.34        63.99992
720.76        64.25871
721.19        64.34631
721.61         64.7858
722.03        65.08067
722.45        65.34604
722.87        65.56343
723.29        65.69765
723.71        65.68101
724.13        65.50256
724.55        65.23767
724.97        64.97796
725.39        64.75999
725.81        64.60638
726.23        64.96148
726.65        64.93752
727.07        65.29776
727.49        65.52144
727.91        65.82336
728.33        66.10808
728.75        66.34559
729.17        66.52052
729.59        66.65182
730.01        66.73129
730.43        66.66209
730.85        66.49715
731.27        66.45085
731.69         66.5046
732.10        66.44794
732.52        66.27613
732.94        66.13255
733.36        66.07516
733.78        65.99528
734.20        65.88559
734.62        66.04379
735.04        66.50663
735.46        66.00623
735.88        66.52502
736.30        66.67725
736.72        67.02203
737.13         67.2671
737.55        67.33698
737.97        67.52697
738.39        67.74017
738.81        67.44984
739.23        66.83192
739.65        66.82717
740.06        67.34799
740.48        67.63206
740.90        67.49097
741.32        67.53309
741.74        67.73689
742.16        67.87319
742.57        67.93027
742.99        67.95307
743.41        67.94214
743.83        67.87696
744.25        67.76659
744.67        67.61222
745.08        67.47467
745.50        67.42788
745.92        67.49262
746.34        67.64082
746.75        67.81648
747.17        67.88721
747.59        67.82674
748.01        67.75059
748.42        67.69081
748.84        67.51871
749.26        67.34538
749.68        67.54521
750.09        68.01208
750.51         68.2589
750.93        68.20898
751.35        68.04147
751.76        67.82629
752.18        67.66892
752.60        67.59689
753.01        67.56271
753.43        67.53574
753.85        67.51405
754.27         67.5009
754.68        67.54066
755.10        67.63837
755.52        67.69612
755.93        67.84737
756.35        67.93304
756.77        68.08181
757.18        68.25072
757.60        68.42139
758.02        68.97606
758.43        69.72021
758.85        68.96952
759.26        68.61531
759.68        68.08884
760.10        68.28857
760.51        68.68627
760.93        69.21407
761.34        69.11993
761.76        69.23385
762.18        69.12784
762.59        69.17137
763.01         69.3562
763.42        69.67764
763.84        69.82464
764.26        69.78474
764.67        69.63805
765.09        69.49696
765.50        69.52961
765.92          69.702
766.33        69.56708
766.75        69.09104
767.16        68.87838
767.58         68.9409
768.00        68.76614
768.41        68.48944
768.83        68.87481
769.24        69.67538
769.66         69.8788
770.07         69.4813
770.49        68.95624
770.90        68.60093
771.32        69.08727
771.73         70.1794
772.15        70.62479
772.56        70.34159
772.97        69.92474
773.39        69.55119
773.80        69.74274
774.22        69.77943
774.63        69.97806
775.05         70.0054
775.46        70.02745
775.88        69.99223
776.29        69.81061
776.70        69.58562
777.12         69.5761
777.53         69.8187
777.95        70.16142
778.36        70.53497
778.77        70.74197
779.19        70.74902
779.60        70.79482
780.02        70.79574
780.43        70.42793
780.84        69.92277
781.26        69.54031
781.67        69.47202
782.09        70.49777
782.50        72.15694
782.91         71.8877
783.33        70.87487
783.74        70.38731
784.15        70.82944
784.57        70.93707
784.98        70.71001
785.39        70.56719
785.81        70.58478
786.22        71.05211
786.63        71.77743
787.04        71.96276
787.46        71.62725
787.87        71.42159
788.28        71.46524
788.70        71.44807
789.11        71.37289
789.52        71.61012
789.93        72.00483
790.35        71.85265
790.76        71.26243
791.17        71.08064
791.58        71.37403
792.00        71.44828
792.41        71.29041
792.82        71.60577
793.23        72.18583
793.65        71.79551
794.06         70.7831
794.47        70.87323
794.88        71.83496
795.29        72.66489
795.71        71.87728
796.12        71.77027
796.53        71.98184
796.94         71.7515
797.35        71.23369
797.76        71.43428
798.18         72.2346
798.59        72.62381
799.00        72.49413
799.41        72.38966
799.82        72.37177
800.23        72.30684
800.64        72.21576
801.06        72.09111
801.47         71.9885
801.88        71.91669
802.29        71.87507
802.70        71.85517
803.11        71.82785
803.52        71.74583
803.93        71.63046
804.34        71.51363
804.75        71.43222
805.17          71.573
805.58        72.01583
805.99        72.24629
806.40         72.2989
806.81         73.3007
807.22        74.72292
807.63        74.13247
808.04        71.95606
808.45        71.03178
808.86        71.61248
809.27        72.20736
809.68        72.50188
810.09         72.6534
810.50        72.54914
810.91        72.15125
811.32        71.73895
811.73        71.73033
812.14        72.20745
812.55        73.12474
812.96        74.13624
813.37        74.40755
813.78        73.85265
814.19         73.1207
814.60        72.48354
815.01         71.9705
815.42        71.67368
815.83        71.68002
816.24        71.92606
816.65        72.17164
817.05        72.34229
817.46        72.50043
817.87        72.61676
818.28        72.58028
818.69        72.38818
819.10        72.03454
819.51        71.68357
819.92        71.65413
820.33        72.01176
820.74        72.65389
821.14        73.34815
821.55        73.71133
821.96        73.64843
822.37        73.27245
822.78        72.75575
823.19        72.39571
823.60        72.30115
824.00        72.41841
824.41         72.6211
824.82        72.80755
825.23        72.92059
825.64        72.99709
826.04         73.0768
826.45        73.18277
826.86        73.33519
827.27        73.48359
827.68         73.5581
828.08        73.57481
828.49        73.42739
828.90         72.9543
829.31        72.35851
829.72        72.15496
830.12        72.45052
830.53        72.99937
830.94         73.5381
831.35        73.61852
831.75        73.14353
832.16        72.23424
832.57        71.26689
832.97        70.81302
833.38        71.00653
833.79        71.64349
834.20        72.44399
834.60         72.9683
835.01        73.09048
835.42         72.9871
835.82         72.7781
836.23        72.58373
836.64        72.50624
837.04        72.45938
837.45         72.5296
837.86        72.93828
838.26        73.71138
838.67        74.74075
839.08        75.70354
839.48        75.96764
839.89        75.38239
840.29        74.17883
840.70        72.88571
841.11        72.08401
841.51        71.93728
841.92        72.25835
842.33        72.88274
842.73        73.51293
843.14        73.90694
843.54        74.20006
843.95        74.40723
844.35        74.61137
844.76        74.81151
845.17        74.95349
845.57        74.99539
845.98         74.8636
846.38        74.58223
846.79        74.18533
847.19        73.78659
847.60        73.53257
848.00        73.47467
848.41        73.55364
848.81        73.71407
849.22         73.7659
849.62        73.70551
850.03        73.57762
850.43         73.4561
850.84        73.38795
851.24        73.44511
851.65        73.53291
852.05        73.75644
852.46        74.17104
852.86        74.74214
853.27         75.4125
853.67        75.93777
854.07        76.11761
854.48        75.89677
854.88        75.36469
855.29        74.62971
855.69        74.04913
856.10        73.68289
856.50        73.54832
856.90        73.52709
857.31        73.42506
857.71        73.24482
858.12        72.98513
858.52        72.78977
858.92         72.7652
859.33        72.91374
859.73        73.22629
860.13        73.52415
860.54        73.54993
860.94        73.28945
861.34        72.79858
861.75        72.26643
862.15        72.05107
862.55        72.21789
862.96        72.63322
863.36        73.15164
863.76        73.42915
864.17        73.35217
864.57        73.05802
864.97         72.6291
865.38        72.20175
865.78         71.8639
866.18        71.56736
866.58        71.35717
866.99        71.31544
867.39        71.47768
867.79         71.8238
868.19        72.26001
868.60        72.60535
869.00        72.83848
869.40        72.95538
869.80        73.01807
870.21        73.15381
870.61        73.43988
871.01        73.76817
871.41        73.97186
871.81        73.82059
872.22        73.28798
872.62        72.45982
873.02        71.58755
873.42        71.09302
873.82        71.10098
874.22        71.49614
874.63        72.02665
875.03        72.30264
875.43        72.19559
875.83        71.81378
876.23        71.35257
876.63        71.10892
877.03        71.16854
877.44        71.43433
877.84         71.7446
878.24        71.83819
878.64        71.61795
879.04        71.04512
879.44        70.46284
879.84         70.4769
880.24        71.13692
880.64        72.21302
881.04        73.19391
881.44        73.25765
881.84        72.24988
882.24        70.48878
882.65        68.59391
883.05        67.51721
883.45        67.52027
883.85        68.33311
884.25        69.57643
884.65        70.58412
885.05         71.1043
885.45        71.31707
885.85        71.36002
886.25        71.44971
886.65        71.64961
887.05        71.83383
887.45        71.93821
887.85         71.9042
888.25        71.71264
888.65        71.42053
889.04        71.06429
889.44        70.70058
889.84        70.34972
890.24        70.02381
890.64        69.73805
891.04        69.51617
891.44        69.37258
891.84        69.30872
892.24        69.34012
892.64        69.47793
893.04        69.72199
893.44        70.08018
893.83        70.50947
894.23        70.88251
894.63        71.18443
895.03        71.40039
895.43        71.62783
895.83        72.04987
896.23        72.65623
896.63        73.33376
897.02        73.85025
897.42        73.86861
897.82         73.3407
898.22        72.46044
898.62        71.41685
899.01        70.46745
899.41        69.75335
899.81        69.20787
900.21        68.95217
900.61         69.1721
901.00        69.84206
901.40        70.86897
901.80        71.93985
902.20        72.54065
902.59        72.55209
902.99        72.10059
903.39        71.40305
903.79        70.84759
904.18        70.56223
904.58        70.43463
904.98        70.47258
905.38         70.6907
905.77         71.0606
906.17        71.63305
906.57        72.18819
906.96        72.33745
907.36         72.0015
907.76        71.29101
908.15        70.60293
908.55        70.56876
908.95        71.30869
909.34        72.60471
909.74        73.96512
910.14        74.66653
910.53        74.47186
910.93        73.65075
911.33        72.45831
911.72         71.2731
912.12        70.34804
912.52         69.6139
912.91        69.13406
913.31        69.02616
913.70        69.28117
914.10        69.83428
914.49        70.65198
914.89        71.54987
915.29         72.4291
915.68        73.28322
916.08        73.84303
916.47        73.78405
916.87        73.10834
917.26        71.93205
917.66        70.72746
918.05        70.04683
918.45        70.02993
918.84        70.58826
919.24        71.40459
919.64        72.03254
920.03         72.3115
920.42        72.29926
920.82        72.23004
921.21        72.42547
921.61          72.926
922.00         73.6499
922.40        74.24716
922.79        74.29469
923.19        73.68379
923.58        72.63234
923.98        71.55307
924.37        70.95264
924.77        70.96873
925.16        71.41995
925.55        72.08014
925.95        72.52947
926.34        72.62963
926.74        72.46329
927.13          72.124
927.52        71.69269
927.92        71.28046
928.31        70.86983
928.70        70.49483
929.10        70.18565
929.49        69.94556
929.89        69.71285
930.28        69.70839
930.67        70.17088
931.07        71.07933
931.46         72.4266
931.85        73.65539
932.24        73.91844
932.64        73.11318
933.03        71.46549
933.42        69.77978
933.82        69.24805
934.21        70.10725
934.60        72.05782
934.99         74.3138
935.39        75.44395
935.78        75.07324
936.17        73.54441
936.56        71.63072
936.96        70.54671
937.35        70.61603
937.74        71.45774
938.13        72.48188
938.53        72.78558
938.92        72.15354
939.31        70.95568
939.70        69.66696
940.09        68.93027
940.49        68.87447
940.88        69.30822
941.27        69.98999
941.66        70.49301
942.05        70.67117
942.44         70.7002
942.84        70.69447
943.23        70.80915
943.62        71.09467
944.01        71.40797
944.40        71.79079
944.79        72.35538
945.18        73.05704
945.57          73.854
945.97        74.37698
946.36        74.11703
946.75         72.9776
947.14        71.23073
947.53         69.3964
947.92        68.19778
948.31        67.81703
948.70        68.08075
949.09        68.74861
949.48        69.38066
949.87        69.79859
950.26        70.09476
950.65        70.35096
951.04        70.71402
951.43        71.19127
951.82        71.65763
952.21        71.96317
952.60        71.91317
952.99        71.50757
953.38         70.8942
953.77        70.23841
954.16        69.77804
954.55        69.58828
954.94          69.571
955.33        69.77692
955.72        70.27611
956.11        71.01294
956.50        71.96365
956.89        72.74734
957.28        72.72823
957.66         71.8076
958.05        70.26059
958.44        68.64702
958.83        67.78117
959.22        67.82882
959.61        68.55457
960.00        69.61378
960.39         70.3413
960.78        70.47453
961.16        70.19902
961.55         69.7254
961.94        69.27677
962.33        68.95949
962.72        68.71676
963.11        68.54792
963.49        68.52709
963.88        68.59375
964.27         68.7383
964.66        69.06277
965.04        69.74418
965.43        70.72347
965.82        71.99046
966.21        73.08056
966.60        73.12438
966.98        71.92937
967.37        69.89693
967.76        67.82128
968.15        66.69805
968.53        66.71165
968.92        67.62549
969.31        68.94363
969.69        69.65652
970.08        69.34937
970.47        68.37567
970.86        67.35291
971.24        67.15429
971.63        67.95728
972.02         69.4773
972.40        71.21721
972.79        71.93645
973.17        71.33351
973.56        69.87279
973.95        68.19392
974.33        67.09381
974.72        66.76614
975.11        66.92876
975.49        67.44404
975.88        67.97501
976.26        68.39983
976.65        68.77781
977.04        69.01266
977.42        68.90062
977.81        68.40343
978.19        67.55027
978.58        66.68122
978.96        66.33972
979.35        66.62436
979.74        67.41499
980.12        68.45711
980.51        69.02898
980.89        69.04841
981.28        68.71435
981.66         68.2992
982.05        68.16778
982.43        68.44939
982.82        68.99612
983.20        69.89761
983.59        71.19173
983.97        72.86641
984.35        74.80728
984.74        76.53011
985.12        77.48409
985.51        77.43563
985.89        76.55392
986.28        75.27084
986.66        74.17754
987.04        73.51608
987.43        73.09652
987.81        72.83009
988.20        72.40938
988.58        71.79781
988.96         71.0791
989.35        70.35568
989.73        69.68693
990.12        69.08231
990.50         68.5788
990.88        68.04321
991.27        67.31316
991.65         66.4327
992.03        65.47142
992.42        64.84777
992.80         65.1086
993.18        66.34673
993.56        68.43788
993.95        70.70374
994.33        72.01266
994.71        71.86565
995.10        70.67944
995.48        69.19373
995.86        68.63923
996.24        69.29837
996.63         70.6492
997.01        72.41206
997.39        73.60037
997.77        73.75335
998.15        73.32494
998.54         72.2736
998.92         70.3613
999.30        67.87005
999.68         64.9607
1000.06        62.59332
1000.45        62.12236
1000.83        63.86344
1001.21        67.57946
1001.59        72.29993
1001.97        75.51137
1002.35        76.13633
1002.73        74.86591
1003.12        72.87811
1003.50        71.69772
1003.88        71.82767
1004.26        72.59274
1004.64        73.91966
1005.02        75.61102
1005.40        77.32922
1005.78         79.3463
1006.16        80.60688
1006.54        79.38155
1006.92        75.73315
1007.30        70.39427
1007.69        65.41615
1008.07        63.60614
1008.45        65.70936
1008.83        71.07277
1009.21        78.20953
1009.59        83.22028
1009.97        84.03446
1010.35        81.67423
1010.73        77.27416
1011.11        72.58993
1011.49        68.53823
1011.86         64.8372
1012.24        62.02585
1012.62        60.77641
1013.00        61.10599
1013.38         62.9994
1013.76        66.09202
1014.14        69.04502
1014.52         70.9579
1014.90        71.82924
1015.28        71.75784
1015.66        71.17162
1016.04        70.28319
1016.41         68.9635
1016.79        67.34364
1017.17        65.87726
1017.55        64.80176
1017.93        64.16001
1018.31        63.98947
1018.69        64.20457
1019.06        64.80073
1019.44         65.9122
1019.82        67.27595
1020.20        68.20928
1020.58        68.33351
1020.95        67.51396
1021.33        66.64574
1021.71        66.78015
1022.09        68.12801
1022.46        70.86359
1022.84        73.66076
1023.22        73.49342
1023.60        69.57372
1023.97        62.96383
1024.35        57.22064
1024.73        56.36856
