SpectraSmart Spectrum 2.9.0.0
--------- Device Information -----------
Spectrum Name :  反射率_0
Saving Time :  2024/04/27 00:16:28
Spectro-Module Model Name : SE2030-DUVN
Spectro-Module Serial Number : OS361AC55029948
Wavelength Start : 200
Wavelength End : 1025
Wavelength Unit : Wavelength(nm)
Spectrum Unit : Reflectance(%)
-----------Spectrum Setting ------------
Integration Time : 20ms
Average : 10
Boxcar : 0
Background removal :  enabled
linearity correction :  enabled
SC :  disabled
Intensity correction :  disabled
DWT denoise :  enabled
savitzky-golay :  disabled
FFT :  disabled
Running average :  disabled
Kalman :  disabled
High pass :  disabled
---------------BEGIN--------------------
Wavelength(nm)             Reflectance(%)
200.29               0
200.75        25.15336
201.21        26.82622
201.67        28.34489
202.13        28.66295
202.58        27.70858
203.04        25.91687
203.50        24.43921
203.96        26.38398
204.42         33.3728
204.88        44.51168
205.34        56.23332
205.80         62.3304
206.26         61.1807
206.72        55.00861
207.18         47.6237
207.64         41.9151
208.10        37.80946
208.55        34.37511
209.01        30.73615
209.47        27.68788
209.93        26.76184
210.39        27.86278
210.85        30.03683
211.31        33.30992
211.77        38.89106
212.23        50.32736
212.69        77.76654
213.14        123.8467
213.60        121.3173
214.06         88.2992
214.52        65.57813
214.98        54.40427
215.44        48.26097
215.90        43.33652
216.36        39.75733
216.81        38.33463
217.27        39.73878
217.73        45.46447
218.19        54.47729
218.65        58.15872
219.11         53.6697
219.57        46.37493
220.02         42.7219
220.48        47.20155
220.94        60.35339
221.40        84.16016
221.86        119.0455
222.32        145.1903
222.77        142.6069
223.23         123.497
223.69        102.1834
224.15        87.28693
224.61        78.44228
225.06        72.22895
225.52        68.94621
225.98        68.73316
226.44        71.00376
226.90        75.66644
227.36        80.81257
227.81        82.90183
228.27        81.52354
228.73        77.79286
229.19        74.29313
229.65        74.11782
230.10         77.3701
230.56        82.99541
231.02         88.6576
231.48        90.66068
231.93        88.41241
232.39        83.91155
232.85        79.40614
233.31         77.8027
233.77        79.37412
234.22        82.95229
234.68        87.11766
235.14        89.74799
235.60        90.11005
236.05         88.9062
236.51        86.34688
236.97        83.22521
237.43        80.13736
237.88         76.9884
238.34         74.1597
238.80         72.4601
239.26        72.13027
239.71        73.83162
240.17        77.06716
240.63        80.53105
241.08        83.38793
241.54        84.85926
242.00        86.29823
242.46        91.14602
242.91        102.1613
243.37        120.7249
243.83        146.4987
244.28        165.3494
244.74        158.4251
245.20        128.3151
245.66        94.73692
246.11        72.89813
246.57        62.67102
247.03        59.27884
247.48        59.47149
247.94         58.4884
248.40        55.77269
248.85        53.15234
249.31        51.41666
249.77          50.452
250.22        49.86752
250.68        49.18975
251.14         48.2444
251.59        47.25578
252.05        46.95489
252.51        47.84112
252.96         48.9521
253.42        49.55014
253.88         49.7378
254.33        49.49697
254.79         50.6468
255.25        54.64328
255.70        61.17507
256.16        69.59765
256.62        76.84978
257.07        78.16336
257.53        74.79018
257.99         69.6573
258.44        65.32377
258.90        64.23738
259.35        65.35255
259.81        67.84842
260.27        70.19543
260.72        70.57092
261.18        69.25527
261.63        66.88203
262.09        64.84624
262.55        64.03291
263.00        64.28636
263.46        65.28539
263.91        66.12103
264.37        66.02935
264.83          64.932
265.28        63.19744
265.74        61.64577
266.19        60.93247
266.65            61.2
267.11         62.0371
267.56        62.94927
268.02        63.16983
268.47        62.50262
268.93        61.28527
269.38        59.78643
269.84        58.48373
270.30        57.51358
270.75        56.69994
271.21        56.09824
271.66        55.72579
272.12        55.53896
272.57        55.50066
273.03        55.38083
273.48        54.76717
273.94        53.67405
274.39        52.21168
274.85        50.73301
275.31        49.55521
275.76        48.72311
276.22        48.17881
276.67        47.77283
277.13        47.42406
277.58         47.0116
278.04        46.60455
278.49        46.11004
278.95        45.54233
279.40        44.84174
279.86        44.09957
280.31        43.27701
280.77        42.47756
281.22         41.6743
281.68        40.93946
282.13        40.25948
282.59        39.73391
283.04        39.31031
283.50        38.98133
283.95        38.67077
284.41        38.29404
284.86        37.82446
285.32        37.32483
285.77        36.80156
286.22         36.3374
286.68         35.9478
287.13        35.57038
287.59        35.21523
288.04        34.84321
288.50        34.47504
288.95        34.08801
289.41        33.70071
289.86        33.25441
290.32         32.7899
290.77        32.31062
291.22        31.86483
291.68        31.50456
292.13        31.23063
292.59        31.04314
293.04        30.94367
293.50        30.96125
293.95        31.07473
294.40        31.26898
294.86        31.48925
295.31        31.63968
295.77        31.70789
296.22        31.71353
296.68        31.70465
297.13        31.74032
297.58        31.85094
298.04        32.02349
298.49        32.25149
298.95        32.54287
299.40        32.87598
299.85        33.23949
300.31        33.60624
300.76        33.92247
301.21        34.17162
301.67        34.37355
302.12        34.50192
302.58        34.58142
303.03        34.60244
303.48        34.59243
303.94        34.59318
304.39         34.6302
304.84        34.72313
305.30        34.87201
305.75        35.03896
306.20        35.21736
306.66        35.40194
307.11        35.57336
307.57        35.72173
308.02        35.78756
308.47        35.77297
308.93        35.69574
309.38        35.58081
309.83        35.51685
310.29          35.521
310.74        35.56898
311.19        35.60553
311.65        35.53357
312.10        35.33406
312.55        35.04438
313.00        34.75054
313.46        34.57724
313.91        34.53542
314.36        34.59214
314.82        34.66267
315.27        34.62044
315.72        34.43008
316.18        34.14182
316.63        33.81779
317.08        33.57022
317.53        33.42486
317.99        33.33794
318.44         33.2691
318.89        33.14287
319.35        32.93904
319.80        32.68869
320.25        32.41653
320.70        32.15808
321.16        31.92745
321.61        31.72502
322.06        31.54892
322.51        31.40111
322.97        31.27392
323.42         31.1672
323.87        31.08318
324.32        31.03053
324.78        30.99147
325.23        30.97473
325.68        30.91748
326.13        30.72966
326.59        30.40096
327.04        29.97569
327.49        29.54293
327.94        29.24571
328.39        29.11309
328.85        29.09222
329.30        29.13849
329.75        29.10787
330.20        28.95812
330.66         28.7316
331.11        28.47947
331.56        28.26064
332.01        28.09731
332.46        27.95545
332.92        27.83285
333.37        27.77699
333.82         27.7726
334.27        27.82462
334.72         27.8702
335.17        27.79774
335.63        27.58847
336.08        27.29086
336.53          27.003
336.98        26.90119
337.43        27.02596
337.88        27.31467
338.34        27.66776
338.79        27.94161
339.24        28.06368
339.69        28.07333
340.14        27.97948
340.59        27.80471
341.05        27.58551
341.50        27.31828
341.95        27.06297
342.40        26.91261
342.85        26.88884
343.30        26.97385
343.75        27.12142
344.20        27.24678
344.66        27.32188
345.11        27.35966
345.56        27.37039
346.01        27.37697
346.46        27.38777
346.91        27.39147
347.36        27.38367
347.81        27.36321
348.26        27.33324
348.72        27.30369
349.17         27.2799
349.62        27.28067
350.07         27.3069
350.52        27.34855
350.97        27.38914
351.42        27.40341
351.87        27.38133
352.32        27.32858
352.77        27.24903
353.22        27.14587
353.67        27.02568
354.13        26.89561
354.58        26.76231
355.03        26.64236
355.48        26.54204
355.93        26.45271
356.38        26.38928
356.83        26.37141
357.28        26.39154
357.73        26.43962
358.18        26.45608
358.63        26.34703
359.08        26.10058
359.53        25.75087
359.98        25.38101
360.43        25.11477
360.88         24.9768
361.33        24.92947
361.78        24.90951
362.23        24.81395
362.68        24.61883
363.13        24.36419
363.58        24.09228
364.03        23.86472
364.48        23.69932
364.93        23.57125
365.38        23.46957
365.83        23.38101
366.28        23.29555
366.73        23.21746
367.18        23.13259
367.63        23.01601
368.08         22.8641
368.53        22.68365
368.98        22.49069
369.43        22.31274
369.88        22.15897
370.33        22.02289
370.78        21.90136
371.23        21.78925
371.68        21.68229
372.13        21.58057
372.58        21.47971
373.03        21.37066
373.48        21.25038
373.93        21.12147
374.38        20.98146
374.83        20.82911
375.28        20.66901
375.72        20.49927
376.17        20.34955
376.62         20.2373
377.07        20.16619
377.52         20.1314
377.97        20.11243
378.42        20.07767
378.87         20.0166
379.32        19.93044
379.77        19.84179
380.22        19.78451
380.67        19.76122
381.11        19.76844
381.56        19.75189
382.01        19.64448
382.46        19.44314
382.91        19.18332
383.36        18.93862
383.81        18.80673
384.26        18.80097
384.71        18.88958
385.15         19.0104
385.60        19.06161
386.05        19.01211
386.50        18.89144
386.95        18.74379
387.40        18.63989
387.85        18.59557
388.29        18.57125
388.74        18.56027
389.19        18.51099
389.64        18.41546
390.09        18.29385
390.54        18.16236
390.98        18.04212
391.43         17.9554
391.88        17.88995
392.33        17.84849
392.78         17.8356
393.23        17.84405
393.67        17.85946
394.12        17.87742
394.57        17.85565
395.02         17.7857
395.47        17.67101
395.91        17.53641
396.36        17.41689
396.81          17.339
397.26        17.30163
397.71        17.28039
398.15        17.24788
398.60        17.21815
399.05         17.1255
399.50        17.02039
399.95        17.10036
400.39        17.31665
400.84        17.34769
401.29        17.17537
401.74        17.04521
402.18        16.96786
402.63        16.78204
403.08         16.5595
403.53        16.48722
403.97        16.58361
404.42        16.79224
404.87          17.014
405.32        17.08685
405.76        16.97248
406.21         16.7352
406.66        16.46368
407.11        16.29594
407.55        16.27398
408.00        16.34813
408.45        16.46996
408.90        16.54482
409.34        16.53771
409.79        16.48378
410.24        16.41359
410.68        16.36208
411.13        16.34489
411.58        16.34509
412.03        16.34705
412.47        16.33216
412.92        16.29039
413.37        16.23552
413.81        16.18488
414.26        16.17479
414.71        16.20458
415.15        16.26967
415.60        16.33731
416.05        16.36347
416.49        16.33994
416.94        16.28244
417.39        16.22422
417.83        16.21587
418.28        16.26725
418.73         16.3545
419.17        16.46143
419.62        16.56258
420.07        16.64283
420.51        16.70472
420.96        16.73086
421.41        16.69152
421.85        16.58456
422.30        16.41958
422.74        16.23557
423.19         16.1626
423.64        16.18923
424.08        16.20192
424.53        16.17804
424.98        16.20257
425.42        16.27676
425.87        16.29938
426.31        16.28241
426.76        16.36541
427.21        16.50302
427.65        16.45584
428.10        16.27002
428.54        16.19214
428.99        16.24538
429.44        16.35802
429.88        16.47232
430.33        16.43262
430.77        16.28479
431.22        16.34161
431.66        16.58664
432.11        16.70865
432.56        16.70028
433.00        16.78456
433.45        16.89548
433.89         16.8151
434.34        16.65289
434.78        16.28561
435.23        16.63679
435.67        16.66734
436.12        16.61157
436.57        16.50171
437.01        16.36949
437.46        16.28429
437.90         16.2528
438.35        16.21345
438.79        16.17039
439.24        16.18373
439.68        16.25374
440.13         16.3604
440.57        16.47746
441.02        16.57642
441.46        16.64028
441.91        16.63055
442.35        16.56773
442.80          16.648
443.24        16.80732
443.69        16.75443
444.13        16.52789
444.58        16.45164
445.02        16.53959
445.47        16.62282
445.91        16.67204
446.36        16.72146
446.80        16.75671
447.24        16.76805
447.69        16.76472
448.13        16.75494
448.58        16.74545
449.02        16.73144
449.47        16.71072
449.91        16.67147
450.36        16.61935
450.80        16.55907
451.25        16.50716
451.69         16.4762
452.13         16.4715
452.58        16.48559
453.02        16.50944
453.47        16.53096
453.91        16.54454
454.36        16.55527
454.80        16.55592
455.24        16.53441
455.69        16.49646
456.13        16.43537
456.58        16.38464
457.02        16.36866
457.46        16.39941
457.91        16.46809
458.35        16.53643
458.79        16.54733
459.24        16.50432
459.68        16.41523
460.13        16.33675
460.57        16.31327
461.01        16.36615
461.46        16.46181
461.90        16.57707
462.34        16.65948
462.79        16.68469
463.23        16.67457
463.68         16.6218
464.12        16.52705
464.56        16.40076
465.01        16.27069
465.45        16.14523
465.89        16.07917
466.34        16.07743
466.78        16.12195
467.22        16.19908
467.67        16.26598
468.11        16.31572
468.55        16.35047
468.99        16.37069
469.44        16.37737
469.88        16.37445
470.32        16.35759
470.77        16.33904
471.21          16.344
471.65        16.37468
472.10        16.42711
472.54        16.48021
472.98        16.50558
473.42         16.4971
473.87        16.47018
474.31        16.43049
474.75        16.40255
475.20        16.39773
475.64         16.4037
476.08        16.42126
476.52        16.44308
476.97        16.46594
477.41        16.49867
477.85        16.54501
478.29        16.58523
478.74        16.63037
479.18        16.72186
479.62        16.83303
480.06        16.89501
480.50        16.90399
480.95        16.87075
481.39         16.8105
481.83        16.90723
482.27        16.92165
482.72        17.04846
483.16        17.19108
483.60        17.27292
484.04        17.26184
484.48        17.28411
484.93        17.41375
485.37        17.25146
485.81        17.34515
486.25        17.70001
486.69         17.5332
487.14         17.5713
487.58        17.84925
488.02        17.94418
488.46         17.6216
488.90        17.76966
489.34        17.84728
489.79        18.11694
490.23        18.32197
490.67        18.37501
491.11         18.2955
491.55        18.23579
491.99        18.24698
492.43        18.27855
492.88         18.3488
493.32        18.51008
493.76        18.72012
494.20        18.88987
494.64        19.00681
495.08          19.059
495.52        19.07646
495.96        19.23222
496.41        19.49673
496.85         19.5547
497.29        19.43181
497.73        19.62979
498.17        19.85727
498.61        19.99316
499.05        19.94936
499.49        19.95916
499.93        19.99693
500.37        20.15484
500.82        20.38324
501.26        20.54723
501.70        20.62584
502.14        20.69981
502.58        20.79269
503.02        20.89876
503.46        21.02145
503.90        21.16215
504.34        21.28512
504.78        21.33197
505.22        21.29618
505.66         21.2007
506.10        21.10217
506.54        21.08971
506.98        21.18298
507.42        21.35288
507.86        21.55334
508.30        21.70703
508.74        21.78859
509.18        21.82108
509.62        21.82156
510.06        21.81907
510.50        21.82635
510.94        21.83135
511.38        21.84252
511.82        21.87555
512.26        21.93194
512.70        22.01283
513.14        22.09828
513.58         22.1519
514.02        22.16675
514.46        22.15203
514.90        22.13339
515.34        22.15393
515.78        22.22154
516.22        22.31929
516.66        22.42023
517.10        22.48191
517.54        22.49278
517.98        22.46751
518.42        22.42086
518.86        22.37667
519.30        22.34409
519.74        22.31498
520.18        22.29156
520.62        22.27686
521.06        22.27066
521.50        22.27725
521.93        22.28623
522.37        22.27036
522.81        22.22923
523.25        22.16768
523.69        22.10944
524.13         22.0924
524.57        22.12073
525.01        22.17928
525.45        22.23591
525.89        22.23928
526.32        22.17535
526.76        22.06732
527.20        21.94124
527.64        21.83939
528.08        21.77563
528.52        21.73864
528.96        21.71834
529.40        21.69913
529.83        21.67349
530.27        21.64612
530.71        21.61762
531.15        21.59004
531.59        21.56308
532.03        21.53403
532.46        21.49127
532.90        21.43341
533.34        21.35959
533.78        21.26459
534.22        21.16678
534.66        21.11896
535.09         21.1118
535.53        21.08778
535.97        21.04445
536.41        21.03328
536.85        21.05287
537.28        21.06838
537.72        21.08321
538.16         21.1188
538.60        21.17308
539.04        21.23797
539.47        21.29225
539.91        21.31805
540.35        21.31066
540.79        21.28296
541.22        21.25771
541.66        21.27776
542.10        21.35015
542.54        21.46113
542.97         21.5932
543.41        21.72711
543.85        21.85087
544.29         21.9728
544.72         22.0843
545.16        22.18786
545.60        22.28231
546.04         22.3697
546.47        22.46882
546.91        22.60713
547.35        22.78499
547.79        22.99232
548.22        23.20192
548.66        23.36697
549.10        23.50581
549.53        23.62132
549.97        23.72939
550.41        23.80247
550.84        23.87272
551.28        23.99812
551.72        24.15584
552.15        24.32907
552.59        24.54094
553.03        24.43781
553.46        24.75064
553.90        24.83225
554.34        24.89902
554.77        24.95477
555.21        25.02659
555.65        25.13661
556.08        25.27856
556.52        25.43037
556.96        25.56812
557.39        25.72556
557.83        25.87529
558.27        25.87534
558.70        25.76683
559.14        25.77182
559.57         25.8892
560.01         25.9827
560.45        26.03663
560.88        26.10748
561.32        26.20414
561.75        26.28753
562.19        26.36867
562.63        26.44904
563.06        26.52875
563.50        26.62877
563.93        26.71462
564.37        26.78318
564.80        26.84325
565.24        26.84369
565.68        26.74955
566.11        27.08116
566.55        26.87294
566.98        26.92812
567.42        27.00293
567.85        27.13635
568.29         27.3354
568.72        27.60756
569.16        27.94162
569.60        28.13599
570.03        28.27629
570.47        28.40505
570.90        28.59516
571.34        28.46901
571.77         28.7883
572.21        28.98031
572.64        29.20726
573.08        29.29779
573.51        29.30573
573.95        29.43022
574.38        29.69009
574.82        29.83544
575.25         29.6256
575.69        29.63045
576.12        29.75575
576.56        29.78467
576.99        29.79449
577.42        29.82481
577.86        29.74301
578.29        30.42978
578.73        30.10472
579.16        30.03306
579.60        29.69763
580.03        29.73518
580.47        29.78077
580.90        29.80027
581.33        29.89794
581.77        30.07442
582.20        29.57528
582.64        29.76957
583.07        29.39545
583.51        29.22395
583.94        29.06283
584.37        28.99627
584.81        29.00253
585.24        28.96808
585.68        28.93656
586.11        28.52435
586.54        28.47302
586.98        28.33358
587.41        28.34168
587.85        28.28381
588.28         28.0155
588.71        28.16158
589.15        28.05744
589.58        27.89453
590.01        27.90484
590.45        27.98045
590.88        28.17604
591.31        28.08795
591.75        27.84163
592.18        27.78191
592.61        27.86004
593.05        28.51465
593.48        28.60178
593.91          28.258
594.35        28.35108
594.78        28.26319
595.21        28.36513
595.65        28.57353
596.08        28.92099
596.51        29.11935
596.94        29.06114
597.38        29.16865
597.81        29.40835
598.24        29.79511
598.68        29.71148
599.11        30.18682
599.54         30.8413
599.97        30.85824
600.41        31.19521
600.84         31.2178
601.27        31.69029
601.70        31.98552
602.14        32.21388
602.57        32.58808
603.00        33.15351
603.43        33.14774
603.87        33.83022
604.30        34.21237
604.73        34.59866
605.16        34.52479
605.60        35.01753
606.03        35.30069
606.46        35.68038
606.89        35.86665
607.32        36.62231
607.76         36.9958
608.19        37.30537
608.62        37.55192
609.05        37.86502
609.48        38.13343
609.92        38.84439
610.35        39.07074
610.78        39.11589
611.21        39.28939
611.64         39.6382
612.07        40.10417
612.50        40.42162
612.94        40.72284
613.37        40.90793
613.80        41.12925
614.23        40.93653
614.66        41.20871
615.09        41.75554
615.52        42.15278
615.96         42.3453
616.39        42.58689
616.82        42.88018
617.25        43.04033
617.68         43.1076
618.11        43.29382
618.54        43.61011
618.97        43.89427
619.40        44.09576
619.84        44.41709
620.27         44.4299
620.70        44.51347
621.13        44.55563
621.56        44.46095
621.99        44.27079
622.42        44.29506
622.85        44.55194
623.28        44.49252
623.71        44.50282
624.14        44.86911
624.57        44.84921
625.00        45.00401
625.43        45.01226
625.86        44.92545
626.29        44.82493
626.72        44.21805
627.15        44.43093
627.58        44.31023
628.01        44.19423
628.44        44.01751
628.87        43.75905
629.30        43.49251
629.73        43.23471
630.16        43.00982
630.59        42.81844
631.02        42.67365
631.45         42.5397
631.88        42.30643
632.31         41.9455
632.74        41.64092
633.17        41.13656
633.60        40.69548
634.03        40.25344
634.46        39.80772
634.89        39.36033
635.32        38.92813
635.75        38.51912
636.18        38.09301
636.61        37.66544
637.04        37.27709
637.47        36.92847
637.89        36.60287
638.32        36.27477
638.75        35.94323
639.18        35.60878
639.61        35.27427
640.04        34.95963
640.47         34.6922
640.90        34.47496
641.33        34.30267
641.76        34.14703
642.18        33.96673
642.61        33.74622
643.04        33.50476
643.47         33.2879
643.90        33.16689
644.33        33.15653
644.76        33.23758
645.18        33.35887
645.61        33.42759
646.04         33.4263
646.47        33.38536
646.90        33.36259
647.33        33.44054
647.75        33.62926
648.18        33.94374
648.61        34.34654
649.04         34.6355
649.47        34.75571
649.89        35.30852
650.32        35.39973
650.75        35.71541
651.18        36.02333
651.61        36.61015
652.03        37.39684
652.46        37.83519
652.89          37.978
653.32        38.39948
653.74        39.16078
654.17        39.38962
654.60        40.08113
655.03        40.20295
655.46        40.35974
655.88         41.1615
656.31        43.65303
656.74        45.26172
657.16        45.55833
657.59        45.76106
658.02        44.41095
658.45        44.34821
658.87        43.97725
659.30         44.7806
659.73        44.95763
660.15        45.76162
660.58        45.56182
661.01        45.69537
661.44        45.91216
661.86        46.09048
662.29        46.21971
662.72        46.83344
663.14        47.00861
663.57        47.25973
664.00        47.38885
664.42        47.67918
664.85        48.14391
665.27        48.66763
665.70        49.14697
666.13        49.29509
666.55        49.46748
666.98         49.3372
667.41        49.10083
667.83        49.20644
668.26        49.18739
668.69        49.41341
669.11        49.69528
669.54        49.97211
669.96        50.22888
670.39        50.48837
670.82        50.71979
671.24        50.88285
671.67        51.05758
672.09        50.88319
672.52        51.41697
672.94        51.54806
673.37        51.59104
673.80        51.66771
674.22        51.80459
674.65        51.91894
675.07        52.01496
675.50        52.11797
675.92        52.22697
676.35        52.33125
676.77        52.43299
677.20        52.52736
677.62        52.63453
678.05        52.78719
678.47        52.98538
678.90        53.22242
679.32        53.45255
679.75        53.61403
680.17        53.69188
680.60        53.70844
681.02        53.71996
681.45        53.80952
681.87        54.00543
682.30        54.28243
682.72         54.5956
683.15        54.80957
683.57        54.92004
684.00        55.00342
684.42        55.09398
684.85        55.20321
685.27        55.33807
685.70         55.5156
686.12        55.69788
686.54        55.82918
686.97        55.89682
687.39        55.92657
687.82        55.94431
688.24        56.00513
688.66        56.11996
689.09        56.27058
689.51        56.44154
689.94        56.58154
690.36        56.68436
690.78        56.75085
691.21        56.81571
691.63        56.92574
692.06        57.09443
692.48        57.31885
692.90        57.53651
693.33        57.65094
693.75        57.64047
694.17        57.50837
694.60        57.37567
695.02        57.42065
695.44        57.65235
695.87        58.09565
696.29        58.59033
696.71        58.53223
697.14        58.05075
697.56        58.01367
697.98        58.43412
698.41        58.64122
698.83        58.62146
699.25        58.82553
699.68        59.15612
700.10        59.28301
700.52        59.15643
700.94        58.89056
701.37         58.6329
701.79        58.62481
702.21        58.91116
702.64        59.39249
703.06        59.93264
703.48        60.29674
703.90        60.41328
704.33        60.35422
704.75        60.19615
705.17        60.05658
705.59        59.99014
706.01        59.96368
706.44        59.98801
706.86        60.10265
707.28        60.29322
707.70        60.54424
708.12        60.82346
708.55        61.08241
708.97        61.29161
709.39        61.40536
709.81        61.43104
710.23        61.45147
710.66        61.47752
711.08        61.47958
711.50        61.44779
711.92        61.40347
712.34        61.35759
712.76        61.32373
713.19        61.30347
713.61        61.32879
714.03        61.39334
714.45        61.49441
714.87        61.64529
715.29        61.86825
715.71        62.15427
716.13        62.47798
716.56        62.77323
716.98        63.01543
717.40        63.14813
717.82        63.18331
718.24        63.12915
718.66        63.00334
719.08        62.83833
719.50        62.65969
719.92        62.51235
720.34          62.458
720.76        62.51118
721.19        62.63463
721.61         62.8531
722.03        63.15383
722.45        63.50533
722.87        63.89054
723.29        64.20625
723.71        64.29166
724.13        64.12421
724.55        63.75897
724.97        63.33419
725.39        63.08538
725.81         63.0809
726.23        63.24068
726.65        63.48005
727.07         63.7967
727.49        63.91488
727.91        64.05835
728.33        64.18645
728.75        64.34877
729.17         64.5481
729.59        64.74658
730.01        64.91531
730.43        65.01704
730.85        65.04184
731.27        65.00724
731.69        64.92808
732.10        64.82607
732.52        64.71399
732.94        64.60115
733.36        64.53532
733.78        64.46774
734.20        64.39996
734.62        64.58146
735.04        65.03783
735.46        64.63709
735.88        65.28833
736.30         65.3093
736.72         65.3327
737.13        65.72183
737.55         66.2993
737.97        66.45863
738.39         66.1621
738.81        65.74138
739.23         65.3794
739.65        65.43161
740.06        65.81481
740.48        66.03025
740.90        66.02271
741.32        66.14827
741.74        66.41293
742.16        66.58295
742.57        66.63294
742.99        66.69549
743.41         66.7454
743.83        66.53261
744.25        66.15909
744.67        66.06361
745.08        66.26653
745.50        66.39276
745.92        66.42235
746.34        66.57333
746.75        66.81046
747.17        66.88356
747.59         66.7713
748.01        66.71046
748.42        66.70647
748.84        66.34677
749.26        66.08371
749.68         66.1957
750.09         66.7026
750.51         67.2759
750.93         67.6748
751.35        67.46941
751.76        66.80373
752.18        66.47099
752.60        66.53493
753.01        66.53487
753.43        66.43327
753.85        66.40977
754.27        66.46394
754.68        66.62376
755.10        66.84452
755.52        66.90952
755.93        66.85085
756.35        66.97253
756.77        67.28529
757.18        67.47307
757.60        67.55547
758.02        67.82269
758.43        68.06611
758.85        67.84087
759.26         67.4695
759.68        66.41729
760.10        67.05009
760.51        67.50956
760.93        68.22528
761.34        68.21681
761.76        68.11622
762.18        67.99577
762.59        68.13232
763.01        68.20077
763.42        68.23911
763.84        68.36478
764.26        68.50885
764.67        68.35442
765.09        68.05224
765.50        67.92225
765.92        68.02465
766.33        68.26509
766.75        68.44251
767.16        68.28677
767.58        67.84297
768.00        67.45692
768.41        67.37032
768.83        67.98747
769.24        68.98667
769.66         69.3277
770.07        68.95811
770.49        68.39581
770.90        67.94077
771.32        68.22222
771.73        69.08504
772.15        69.37599
772.56        69.03614
772.97        68.77627
773.39        68.72727
773.80         68.7532
774.22        68.85217
774.63        69.09503
775.05         69.3314
775.46        69.41351
775.88        69.27621
776.29        68.97549
776.70        68.66196
777.12        68.61752
777.53        68.90641
777.95        69.39333
778.36         69.9237
778.77        70.20538
779.19        70.18729
779.60        69.95962
780.02        69.59921
780.43        69.40288
780.84        69.48398
781.26        69.10721
781.67        69.00684
782.09        69.61053
782.50        70.76216
782.91        70.66226
783.33        69.67054
783.74        69.30893
784.15        69.70301
784.57        70.00505
784.98        70.12881
785.39        69.98043
785.81        69.69627
786.22        70.13261
786.63        71.06193
787.04        71.17699
787.46        70.57161
787.87        70.29727
788.28        70.40605
788.70        70.76109
789.11        70.42308
789.52        70.59648
789.93        70.91128
790.35        70.90536
790.76        70.60818
791.17        70.43533
791.58        70.46245
792.00        70.41531
792.41         70.3175
792.82        70.50642
793.23        70.85065
793.65         70.6528
794.06        70.10493
794.47        70.19112
794.88        70.77867
795.29        71.28176
795.71        70.84374
796.12        70.79858
796.53         70.9539
796.94        70.84335
797.35         70.5808
797.76        70.86768
798.18        71.55651
798.59         71.8455
799.00        71.63877
799.41        71.34837
799.82        71.12794
800.23        71.06042
800.64        71.19473
801.06        71.46676
801.47        71.78416
801.88         71.8979
802.29        71.74016
802.70        71.37936
803.11        70.93692
803.52        70.61284
803.93        70.49506
804.34        70.54771
804.75        70.70358
805.17        70.91838
805.58        71.20388
805.99        71.28968
806.40        71.27341
806.81        71.93634
807.22        72.98803
807.63        72.95575
808.04        71.96311
808.45        71.47662
808.86        71.60949
809.27        71.55864
809.68        71.28739
810.09        71.14429
810.50        71.14884
810.91        71.20834
811.32        71.36876
811.73        71.69942
812.14        72.18307
812.55        72.78838
812.96        73.35069
813.37        73.55858
813.78        73.33615
814.19         72.8046
814.60        72.14561
815.01        71.60475
815.42        71.25159
815.83        71.02273
816.24        70.93255
816.65        70.99672
817.05        71.20739
817.46        71.54535
817.87        71.91631
818.28        72.11865
818.69         72.1085
819.10        71.89825
819.51        71.64579
819.92        71.65334
820.33        71.98608
820.74        72.54884
821.14        73.10805
821.55        73.28416
821.96        72.99966
822.37        72.37927
822.78        71.66518
823.19        71.26392
823.60        71.30325
824.00        71.69703
824.41        72.21544
824.82         72.5716
825.23        72.64916
825.64        72.53072
826.04        72.33647
826.45         72.2169
826.86        72.23841
827.27        72.35484
827.68        72.46917
828.08        72.45804
828.49         72.2438
828.90        71.89675
829.31        71.58436
829.72        71.57073
830.12        71.93139
830.53        72.52528
830.94        73.12608
831.35        73.29818
831.75        72.94968
832.16        72.20006
832.57        71.33598
832.97        70.78967
833.38        70.68676
833.79         70.8811
834.20        71.24793
834.60        71.58494
835.01        71.82104
835.42        72.07048
835.82        72.30838
836.23        72.39933
836.64        72.36043
837.04        72.16386
837.45        72.01949
837.86        72.35378
838.26        73.24677
838.67        74.52891
839.08        75.75227
839.48        76.07172
839.89        75.29023
840.29        73.73106
840.70        72.07757
841.11        71.11459
841.51        71.04852
841.92        71.63635
842.33        72.60367
842.73        73.45119
843.14        73.86384
843.54        74.02422
843.95        74.05343
844.35        74.20647
844.76        74.52036
845.17        74.88086
845.57         75.1277
845.98        75.00111
846.38        74.48731
846.79        73.69412
847.19        72.86784
847.60        72.35921
848.00         72.2779
848.41        72.50983
848.81         72.9053
849.22        73.11486
849.62        73.08317
850.03        72.89876
850.43        72.69786
850.84        72.63147
851.24         72.7921
851.65        73.03361
852.05        73.39692
852.46        73.83718
852.86        74.29518
853.27         74.7699
853.67        75.06181
854.07        75.01406
854.48        74.59873
854.88        73.90672
855.29        73.08157
855.69        72.54124
856.10        72.35607
856.50        72.50829
856.90        72.84768
857.31        73.12413
857.71        73.29723
858.12        73.35947
858.52        73.37363
858.92        73.32894
859.33        73.21691
859.73        73.06728
860.13         72.8477
860.54        72.54738
860.94        72.23103
861.34        71.91368
861.75        71.66879
862.15        71.64792
862.55        71.84894
862.96        72.17844
863.36        72.58393
863.76        72.88189
864.17        72.98814
864.57        72.97592
864.97        72.78343
865.38          72.332
865.78        71.67663
866.18         70.8512
866.58        70.07784
866.99        69.74929
867.39        69.98892
867.79        70.67012
868.19        71.55132
868.60        72.23122
869.00        72.61702
869.40        72.76971
869.80        72.75993
870.21        72.73695
870.61        72.81699
871.01        72.89059
871.41         72.8642
871.81        72.61584
872.22        72.13229
872.62        71.47407
873.02        70.83389
873.42        70.51575
873.82        70.59975
874.22        70.99976
874.63        71.47543
875.03        71.66226
875.43         71.4499
875.83        70.93613
876.23        70.34887
876.63        70.03954
877.03        70.10173
877.44        70.42729
877.84        70.81248
878.24        70.92141
878.64        70.63611
879.04        69.93892
879.44        69.21292
879.84         69.1236
880.24        69.74311
880.64        70.83678
881.04        71.86957
881.44        71.98273
881.84        71.00984
882.24        69.26383
882.65        67.42224
883.05        66.52969
883.45        66.84995
883.85        68.08013
884.25        69.69374
884.65        70.78355
885.05        71.05721
885.45        70.78218
885.85        70.30051
886.25        70.13757
886.65        70.42872
887.05        70.96286
887.45        71.52213
887.85        71.78122
888.25        71.64104
888.65        71.24169
889.04        70.72823
889.44        70.32652
889.84        70.09822
890.24        69.98212
890.64        69.91961
891.04        69.82553
891.44        69.67678
891.84        69.51633
892.24        69.39158
892.64         69.3539
893.04        69.42235
893.44        69.59522
893.83        69.83389
894.23          70.024
894.63        70.15646
895.03        70.22285
895.43        70.33282
895.83        70.67468
896.23        71.24892
896.63        71.96349
897.02        72.55621
897.42        72.64314
897.82        72.16059
898.22        71.27893
898.62        70.27332
899.01        69.54292
899.41        69.22285
899.81        69.19095
900.21        69.35121
900.61        69.54193
901.00        69.68248
901.40        69.80631
901.80        69.89267
902.20        69.89017
902.59        69.81457
902.99        69.68733
903.39        69.51242
903.79         69.3114
904.18        69.10036
904.58        68.86237
904.98        68.76649
905.38        69.07746
905.77        69.80323
906.17        70.87789
906.57         71.8903
906.96        72.15341
907.36         71.5199
907.76         70.2234
908.15        68.84491
908.55        68.29392
908.95        68.79392
909.34        70.07278
909.74        71.58502
910.14        72.50135
910.53        72.52901
910.93        71.94889
911.33        71.02567
911.72        70.14839
912.12         69.5506
912.52        69.13464
912.91        68.87449
913.31        68.77102
913.70        68.80752
914.10        68.95728
914.49        69.34081
914.89        70.03603
915.29        71.01785
915.68        72.22459
916.08        73.21389
916.47        73.35483
916.87         72.5722
917.26        71.07685
917.66         69.5148
918.05        68.69291
918.45        68.79552
918.84         69.6421
919.24        70.77464
919.64        71.50243
920.03        71.60442
920.42        71.24775
920.82        70.78598
921.21        70.71316
921.61        71.12759
922.00        71.88346
922.40         72.6401
922.79        72.97819
923.19        72.74873
923.58        72.15579
923.98        71.47668
924.37        71.02991
924.77        70.92072
925.16        70.99179
925.55         71.1782
925.95        71.35258
926.34        71.46019
926.74        71.52878
927.13        71.44542
927.52         70.9541
927.92        70.11099
928.31        69.01583
928.70        67.97513
929.10        67.42962
929.49        67.45734
929.89        67.86416
930.28        68.57738
930.67        69.32954
931.07        69.95817
931.46        70.62137
931.85        71.03797
932.24        70.81687
932.64        69.99362
933.03        68.64603
933.42        67.42626
933.82        67.30495
934.21        68.44523
934.60        70.62631
934.99        73.07793
935.39        74.37823
935.78        74.15374
936.17         72.7055
936.56        70.82825
936.96        69.79977
937.35        69.95238
937.74        70.89651
938.13        71.99402
938.53        72.25404
938.92        71.45885
939.31        70.03094
939.70        68.51023
940.09        67.62995
940.49        67.54154
940.88        68.01721
941.27        68.80539
941.66        69.45864
942.05        69.80065
942.44        70.00441
942.84        70.12171
943.23        70.20873
943.62          70.312
944.01         70.3325
944.40        70.39813
944.79        70.76856
945.18        71.44355
945.57        72.32989
945.97         73.0484
946.36        73.05765
946.75        72.21425
947.14        70.78838
947.53          69.188
947.92        67.97452
948.31        67.32195
948.70         67.1061
949.09        67.25098
949.48        67.61192
949.87        68.09584
950.26        68.71751
950.65         69.4227
951.04        70.11104
951.43        70.71358
951.82        71.19297
952.21         71.4489
952.60        71.36998
952.99        70.99049
953.38         70.3998
953.77        69.81405
954.16        69.57001
954.55        69.73689
954.94        70.19068
955.33         70.8198
955.72        71.39822
956.11        71.80501
956.50        72.11667
956.89        72.14908
957.28        71.61794
957.66         70.5388
958.05        69.07197
958.44        67.69222
958.83        67.08604
959.22         67.3553
959.61        68.30958
960.00        69.50546
960.39        70.09285
960.78        69.80222
961.16        68.89989
961.55        67.79585
961.94        66.99696
962.33        66.67066
962.72        66.69045
963.11        66.96545
963.49        67.37061
963.88        67.72772
964.27        68.03951
964.66        68.41493
965.04         69.0509
965.43        69.90898
965.82        70.98849
966.21        71.78534
966.60        71.40376
966.98        69.71172
967.37          67.158
967.76        64.74271
968.15        63.71216
968.53        64.25725
968.92        66.08833
969.31        68.40251
969.69        69.55029
970.08        68.92221
970.47        67.07849
970.86        65.05677
971.24        64.32602
971.63        65.19469
972.02        67.21084
972.40        69.67011
972.79        70.89243
973.17        70.38408
973.56        68.77222
973.95        66.80907
974.33        65.42446
974.72        64.86575
975.11        64.79034
975.49          65.116
975.88        65.64277
976.26        66.27491
976.65        67.04675
977.04          67.744
977.42        67.96903
977.81        67.62185
978.19         66.7534
978.58        65.77357
978.96        65.35059
979.35        65.62519
979.74        66.46043
980.12        67.51243
980.51        67.91595
980.89         67.5738
981.28         66.7383
981.66        65.87533
982.05        65.61345
982.43        66.11041
982.82        67.14882
983.20        68.55395
983.59        69.87514
983.97        70.96901
984.35        71.88526
984.74        72.49143
985.12        72.83642
985.51        72.87785
985.89        72.61119
986.28        72.23595
986.66        71.99596
987.04        72.02558
987.43        72.24897
987.81        72.59037
988.20        72.73452
988.58        72.60986
988.96        72.20021
989.35        71.65189
989.73        71.15765
990.12        70.73449
990.50        70.38067
990.88        69.83044
991.27        68.68198
991.65        66.98567
992.03        64.99583
992.42        63.29484
992.80        62.60629
993.18         63.0546
993.56        64.42116
993.95        66.16238
994.33        67.38967
994.71        67.63545
995.10        67.25764
995.48        66.54985
995.86        66.07837
996.24        66.00749
996.63         65.9389
997.01        66.13802
997.39        66.80141
997.77        67.84472
998.15        69.29955
998.54        70.38537
998.92        69.79947
999.30        67.55981
999.68         64.1586
1000.06        60.93299
1000.45        59.76482
1000.83        61.14371
1001.21        64.70309
1001.59        69.34739
1001.97        72.35414
1002.35         72.6105
1002.73        70.93552
1003.12         68.7602
1003.50        67.92976
1003.88        68.96699
1004.26        71.08772
1004.64        73.81409
1005.02        76.10442
1005.40        77.33662
1005.78        78.08029
1006.16         77.7434
1006.54        75.35207
1006.92        71.19148
1007.30        65.71913
1007.69        60.94864
1008.07        59.63128
1008.45        62.45643
1008.83        68.94852
1009.21        77.16911
1009.59        82.16919
1009.97        81.61333
1010.35         76.8373
1010.73        70.18987
1011.11        65.13463
1011.49        62.68562
1011.86        61.84931
1012.24        62.00051
1012.62        62.32362
1013.00        62.53445
1013.38        62.97418
1013.76        63.86696
1014.14        65.34447
1014.52        67.23979
1014.90        69.16925
1015.28        70.46503
1015.66        70.47432
1016.04        69.17012
1016.41        66.75043
1016.79        63.94967
1017.17        62.23903
1017.55         62.0766
1017.93         63.0714
1018.31        64.45742
1018.69        65.07158
1019.06        64.63821
1019.44        63.46512
1019.82         61.9187
1020.20        60.93032
1020.58        60.87837
1020.95        61.21954
1021.33        61.80271
1021.71        62.39333
1022.09        62.94003
1022.46        63.80725
1022.84        64.40829
1023.22        63.49556
1023.60        60.95006
1023.97        57.18785
1024.35        54.21399
1024.73        54.22961
