SpectraSmart Spectrum 2.9.0.0
--------- Device Information -----------
Spectrum Name :  反射率_0
Saving Time :  2024/04/27 00:12:41
Spectro-Module Model Name : SE2030-DUVN
Spectro-Module Serial Number : OS361AC55029948
Wavelength Start : 200
Wavelength End : 1025
Wavelength Unit : Wavelength(nm)
Spectrum Unit : Reflectance(%)
-----------Spectrum Setting ------------
Integration Time : 20ms
Average : 10
Boxcar : 0
Background removal :  enabled
linearity correction :  enabled
SC :  disabled
Intensity correction :  disabled
DWT denoise :  enabled
savitzky-golay :  disabled
FFT :  disabled
Running average :  disabled
Kalman :  disabled
High pass :  disabled
---------------BEGIN--------------------
Wavelength(nm)             Reflectance(%)
200.29               0
200.75        29.86166
201.21        31.33608
201.67        32.43849
202.13        32.83804
202.58         32.5487
203.04        31.92871
203.50        31.22951
203.96        31.22524
204.42        32.36369
204.88        34.17321
205.34        36.49194
205.80        38.95411
206.26        40.94535
206.72        42.35802
207.18        42.47683
207.64        40.39731
208.10        35.99297
208.55        28.87302
209.01        19.52471
209.47        15.60427
209.93         20.6123
210.39        28.96593
210.85        36.40516
211.31        42.33229
211.77        48.68442
212.23        59.58742
212.69        82.55566
213.14         112.831
213.60        96.16575
214.06        62.89328
214.52        44.91487
214.98         39.2604
215.44        39.40705
215.90        42.31622
216.36        46.64071
216.81         50.4203
217.27        53.29877
217.73        56.82411
218.19        59.53905
218.65        56.27451
219.11        48.22611
219.57        39.91338
220.02        35.31604
220.48        36.23271
220.94        42.20362
221.40        54.38264
221.86        72.62692
222.32         85.4474
222.77         82.3598
223.23        70.58661
223.69        58.85078
224.15        52.39089
224.61        50.29774
225.06         49.9853
225.52        50.65217
225.98        51.39974
226.44        52.01902
226.90        52.93843
227.36         53.8284
227.81         53.9548
228.27        53.35962
228.73        52.11316
229.19         50.9657
229.65        50.84398
230.10        51.72844
230.56        53.35581
231.02        54.81637
231.48          54.701
231.93        52.85727
232.39         50.1896
232.85        47.68777
233.31        46.65574
233.77         47.1871
234.22         48.8166
234.68        50.79395
235.14        52.05802
235.60        52.26906
236.05        51.74771
236.51        50.74662
236.97        49.89188
237.43         49.4805
237.88        49.31983
238.34        49.33293
238.80        49.62653
239.26         50.2528
239.71        51.71777
240.17        53.56178
240.63        54.84713
241.08        55.09894
241.54        53.81593
242.00        52.71646
242.46        55.45782
242.91         64.7539
243.37        82.92171
243.83        110.5511
244.28        134.4331
244.74        135.5358
245.20        113.4641
245.66        86.14132
246.11        70.12619
246.57        65.88768
247.03        68.17428
247.48        71.78864
247.94        68.68699
248.40        60.00404
248.85        51.06042
249.31        44.24645
249.77        39.88485
250.22        37.07741
250.68        34.71058
251.14        33.16389
251.59        34.10882
252.05        38.08792
252.51        44.12618
252.96        48.93178
253.42        49.96363
253.88        47.89258
254.33        43.83168
254.79        40.97155
255.25        41.95883
255.70        46.39692
256.16         53.0478
256.62        58.71228
257.07        58.67712
257.53        54.28721
257.99        48.67866
258.44        44.14223
258.90        42.63575
259.35        43.24961
259.81        45.09945
260.27        47.04174
260.72        47.74189
261.18        47.25267
261.63        45.97148
262.09        44.73314
262.55        44.00532
263.00        43.73152
263.46        43.79198
263.91        43.69456
264.37        43.07015
264.83        41.92234
265.28        40.46202
265.74        39.23709
266.19         38.6757
266.65        38.85472
267.11        39.49968
267.56         40.2426
268.02        40.49331
268.47        40.10021
268.93        39.28475
269.38        38.25478
269.84        37.38588
270.30        36.76973
270.75        36.25957
271.21        35.84806
271.66        35.48066
272.12        35.12569
272.57        34.80925
273.03        34.41983
273.48        33.75525
273.94        32.85608
274.39        31.77202
274.85        30.76429
275.31        30.07446
275.76        29.71237
276.22        29.61134
276.67        29.57545
277.13        29.40004
277.58        28.99165
278.04        28.44078
278.49        27.80185
278.95        27.26121
279.40        26.81201
279.86        26.46029
280.31        26.08082
280.77        25.59079
281.22        24.96158
281.68        24.30004
282.13        23.69847
282.59        23.34597
283.04        23.23166
283.50        23.29608
283.95        23.41539
284.41        23.40415
284.86         23.2126
285.32        22.92454
285.77        22.60122
286.22        22.37873
286.68        22.28735
287.13        22.25348
287.59        22.25768
288.04        22.23571
288.50        22.18554
288.95         22.1053
289.41         22.0077
289.86        21.85276
290.32        21.66937
290.77        21.45597
291.22         21.2558
291.68        21.12407
292.13        21.06567
292.59        21.07992
293.04        21.15097
293.50        21.26949
293.95        21.41978
294.40        21.60954
294.86        21.82972
295.31        22.05719
295.77        22.29559
296.22        22.54556
296.68        22.82156
297.13        23.13891
297.58        23.50067
298.04        23.88927
298.49        24.30292
298.95        24.75219
299.40        25.22179
299.85        25.71286
300.31        26.16623
300.76        26.48711
301.21        26.67014
301.67        26.75567
302.12        26.83043
302.58        27.07748
303.03        27.49731
303.48         28.0381
303.94        28.58499
304.39        28.93939
304.84        29.07522
305.30        29.07465
305.75        29.00745
306.20        29.02755
306.66        29.18009
307.11        29.39856
307.57        29.65397
308.02         29.8666
308.47        30.01865
308.93        30.14161
309.38        30.22553
309.83        30.29216
310.29        30.34906
310.74        30.38294
311.19        30.38887
311.65        30.35984
312.10        30.29127
312.55        30.18408
313.00        30.06575
313.46        29.97447
313.91        29.90309
314.36        29.84888
314.82        29.76377
315.27        29.57899
315.72        29.28575
316.18        28.92282
316.63        28.54827
317.08        28.26285
317.53        28.08846
317.99        27.98925
318.44        27.92621
318.89        27.82416
319.35        27.65655
319.80        27.44127
320.25        27.19101
320.70        26.92723
321.16        26.65741
321.61        26.38301
322.06        26.09806
322.51        25.79986
322.97        25.48927
323.42        25.17697
323.87        24.89095
324.32        24.67448
324.78        24.52568
325.23         24.4483
325.68        24.37499
326.13        24.20069
326.59        23.90404
327.04        23.52224
327.49        23.14173
327.94        22.90264
328.39        22.82825
328.85        22.86377
329.30        22.93327
329.75        22.85813
330.20        22.59063
330.66        22.18637
331.11        21.74247
331.56        21.39326
332.01        21.18253
332.46        21.06876
332.92        21.00692
333.37         20.9548
333.82        20.87634
334.27        20.79284
334.72        20.70368
335.17        20.60208
335.63        20.48697
336.08        20.36418
336.53        20.23842
336.98        20.13216
337.43        20.05099
337.88        19.98555
338.34         19.9354
338.79        19.91811
339.24        19.92189
339.69        19.94117
340.14        19.93789
340.59        19.85335
341.05        19.68418
341.50        19.44647
341.95        19.19118
342.40        18.99492
342.85        18.88029
343.30        18.83127
343.75        18.81337
344.20        18.77089
344.66        18.69174
345.11        18.58742
345.56         18.4921
346.01        18.45915
346.46        18.49604
346.91        18.58143
347.36        18.66014
347.81        18.65154
348.26        18.54084
348.72        18.35509
349.17        18.15369
349.62        18.04123
350.07        18.04137
350.52        18.12465
350.97        18.22322
351.42        18.22791
351.87        18.11397
352.32        17.91759
352.77        17.70734
353.22        17.58203
353.67        17.56174
354.13        17.61683
354.58        17.68247
355.03        17.66022
355.48        17.52779
355.93        17.32112
356.38        17.10732
356.83        16.98432
357.28        16.96944
357.73        17.02526
358.18        17.09095
358.63        17.07029
359.08        16.93856
359.53        16.73061
359.98        16.49144
360.43        16.28494
360.88        16.12914
361.33        16.00419
361.78        15.89303
362.23        15.77078
362.68        15.63263
363.13        15.49348
363.58        15.36239
364.03        15.24875
364.48        15.15347
364.93        15.06775
365.38        14.99031
365.83        14.92151
366.28        14.85928
366.73        14.80439
367.18        14.74257
367.63        14.65254
368.08        14.53021
368.53        14.37766
368.98         14.2203
369.43        14.09905
369.88        14.02129
370.33        13.97815
370.78        13.93082
371.23        13.81469
371.68         13.6195
372.13         13.3691
372.58        13.12071
373.03        12.96322
373.48        12.91635
373.93        12.95157
374.38        13.01534
374.83        13.02174
375.28        12.94642
375.72        12.81133
376.17        12.66169
376.62        12.54838
377.07        12.48616
377.52        12.45795
377.97        12.44168
378.42        12.40532
378.87        12.34124
379.32        12.26072
379.77        12.18631
380.22        12.14873
380.67        12.14994
381.11        12.17921
381.56        12.19838
382.01        12.15737
382.46        12.04838
382.91        11.89633
383.36        11.73671
383.81        11.61537
384.26        11.54226
384.71        11.50375
385.15        11.48767
385.60        11.47901
386.05        11.46866
386.50        11.46227
386.95        11.45666
387.40        11.44674
387.85        11.43072
388.29        11.39884
388.74        11.36837
389.19        11.34055
389.64        11.31523
390.09        11.29014
390.54         11.2581
390.98        11.20496
391.43        11.13852
391.88        11.06493
392.33        10.99681
392.78        10.95009
393.23        10.92818
393.67        10.92201
394.12        10.93357
394.57        10.94368
395.02        10.94737
395.47        10.94291
395.91        10.94142
396.36         10.9531
396.81        10.98441
397.26        11.03007
397.71        11.06398
398.15        11.05644
398.60        11.01899
399.05        10.91795
399.50        10.79925
399.95        10.80682
400.39        10.91572
400.84        10.91952
401.29        10.80935
401.74        10.74111
402.18        10.71809
402.63        10.63759
403.08        10.53358
403.53        10.50659
403.97        10.56592
404.42        10.68235
404.87        10.79886
405.32        10.82334
405.76        10.73626
406.21        10.57344
406.66        10.40159
407.11        10.32555
407.55        10.37095
408.00        10.50046
408.45        10.65344
408.90        10.71482
409.34        10.65242
409.79        10.51164
410.24        10.34951
410.68        10.24094
411.13        10.20932
411.58        10.22659
412.03        10.27601
412.47        10.33058
412.92        10.37033
413.37        10.40632
413.81        10.42926
414.26        10.43271
414.71        10.41396
415.15        10.37393
415.60        10.32151
416.05        10.28381
416.49        10.27205
416.94        10.28338
417.39        10.30837
417.83        10.32894
418.28        10.34001
418.73        10.34536
419.17        10.35948
419.62        10.40485
420.07        10.48196
420.51        10.57577
420.96        10.66009
421.41        10.69518
421.85        10.66951
422.30        10.59406
422.74        10.49227
423.19        10.44679
423.64        10.45138
424.08        10.43412
424.53        10.38314
424.98        10.36165
425.42        10.37506
425.87         10.3593
426.31        10.32775
426.76          10.376
427.21         10.4756
427.65        10.47424
428.10        10.38891
428.54        10.35745
428.99        10.39081
429.44        10.44579
429.88        10.49754
430.33         10.4688
430.77        10.38958
431.22        10.44765
431.66        10.61936
432.11        10.67872
432.56        10.61655
433.00        10.59084
433.45        10.56898
433.89        10.42334
434.34        10.24714
434.78        9.986181
435.23        10.21191
435.67        10.27588
436.12        10.31618
436.57        10.35619
437.01         10.3924
437.46        10.42192
437.90        10.43417
438.35        10.39949
438.79        10.33208
439.24        10.28995
439.68        10.28258
440.13        10.29288
440.57        10.31438
441.02        10.34566
441.46        10.38157
441.91          10.398
442.35        10.39289
442.80        10.46596
443.24        10.57231
443.69        10.53065
444.13        10.38092
444.58        10.35479
445.02        10.46305
445.47        10.58959
445.91        10.68392
446.36         10.7202
446.80         10.6825
447.24        10.58151
447.69        10.46449
448.13         10.4002
448.58        10.40818
449.02        10.46734
449.47        10.53976
449.91        10.56005
450.36        10.51686
450.80        10.43151
451.25        10.34261
451.69         10.3035
452.13        10.32488
452.58        10.38192
453.02        10.44408
453.47        10.46546
453.91        10.43454
454.36        10.37423
454.80          10.293
455.24        10.20191
455.69        10.11534
456.13        10.02152
456.58        9.957623
457.02        9.963168
457.46        10.04195
457.91        10.17678
458.35        10.30411
458.79        10.32239
459.24        10.22586
459.68         10.0463
460.13        9.861097
460.57        9.756724
461.01        9.762929
461.46        9.840876
461.90        9.964541
462.34        10.07871
462.79         10.1562
463.23        10.21645
463.68        10.24519
464.12        10.22607
464.56        10.16117
465.01        10.06857
465.45        9.965078
465.89        9.904067
466.34         9.89271
466.78        9.915967
467.22        9.959345
467.67        9.985319
468.11        9.987442
468.55         9.97277
468.99        9.949462
469.44        9.928746
469.88        9.916049
470.32        9.907039
470.77        9.903077
471.21        9.910505
471.65        9.927366
472.10        9.952613
472.54         9.98012
472.98        10.00378
473.42        10.02142
473.87        10.03927
474.31        10.04634
474.75         10.0372
475.20        10.01531
475.64         9.97737
476.08        9.945745
476.52        9.949115
476.97         9.99197
477.41        10.07251
477.85        10.16206
478.29         10.1975
478.74        10.17678
479.18        10.14154
479.62        10.11964
480.06        10.13918
480.50        10.20899
480.95        10.30924
481.39        10.40067
481.83        10.52446
482.27        10.51884
482.72        10.53415
483.16        10.54516
483.60        10.56237
484.04        10.58517
484.48        10.66267
484.93         10.8479
485.37        10.87192
485.81        11.03385
486.25        11.34526
486.69        11.28987
487.14        11.06139
487.58        11.67579
488.02        11.51587
488.46        11.42892
488.90        11.48902
489.34         11.3692
489.79         11.5026
490.23        11.66438
490.67        11.83976
491.11         11.9592
491.55        11.89827
491.99        11.73994
492.43        11.76137
492.88        11.99342
493.32        12.27827
493.76        12.54174
494.20        12.74214
494.64         12.8582
495.08        12.87593
495.52         12.8463
495.96        12.93968
496.41        13.15106
496.85        13.25352
497.29        13.24613
497.73        13.44382
498.17        13.64122
498.61        13.76602
499.05        13.75867
499.49        13.78028
499.93        13.81469
500.37         13.9227
500.82        14.07676
501.26        14.19532
501.70        14.26769
502.14        14.35093
502.58        14.45091
503.02        14.54558
503.46        14.63445
503.90        14.72161
504.34        14.80272
504.78        14.87131
505.22         14.9259
505.66        14.96799
506.10        15.00216
506.54        15.03659
506.98        15.07476
507.42        15.11621
507.86        15.16144
508.30        15.20986
508.74        15.26157
509.18          15.318
509.62          15.378
510.06        15.43983
510.50        15.50212
510.94        15.56241
511.38        15.62233
511.82        15.68518
512.26        15.74986
512.70        15.81467
513.14        15.87029
513.58        15.90237
514.02         15.9092
514.46        15.89572
514.90        15.87667
515.34        15.87578
515.78        15.89877
516.22        15.93925
516.66         15.9837
517.10        16.00948
517.54        16.01103
517.98        15.99598
518.42        15.97431
518.86        15.96208
519.30        15.96314
519.74        15.97019
520.18        15.97858
520.62        15.98112
521.06        15.97603
521.50        15.96914
521.93        15.95851
522.37        15.93414
522.81        15.89905
523.25        15.85334
523.69        15.81287
524.13        15.80307
524.57         15.8243
525.01        15.86496
525.45        15.89772
525.89        15.87849
526.32        15.79739
526.76        15.67618
527.20        15.53719
527.64        15.41662
528.08        15.32765
528.52        15.26028
528.96        15.21551
529.40        15.19385
529.83        15.19013
530.27        15.20459
530.71        15.21791
531.15        15.19957
531.59        15.14322
532.03        15.05494
532.46        14.95292
532.90        14.87902
533.34        14.84014
533.78        14.81778
534.22        14.79561
534.66        14.76593
535.09        14.71294
535.53        14.61246
535.97        14.48813
536.41         14.4134
536.85        14.39836
537.28        14.40923
537.72        14.43402
538.16        14.46379
538.60        14.49145
539.04        14.52067
539.47        14.54973
539.91        14.58475
540.35        14.62508
540.79        14.66996
541.22        14.72157
541.66        14.78968
542.10        14.87355
542.54        14.97085
542.97        15.07589
543.41        15.18584
543.85        15.29595
544.29        15.40666
544.72        15.51504
545.16        15.62846
545.60        15.74616
546.04        15.87142
546.47        16.00397
546.91        16.13947
547.35        16.27506
547.79        16.41014
548.22         16.5505
548.66         16.7023
549.10        16.88453
549.53        17.08528
549.97         17.2868
550.41        17.41976
550.84        17.49587
551.28        17.57603
551.72         17.6663
552.15        17.79085
552.59        17.97785
553.03        17.95366
553.46        18.24936
553.90        18.38234
554.34        18.50497
554.77        18.62165
555.21        18.73943
555.65        18.85204
556.08        18.95206
556.52        19.03137
556.96        19.09009
557.39        19.18181
557.83        19.29509
558.27        19.31811
558.70        19.27453
559.14        19.31768
559.57        19.44087
560.01        19.54363
560.45        19.61435
560.88        19.69435
561.32        19.78921
561.75        19.87306
562.19        19.94878
562.63         19.9973
563.06        20.02673
563.50        20.08798
563.93        20.15825
564.37        20.21393
564.80        20.26392
565.24        20.28426
565.68        20.25046
566.11        20.55196
566.55        20.45402
566.98        20.56454
567.42        20.68859
567.85         20.8425
568.29         21.0276
568.72        21.24874
569.16        21.50209
569.60        21.66089
570.03        21.79812
570.47        21.91609
570.90        22.05306
571.34        22.06218
571.77        22.21815
572.21        22.41776
572.64        22.49469
573.08        22.65313
573.51        22.85998
573.95        22.98435
574.38          23.014
574.82        23.39955
575.25        23.00791
575.69        23.03354
576.12        23.18441
576.56        23.06701
576.99        23.42836
577.42        23.34836
577.86        23.44073
578.29        23.65031
578.73        23.51928
579.16        23.41485
579.60        23.15437
580.03        23.14874
580.47        23.11605
580.90        23.22189
581.33        23.26942
581.77        23.34931
582.20        22.94573
582.64         22.8588
583.07        22.55952
583.51        22.43789
583.94        22.43957
584.37        22.40601
584.81        22.30237
585.24        22.17254
585.68        22.08317
586.11        21.82534
586.54        21.92504
586.98        21.77753
587.41         21.5448
587.85        21.60752
588.28        21.33236
588.71         21.4719
589.15        21.39793
589.58         21.2322
590.01        21.34512
590.45        21.36741
590.88        21.41932
591.31         21.3087
591.75        21.14346
592.18        21.07273
592.61        21.06775
593.05        21.54582
593.48        21.83339
593.91        21.40633
594.35        21.58463
594.78        21.53814
595.21        21.70779
595.65        21.87964
596.08        22.09745
596.51        22.24903
596.94        22.26108
597.38        22.42627
597.81        22.72473
598.24        23.01398
598.68        23.28221
599.11        23.53682
599.54        23.79528
599.97        23.80278
600.41        24.43626
600.84        24.60356
601.27        24.93961
601.70        25.14896
602.14        25.51889
602.57        25.86611
603.00        26.29175
603.43         26.4319
603.87        27.26777
604.30        27.61895
604.73        27.84369
605.16        28.11354
605.60        28.46124
606.03        28.80041
606.46        29.12845
606.89        29.39195
607.32        30.18828
607.76        30.53116
608.19        30.96081
608.62        31.25143
609.05        31.59463
609.48         31.9632
609.92        32.73433
610.35        32.87613
610.78        32.76472
611.21         32.9527
611.64        33.35924
612.07        33.86259
612.50        34.16851
612.94         34.4737
613.37        34.68557
613.80        34.85413
614.23        34.69382
614.66        34.89776
615.09         35.3591
615.52        35.75304
615.96        35.99633
616.39        36.34235
616.82        36.55549
617.25        36.66532
617.68        36.68602
618.11        36.96293
618.54         37.4422
618.97        37.74008
619.40        37.84376
619.84        37.92709
620.27        38.03818
620.70          38.199
621.13        38.37025
621.56        38.19963
621.99         37.7981
622.42        37.82678
622.85        38.26294
623.28        38.30794
623.71        38.42998
624.14        38.34938
624.57        38.63585
625.00        38.66853
625.43        38.55328
625.86         38.4511
626.29         38.4184
626.72        37.97623
627.15        38.07938
627.58        37.93647
628.01        37.78946
628.44        37.65446
628.87        37.37039
629.30        37.07586
629.73        36.74937
630.16        36.45693
630.59        36.20661
631.02        35.97674
631.45        35.74584
631.88        35.47732
632.31        35.15818
632.74        34.79911
633.17        34.40229
633.60        33.97178
634.03        33.51649
634.46        33.03744
634.89        32.55204
635.32        32.09544
635.75        31.67866
636.18        31.26281
636.61        30.85387
637.04        30.47439
637.47         30.1197
637.89        29.77948
638.32        29.43081
638.75        29.06953
639.18        28.69811
639.61        28.32137
640.04        27.96374
640.47        27.65903
640.90        27.41341
641.33        27.22257
641.76         27.0591
642.18        26.88082
642.61        26.67369
643.04        26.45474
643.47        26.26791
643.90        26.18267
644.33        26.21048
644.76        26.32846
645.18        26.48142
645.61        26.57269
646.04        26.58484
646.47        26.55322
646.90        26.53339
647.33        26.60857
647.75        26.79167
648.18        27.08284
648.61        27.46538
649.04        27.79904
649.47          28.043
649.89        28.68086
650.32        28.93436
650.75         29.3039
651.18        29.58025
651.61        29.92279
652.03        30.37698
652.46        30.84506
652.89        31.34386
653.32        31.98639
653.74        32.75071
654.17        33.04276
654.60        33.48633
655.03        33.69683
655.46        34.19222
655.88        34.96448
656.31        36.84338
656.74        39.00156
657.16        38.68073
657.59        38.69497
658.02        37.73397
658.45        38.03226
658.87        38.26363
659.30        38.93817
659.73        38.87995
660.15        39.59754
660.58        39.76081
661.01        40.02741
661.44        40.16081
661.86        40.33169
662.29        40.52407
662.72        41.02905
663.14        41.07054
663.57        41.28496
664.00         41.4852
664.42         41.7765
664.85        42.17335
665.27        42.62855
665.70        43.05024
666.13         43.3469
666.55        43.49889
666.98         43.4882
667.41        43.38204
667.83        43.57401
668.26        43.64037
668.69         43.9096
669.11         44.2124
669.54        44.46436
669.96        44.63761
670.39        44.83989
670.82        45.06521
671.24        45.06683
671.67        44.98974
672.09        45.17846
672.52        45.60262
672.94        45.84751
673.37        45.88117
673.80        45.87415
674.22        45.88284
674.65        45.92836
675.07         46.0406
675.50        46.17933
675.92        46.32011
676.35        46.43588
676.77        46.51855
677.20        46.57327
677.62        46.62667
678.05        46.71892
678.47        46.85464
678.90         47.0315
679.32        47.23724
679.75        47.37137
680.17        47.40019
680.60        47.51667
681.02         47.7945
681.45        47.44461
681.87        47.85423
682.30        48.03913
682.72        48.28497
683.15        48.36768
683.57        48.31298
684.00        48.39235
684.42         48.6026
684.85        48.76133
685.27        48.86166
685.70        49.02702
686.12        49.21795
686.54        49.35825
686.97        49.44726
687.39        49.42812
687.82        49.31543
688.24        49.48919
688.66        49.63583
689.09        49.52819
689.51        49.63543
689.94        49.66693
690.36        49.79388
690.78        49.89062
691.21        49.97646
691.63        50.13448
692.06        50.33944
692.48        50.50087
692.90        50.58058
693.33         50.5929
693.75        50.52931
694.17        50.37326
694.60        50.23005
695.02          50.192
695.44        50.30627
695.87        50.78911
696.29        51.45033
696.71        51.48678
697.14        50.99754
697.56        50.90938
697.98        51.25351
698.41         51.4455
698.83        51.37743
699.25        51.55603
699.68        51.86185
700.10        51.99118
700.52        51.89412
700.94        51.67295
701.37        51.45281
701.79        51.43605
702.21        51.66004
702.64        52.04227
703.06        52.46172
703.48        52.70977
703.90        52.73072
704.33        52.59858
704.75        52.40174
705.17        52.26697
705.59        52.24025
706.01        52.30914
706.44        52.40892
706.86        52.57477
707.28        52.75939
707.70        53.01957
708.12        53.30084
708.55        53.39345
708.97        53.33442
709.39        53.38828
709.81        53.56081
710.23        53.64476
710.66        53.63438
711.08        53.67872
711.50        53.74693
711.92        53.73659
712.34        53.64758
712.76        53.52222
713.19        53.39857
713.61        53.36835
714.03        53.44225
714.45        53.59552
714.87        53.79975
715.29         54.0149
715.71        54.21575
716.13        54.39672
716.56        54.54148
716.98        54.66808
717.40        54.74031
717.82        54.81667
718.24        54.88083
718.66        54.59678
719.08        54.47843
719.50        54.17484
719.92        53.92424
720.34        53.84692
720.76         53.9717
721.19        54.23028
721.61        54.58506
722.03        54.93764
722.45        55.22866
722.87        55.47561
723.29        55.62527
723.71        55.54983
724.13        55.32915
724.55        54.94851
724.97        54.55584
725.39        54.28682
725.81        54.18391
726.23        54.32556
726.65         54.6971
727.07        54.65799
727.49        55.13211
727.91        55.35997
728.33        55.59676
728.75        55.76513
729.17        55.85772
729.59        55.85979
730.01        55.79846
730.43        55.77185
730.85        55.80103
731.27         55.8363
731.69        55.85614
732.10        55.89136
732.52        55.90276
732.94        55.76227
733.36         55.5325
733.78        55.40473
734.20        55.41264
734.62        55.54218
735.04        55.81416
735.46        55.74894
735.88        56.15396
736.30        56.28286
736.72        56.40721
737.13        56.68756
737.55        56.98646
737.97        57.14801
738.39        56.95847
738.81        56.55451
739.23        56.08355
739.65        56.15446
740.06        56.65469
740.48        56.93706
740.90        56.96045
741.32         56.8725
741.74        57.20008
742.16        57.31567
742.57        57.36193
742.99        57.37116
743.41        57.34273
743.83        57.25069
744.25        57.10156
744.67        56.90112
745.08        56.71434
745.50        56.66457
745.92        56.78114
746.34        56.95496
746.75        57.09018
747.17        57.35807
747.59        57.19168
748.01        57.09324
748.42        56.94339
748.84        56.84847
749.26        56.86013
749.68        56.85256
750.09        56.85551
750.51        57.22196
750.93        57.75333
751.35        57.64701
751.76         57.0089
752.18         56.7178
752.60         56.8319
753.01        56.85955
753.43        56.75837
753.85        56.71077
754.27        56.72188
754.68        56.76595
755.10        56.83447
755.52        56.90705
755.93        56.96013
756.35        56.98067
756.77        57.05379
757.18        57.15797
757.60        57.30781
758.02        57.77856
758.43        58.38281
758.85        57.71304
759.26        57.90322
759.68        56.74214
760.10        57.03726
760.51        57.43981
760.93        57.90681
761.34        57.79589
761.76        57.88148
762.18        57.71683
762.59        57.69499
763.01        57.71463
763.42        57.94988
763.84        58.14864
764.26        58.29184
764.67        58.16096
765.09        57.86557
765.50        57.93026
765.92        58.09595
766.33        57.97601
766.75        57.49242
767.16        57.29747
767.58        57.41588
768.00        57.38188
768.41        57.27069
768.83        57.64866
769.24        58.31586
769.66        58.45712
770.07        58.09834
770.49        57.75591
770.90        57.61176
771.32        57.91688
771.73        58.51799
772.15        58.71192
772.56        58.45649
772.97        58.08702
773.39        57.77707
773.80        57.79868
774.22        58.09897
774.63        58.29525
775.05        58.28058
775.46        58.28844
775.88        58.29273
776.29        58.19673
776.70        58.05503
777.12        58.02409
777.53         58.1395
777.95         58.3356
778.36        58.56923
778.77        58.71629
779.19         58.7581
779.60        58.75826
780.02        58.70058
780.43        58.62272
780.84        58.56412
781.26          58.281
781.67        57.93802
782.09        58.32553
782.50         59.2136
782.91        59.30758
783.33        58.66227
783.74        58.45529
784.15        58.71876
784.57        58.86214
784.98        58.86497
785.39        58.73109
785.81        58.60161
786.22        59.04802
786.63        59.88625
787.04         60.2469
787.46        60.05418
787.87        59.72491
788.28        59.45412
788.70        59.30068
789.11        59.29587
789.52        59.60439
789.93        60.02124
790.35        59.84895
790.76        59.21093
791.17         58.9674
791.58        59.20495
792.00        59.40081
792.41        59.47526
792.82        59.65079
793.23        59.83804
793.65        59.56834
794.06        59.03936
794.47        59.14798
794.88        59.77384
795.29         59.9452
795.71         59.5882
796.12        59.43383
796.53        59.51986
796.94        59.25484
797.35        58.80922
797.76        59.12021
798.18        60.00711
798.59        60.39215
799.00         60.1534
799.41        59.86333
799.82        59.65794
800.23        59.51995
800.64        59.50007
801.06        59.56268
801.47        59.68686
801.88        59.76283
802.29        59.75038
802.70        59.67344
803.11        59.54802
803.52        59.40139
803.93         59.2757
804.34        59.17994
804.75        59.12361
805.17        59.22669
805.58        59.54721
805.99        59.68193
806.40        59.69156
806.81        60.52759
807.22        61.77081
807.63        61.45531
808.04        59.86045
808.45        59.15151
808.86        59.50737
809.27        59.79761
809.68        59.84909
810.09        59.82664
810.50        59.72717
810.91        59.71323
811.32        59.85648
811.73        60.05514
812.14        60.30772
812.55        60.71038
812.96        61.12055
813.37        61.19852
813.78        60.88417
814.19        60.31901
814.60        59.68634
815.01        59.22287
815.42         58.9893
815.83        58.92092
816.24         58.9867
816.65        59.12077
817.05        59.28743
817.46        59.48426
817.87         59.6883
818.28        59.82021
818.69        59.86802
819.10        59.82788
819.51        59.77153
819.92        59.84419
820.33        60.07178
820.74        60.39977
821.14        60.72895
821.55        60.89631
821.96        60.86237
822.37        60.68289
822.78        60.42337
823.19        60.19378
823.60         60.0441
824.00        59.97154
824.41        59.93612
824.82        59.95993
825.23        60.02922
825.64        60.14008
826.04        60.28098
826.45        60.39196
826.86        60.46741
827.27        60.52623
827.68        60.53715
828.08         60.4799
828.49        60.31408
828.90        60.05688
829.31        59.82891
829.72        59.82999
830.12        60.11539
830.53        60.58868
830.94        61.05286
831.35        61.12191
831.75         60.7258
832.16        59.97369
832.57        59.15594
832.97        58.71413
833.38        58.76178
833.79        59.14417
834.20        59.68977
834.60        60.12469
835.01        60.36002
835.42        60.51801
835.82        60.61334
836.23         60.5994
836.64        60.51707
837.04        60.32575
837.45        60.19132
837.86        60.45558
838.26        61.17878
838.67        62.22759
839.08        63.23405
839.48        63.49471
839.89        62.84786
840.29        61.56431
840.70        60.19742
841.11         59.3796
841.51        59.27709
841.92        59.67942
842.33        60.40085
842.73        61.10218
843.14        61.53805
843.54        61.85333
843.95        62.04599
844.35        62.16373
844.76        62.21265
845.17        62.14186
845.57        61.98999
845.98        61.82317
846.38        61.68436
846.79        61.57083
847.19        61.46667
847.60        61.31235
848.00        61.10777
848.41        60.85288
848.81        60.61549
849.22        60.43073
849.62        60.34967
850.03        60.35669
850.43        60.40699
850.84        60.36623
851.24        60.24834
851.65        60.03519
852.05        59.91335
852.46        60.10954
852.86        60.64324
853.27        61.39295
853.67        62.06914
854.07        62.38465
854.48        62.26772
854.88        61.83549
855.29        61.20379
855.69        60.70551
856.10        60.41085
856.50        60.30955
856.90        60.32294
857.31        60.32759
857.71        60.32593
858.12        60.30845
858.52        60.33265
858.92        60.37952
859.33         60.4268
859.73        60.49807
860.13        60.51968
860.54        60.40514
860.94        60.18555
861.34        59.88208
861.75        59.59766
862.15        59.53731
862.55        59.72336
862.96        60.06011
863.36        60.47519
863.76         60.7668
864.17        60.85066
864.57        60.81267
864.97         60.6233
865.38        60.24938
865.78        59.74559
866.18         59.1208
866.58        58.54911
866.99         58.3399
867.39        58.58171
867.79        59.17749
868.19        59.91382
868.60        60.43673
869.00        60.67254
869.40        60.67788
869.80        60.54716
870.21        60.47353
870.61        60.57393
871.01        60.73359
871.41        60.83638
871.81        60.72578
872.22        60.37749
872.62        59.85601
873.02        59.32058
873.42        59.02637
873.82        59.04238
874.22        59.28601
874.63        59.58355
875.03        59.67962
875.43        59.49135
875.83        59.10108
876.23        58.64413
876.63        58.32769
877.03        58.21795
877.44        58.23631
877.84        58.31326
878.24        58.37104
878.64        58.33226
879.04        58.06288
879.44        57.75422
879.84        57.82716
880.24        58.30001
880.64        58.98543
881.04        59.56795
881.44        59.56936
881.84        58.89991
882.24        57.74816
882.65        56.50481
883.05         55.7688
883.45        55.70813
883.85        56.16403
884.25        56.90027
884.65        57.49781
885.05        57.80028
885.45        57.91799
885.85        57.95213
886.25        58.06031
886.65        58.28363
887.05        58.53991
887.45        58.74795
887.85        58.80228
888.25        58.67673
888.65         58.4229
889.04        58.12586
889.44        57.92976
889.84         57.8606
890.24        57.88595
890.64        57.93411
891.04        57.88809
891.44         57.7235
891.84        57.48689
892.24        57.25239
892.64        57.12177
893.04        57.12392
893.44        57.23876
893.83        57.42328
894.23        57.55764
894.63        57.62888
895.03        57.64973
895.43        57.69546
895.83        57.89519
896.23        58.25031
896.63        58.68586
897.02        59.05002
897.42        59.13216
897.82        58.89306
898.22        58.44629
898.62        57.90598
899.01         57.4325
899.41        57.10529
899.81        56.86803
900.21        56.78195
900.61        56.94032
901.00        57.32711
901.40        57.90779
901.80         58.4831
902.20        58.72583
902.59        58.57476
902.99        58.10548
903.39         57.5299
903.79        57.21134
904.18          57.231
904.58        57.46946
904.98        57.79147
905.38        57.99115
905.77        58.01721
906.17        57.98584
906.57        57.87642
906.96        57.65178
907.36        57.33076
907.76        56.91582
908.15        56.64705
908.55        56.89374
908.95        57.69891
909.34        58.94525
909.74        60.18914
910.14          60.769
910.53         60.4944
910.93        59.59292
911.33        58.41538
911.72        57.50684
912.12        57.10239
912.52        57.06231
912.91        57.24965
913.31        57.46561
913.70        57.63858
914.10        57.79514
914.49        58.05813
914.89        58.54024
915.29        59.24424
915.68        60.09339
916.08        60.75027
916.47        60.74914
916.87        60.04438
917.26         58.8109
917.66        57.54742
918.05        56.85558
918.45        56.87559
918.84        57.48289
919.24        58.32994
919.64        58.91153
920.03        59.05821
920.42         58.8718
920.82        58.62349
921.21        58.68509
921.61        59.12888
922.00        59.85738
922.40        60.55372
922.79        60.81426
923.19        60.51064
923.58        59.81757
923.98         59.0759
924.37        58.72082
924.77        58.85649
925.16        59.31016
925.55        59.85093
925.95        60.06262
926.34        59.83744
926.74        59.30855
927.13        58.62023
927.52        57.92966
927.92        57.37141
928.31        56.90079
928.70        56.59582
929.10        56.55188
929.49        56.75316
929.89        57.12378
930.28        57.66597
930.67        58.26417
931.07        58.81563
931.46        59.38394
931.85          59.735
932.24        59.56108
932.64        58.88645
933.03        57.79594
933.42        56.75337
933.82        56.42778
934.21          56.943
934.60         58.1545
934.99        59.58858
935.39        60.37197
935.78        60.28008
936.17        59.47877
936.56        58.41974
936.96        57.82148
937.35        57.86288
937.74         58.3116
938.13        58.79276
938.53        58.74389
938.92        58.05886
939.31         57.0005
939.70        55.89652
940.09        55.17854
940.49        54.93812
940.88        55.05891
941.27        55.43933
941.66        55.88995
942.05          56.311
942.44         56.7606
942.84        57.19651
943.23        57.53467
943.62        57.76665
944.01        57.85813
944.40        57.88338
944.79        58.01055
945.18        58.24788
945.57        58.51405
945.97        58.65088
946.36         58.4848
946.75        57.95716
947.14        57.23274
947.53        56.40054
947.92        55.54953
948.31        54.75619
948.70        54.01055
949.09        53.52688
949.48        53.66537
949.87        54.46816
950.26        55.80385
950.65        57.27389
951.04        58.21374
951.43        58.40649
951.82        57.98061
952.21        57.21665
952.60        56.60659
952.99        56.33716
953.38        56.32909
953.77        56.42115
954.16        56.35769
954.55        56.07726
954.94        55.63835
955.33        55.33222
955.72        55.62855
956.11        56.59859
956.50        58.09144
956.89        59.48616
957.28         59.7601
957.66        58.70895
958.05         56.7233
958.44        54.61179
958.83        53.53627
959.22        53.73476
959.61        54.88203
960.00         56.3977
960.39        57.18934
960.78        56.90588
961.16        55.91593
961.55        54.74126
961.94        54.05711
962.33        54.04998
962.72        54.50966
963.11        55.21296
963.49        55.77934
963.88        55.98208
964.27        55.95579
964.66        55.90448
965.04        56.14649
965.43        56.70191
965.82        57.49393
966.21        58.21323
966.60        58.30281
966.98        57.61082
967.37         56.4046
967.76        55.16455
968.15        54.47687
968.53        54.46145
968.92        54.99251
969.31        55.73177
969.69        56.01689
970.08        55.59164
970.47        54.68598
970.86        53.82602
971.24        53.75645
971.63        54.60196
972.02        56.13998
972.40        57.82195
972.79        58.35022
973.17        57.42823
973.56         55.5539
973.95        53.48549
974.33        52.16941
974.72        51.82327
975.11        52.14747
975.49          52.933
975.88        53.73094
976.26        54.34337
976.65        54.84672
977.04        55.20958
977.42        55.34482
977.81         55.2345
978.19        54.86933
978.58        54.45869
978.96        54.33357
979.35        54.56629
979.74         55.0946
980.12        55.85489
980.51        56.48673
980.89         56.9605
981.28        57.31252
981.66        57.57932
982.05        57.79212
982.43        57.99207
982.82        58.12294
983.20        58.33453
983.59        58.83022
983.97        59.70054
984.35        60.86578
984.74        61.91685
985.12        62.39511
985.51        62.12011
985.89        61.26608
986.28        60.28982
986.66        59.79958
987.04        60.00491
987.43        60.71369
987.81         61.6069
988.20        61.97853
988.58         61.6124
988.96        60.64398
989.35        59.46272
989.73        58.60709
990.12        58.19153
990.50        58.14979
990.88        58.06818
991.27        57.27497
991.65        55.72155
992.03        53.71421
992.42        52.04759
992.80        51.78966
993.18        53.10264
993.56        55.68026
993.95        58.60304
994.33        60.20946
994.71        59.83378
995.10        58.10144
995.48        55.88587
995.86        54.55958
996.24        54.48544
996.63          55.112
997.01        56.37108
997.39        57.78148
997.77        58.97019
998.15        60.17399
998.54        60.88802
998.92        60.22405
999.30         58.3017
999.68        55.45688
1000.06        52.83302
1000.45        52.08985
1000.83         53.6446
1001.21        57.14901
1001.59        61.69714
1001.97        64.92271
1002.35        65.77517
1002.73         64.9603
1003.12        63.42979
1003.50        62.37107
1003.88        62.24644
1004.26        62.46853
1004.64        63.21134
1005.02        64.81599
1005.40        67.08396
1005.78        70.00957
1006.16        72.27396
1006.54        71.76072
1006.92        68.37304
1007.30         62.9864
1007.69        57.53355
1008.07        54.58693
1008.45        54.88842
1008.83        57.81556
1009.21        62.38607
1009.59        65.98769
1009.97        67.14364
1010.35        66.51236
1010.73        64.58775
1011.11        62.16222
1011.49        59.77032
1011.86        57.29094
1012.24        55.16155
1012.62        53.98149
1013.00        53.80048
1013.38        54.53001
1013.76         56.0183
1014.14        57.62104
1014.52        58.86778
1014.90        59.78785
1015.28        60.17376
1015.66        59.87276
1016.04        58.96164
1016.41        57.44867
1016.79        55.78817
1017.17        54.93932
1017.55        55.17495
1017.93        56.24447
1018.31        57.64987
1018.69          58.653
1019.06        59.08508
1019.44        59.14595
1019.82        58.96883
1020.20        58.87438
1020.58        58.94917
1020.95        58.89357
1021.33        58.82208
1021.71        58.79544
1022.09        58.83926
1022.46        59.17945
1022.84        59.38772
1023.22        58.58056
1023.60        56.68826
1023.97        53.96724
1024.35          51.962
1024.73        52.31363
