SpectraSmart Spectrum 2.9.0.0
--------- Device Information -----------
Spectrum Name :  反射率_0
Saving Time :  2024/04/27 00:19:56
Spectro-Module Model Name : SE2030-DUVN
Spectro-Module Serial Number : OS361AC55029948
Wavelength Start : 200
Wavelength End : 1025
Wavelength Unit : Wavelength(nm)
Spectrum Unit : Reflectance(%)
-----------Spectrum Setting ------------
Integration Time : 20ms
Average : 10
Boxcar : 0
Background removal :  enabled
linearity correction :  enabled
SC :  disabled
Intensity correction :  disabled
DWT denoise :  enabled
savitzky-golay :  disabled
FFT :  disabled
Running average :  disabled
Kalman :  disabled
High pass :  disabled
---------------BEGIN--------------------
Wavelength(nm)             Reflectance(%)
200.29               0
200.75         32.8638
201.21        33.56402
201.67        34.62976
202.13        35.61256
202.58        36.43497
203.04        37.82781
203.50        40.05003
203.96        42.84491
204.42        45.76124
204.88         48.2581
205.34        49.96502
205.80        50.94766
206.26         51.1231
206.72        50.35297
207.18        48.92577
207.64        46.83733
208.10        43.94103
208.55        40.22815
209.01        35.24567
209.47        31.66562
209.93        31.91898
210.39          34.524
210.85        37.89837
211.31        42.16023
211.77        48.93797
212.23        62.70631
212.69        96.25653
213.14        154.9512
213.60        156.4314
214.06        117.6094
214.52        89.69224
214.98        75.67749
215.44        67.87099
215.90        61.70235
216.36        57.04039
216.81        54.51603
217.27        54.72104
217.73        58.95773
218.19        67.24483
218.65        73.67551
219.11        74.39139
219.57        71.78604
220.02        70.63805
220.48        75.57767
220.94        87.34652
221.40        107.4918
221.86        136.0593
222.32        156.1899
222.77        151.5079
223.23         133.228
223.69        113.4051
224.15        98.73731
224.61        89.08528
225.06        82.06094
225.52        78.09039
225.98        77.26786
226.44        79.08021
226.90        83.19332
227.36        88.40752
227.81        92.31982
228.27        94.25217
228.73        94.50569
229.19        94.18284
229.65        94.80171
230.10        96.42961
230.56        98.58389
231.02        100.1342
231.48        99.43195
231.93        96.41248
232.39        92.50105
232.85        88.79577
233.31        86.69352
233.77        86.32737
234.22        87.10108
234.68        88.64403
235.14        90.50467
235.60        92.39827
236.05        94.60474
236.51        96.32625
236.97        96.17738
237.43        93.75467
237.88        89.34933
238.34        84.31154
238.80        81.27232
239.26        81.13298
239.71        84.26094
240.17        89.57423
240.63        94.01741
241.08        95.65173
241.54        94.10133
242.00        91.77409
242.46        93.91372
242.91        104.2129
243.37        124.0367
243.83        153.9739
244.28         180.186
244.74         181.241
245.20        157.0472
245.66        125.2897
246.11        101.2123
246.57        85.77483
247.03        74.68468
247.48        66.04958
247.94        59.01407
248.40        54.39573
248.85        52.27824
249.31        52.08092
249.77        52.83977
250.22        54.25288
250.68        56.54698
251.14        59.57755
251.59        62.18578
252.05         63.7146
252.51        64.66069
252.96         65.0964
253.42         65.8176
253.88        66.85168
254.33        67.42269
254.79        69.12482
255.25        73.10012
255.70        78.97716
256.16        86.40281
256.62        92.29474
257.07        91.98768
257.53        87.30477
257.99        81.36761
258.44         76.6664
258.90        75.67619
259.35        77.18654
259.81        80.29473
260.27         83.4836
260.72        84.91919
261.18        84.74756
261.63        83.38881
262.09        82.05833
262.55        81.35915
263.00        81.16992
263.46        81.38069
263.91        81.28622
264.37        80.49578
264.83        78.97742
265.28        77.00934
265.74        75.27329
266.19        74.15697
266.65        73.80303
267.11        73.87562
267.56        74.09763
268.02         74.0582
268.47         73.6061
268.93        72.93361
269.38         72.0167
269.84        70.90949
270.30        69.65476
270.75        68.22434
271.21        66.88992
271.66        65.98068
272.12        65.54613
272.57        65.43889
273.03        65.35388
273.48        64.75593
273.94        63.61811
274.39        62.08531
274.85        60.51665
275.31        59.19889
275.76        58.17397
276.22        57.39643
276.67        56.72691
277.13        56.13926
277.58        55.50862
278.04        54.89628
278.49         54.2009
278.95        53.44289
279.40        52.55563
279.86        51.65882
280.31        50.67839
280.77        49.68855
281.22        48.66043
281.68        47.69608
282.13        46.83717
282.59        46.28333
283.04        45.97731
283.50        45.87822
283.95        45.82115
284.41        45.58595
284.86        45.10712
285.32        44.49343
285.77        43.81582
286.22        43.26707
286.68        42.88375
287.13        42.55897
287.59        42.26265
288.04        41.88324
288.50        41.43789
288.95        40.93981
289.41        40.44204
289.86        39.91598
290.32        39.42245
290.77        38.94184
291.22        38.54184
291.68        38.30239
292.13        38.21478
292.59        38.27289
293.04        38.42059
293.50        38.59732
293.95        38.76701
294.40        38.94753
294.86        39.15249
295.31        39.39267
295.77        39.68257
296.22        39.99944
296.68        40.34837
297.13        40.71769
297.58        41.11118
298.04        41.53217
298.49        41.97416
298.95        42.44762
299.40        42.93779
299.85        43.44269
300.31        43.94547
300.76        44.40263
301.21        44.81034
301.67        45.18806
302.12        45.53133
302.58        45.91136
303.03        46.29886
303.48        46.69229
303.94        47.06776
304.39        47.34056
304.84         47.5165
305.30        47.63385
305.75        47.69755
306.20         47.7844
306.66        47.92295
307.11        48.07153
307.57        48.22261
308.02         48.2972
308.47        48.29826
308.93         48.2587
309.38        48.19451
309.83        48.19126
310.29        48.26242
310.74        48.37334
311.19        48.46872
311.65        48.45407
312.10        48.30231
312.55        48.04416
313.00        47.75411
313.46        47.54027
313.91        47.41105
314.36        47.34896
314.82        47.28296
315.27        47.11483
315.72        46.81953
316.18        46.44265
316.63        46.05341
317.08         45.7765
317.53        45.63531
317.99        45.58529
318.44        45.54851
318.89        45.38591
319.35        45.06404
319.80        44.62447
320.25        44.15384
320.70         43.7906
321.16        43.56621
321.61        43.45533
322.06        43.36894
322.51        43.16554
322.97        42.80752
323.42         42.3464
323.87        41.88654
324.32        41.60168
324.78        41.51379
325.23        41.58962
325.68        41.68221
326.13        41.55737
326.59        41.15784
327.04        40.57548
327.49        39.95151
327.94        39.51038
328.39         39.3055
328.85        39.25078
329.30        39.28755
329.75        39.23107
330.20        39.02626
330.66        38.72935
331.11        38.41664
331.56        38.17259
332.01        38.02567
332.46        37.93191
332.92        37.85376
333.37        37.79701
333.82        37.72851
334.27         37.6632
334.72        37.57984
335.17        37.43692
335.63        37.22794
336.08        36.98336
336.53        36.74651
336.98        36.60571
337.43        36.58039
337.88        36.63746
338.34        36.72596
338.79        36.79725
339.24        36.80533
339.69        36.76253
340.14        36.65435
340.59        36.46149
341.05        36.20686
341.50        35.90787
341.95        35.61328
342.40        35.39544
342.85        35.27747
343.30        35.23818
343.75        35.27887
344.20        35.39793
344.66        35.57751
345.11        35.80281
345.56        36.00177
346.01        36.06575
346.46        35.97931
346.91        35.77725
347.36        35.53426
347.81        35.37609
348.26        35.33244
348.72        35.36085
349.17        35.42315
349.62        35.47025
350.07         35.4812
350.52        35.48632
350.97        35.44667
351.42        35.29845
351.87        35.04655
352.32        34.70879
352.77        34.39805
353.22        34.28336
353.67         34.3862
354.13        34.65657
354.58        34.95073
355.03        35.02354
355.48        34.81802
355.93        34.41441
356.38        33.96491
356.83        33.69966
357.28        33.66776
357.73        33.78817
358.18        33.94939
358.63        33.97241
359.08        33.80538
359.53        33.51296
359.98        33.16035
360.43        32.83773
360.88        32.57245
361.33        32.33177
361.78        32.09954
362.23        31.85753
362.68        31.60372
363.13         31.3587
363.58        31.12655
364.03         30.9031
364.48        30.68863
364.93        30.47985
365.38         30.2882
365.83        30.13676
366.28        30.02606
366.73        29.94336
367.18        29.86261
367.63        29.74409
368.08        29.57627
368.53         29.3699
368.98        29.14006
369.43        28.91073
369.88        28.69345
370.33        28.48704
370.78        28.29152
371.23        28.10784
371.68        27.93816
372.13         27.7833
372.58        27.65375
373.03        27.56228
373.48        27.50348
373.93        27.46612
374.38         27.4152
374.83        27.29908
375.28        27.10789
375.72        26.85122
376.17         26.5833
376.62        26.35311
377.07        26.17786
377.52        26.04923
377.97        25.94421
378.42        25.82799
378.87        25.69095
379.32        25.53723
379.77        25.39974
380.22        25.32346
380.67        25.30926
381.11        25.35142
381.56        25.36436
382.01        25.23598
382.46        24.95709
382.91        24.57991
383.36        24.22113
383.81        24.03992
384.26        24.05713
384.71        24.21873
385.15        24.42497
385.60        24.50839
386.05        24.42153
386.50        24.21918
386.95        23.97042
387.40        23.78375
387.85        23.69005
388.29        23.63436
388.74        23.61677
389.19        23.58455
389.64        23.52244
390.09        23.44422
390.54        23.35255
390.98        23.24237
391.43        23.13401
391.88        23.02947
392.33        22.93063
392.78        22.84141
393.23        22.76349
393.67        22.68242
394.12         22.6355
394.57        22.63244
395.02        22.66901
395.47         22.7313
395.91        22.78472
396.36        22.75912
396.81        22.65618
397.26         22.5053
397.71        22.34312
398.15         22.2383
398.60        22.22874
399.05        22.19452
399.50        22.14674
399.95        22.26586
400.39        22.47276
400.84        22.37742
401.29        22.00783
401.74        21.75914
402.18        21.66789
402.63        21.50457
403.08        21.31903
403.53        21.28457
403.97        21.40732
404.42        21.63654
404.87        21.87646
405.32        21.96883
405.76        21.87483
406.21        21.65429
406.66        21.39357
407.11        21.23153
407.55        21.21072
408.00          21.279
408.45        21.38708
408.90        21.43663
409.34        21.39348
409.79        21.29821
410.24        21.18449
410.68        21.08802
411.13        21.02657
411.58        20.98367
412.03        20.94785
412.47        20.90911
412.92        20.85775
413.37          20.805
413.81        20.76115
414.26        20.75701
414.71        20.78739
415.15        20.85058
415.60        20.90874
416.05        20.91713
416.49        20.86769
416.94        20.77302
417.39        20.67521
417.83        20.63717
418.28        20.67186
418.73        20.75668
419.17         20.8601
419.62        20.93123
420.07        20.95328
420.51        20.93615
420.96        20.89615
421.41        20.85333
421.85        20.80918
422.30        20.75157
422.74        20.67337
423.19        20.65863
423.64        20.67567
424.08        20.59792
424.53        20.44606
424.98        20.41227
425.42        20.52226
425.87        20.62683
426.31        20.68943
426.76        20.80429
427.21        20.89644
427.65        20.69116
428.10        20.30982
428.54        20.15562
428.99        20.27044
429.44        20.52236
429.88        20.78495
430.33        20.78333
430.77        20.55979
431.22        20.53863
431.66        20.71586
432.11        20.76134
432.56         20.6899
433.00         20.6774
433.45        20.66593
433.89        20.66077
434.34         20.6977
434.78        20.13727
435.23        20.20894
435.67        20.14108
436.12        20.24278
436.57         20.2671
437.01        20.20312
437.46         20.1788
437.90         20.1803
438.35        20.11893
438.79        20.01872
439.24         19.9847
439.68         20.0275
440.13        20.11922
440.57        20.22626
441.02        20.31065
441.46        20.35333
441.91        20.31329
442.35        20.22097
442.80        20.31962
443.24        20.52938
443.69        20.49193
444.13        20.24012
444.58        20.14774
445.02        20.22885
445.47        20.28306
445.91        20.29326
446.36        20.33125
446.80         20.3849
447.24        20.43113
447.69        20.46523
448.13        20.47214
448.58         20.4531
449.02        20.41223
449.47        20.35256
449.91        20.26744
450.36        20.17019
450.80        20.06508
451.25        19.97965
451.69         19.9411
452.13         19.9551
452.58        20.00477
453.02        20.06902
453.47        20.11615
453.91        20.13289
454.36        20.13135
454.80        20.09746
455.24        20.01009
455.69        19.88173
456.13         19.7108
456.58        19.56222
457.02        19.50186
457.46        19.54771
457.91        19.67574
458.35        19.81493
458.79        19.85646
459.24        19.79372
459.68        19.65117
460.13        19.50743
460.57        19.43176
461.01        19.45673
461.46        19.53883
461.90         19.6578
462.34        19.76495
462.79        19.83344
463.23        19.88588
463.68        19.89986
464.12        19.85113
464.56        19.74067
465.01        19.60218
465.45        19.45343
465.89        19.37295
466.34        19.37001
466.78        19.42121
467.22        19.49954
467.67        19.53733
468.11         19.5253
468.55        19.47224
468.99        19.40532
469.44        19.36549
469.88        19.36618
470.32        19.39511
470.77        19.43101
471.21        19.44366
471.65        19.42575
472.10        19.39273
472.54        19.36642
472.98        19.38683
473.42        19.45857
473.87        19.56779
474.31        19.67496
474.75        19.74048
475.20        19.75797
475.64        19.73342
476.08        19.68912
476.52        19.64833
476.97        19.62081
477.41        19.61234
477.85        19.62525
478.29        19.63068
478.74        19.64211
479.18        19.72634
479.62        19.83919
480.06        19.93247
480.50         19.9922
480.95        20.02462
481.39        20.01946
481.83         20.1522
482.27        20.13202
482.72        20.21019
483.16        20.30165
483.60        20.35142
484.04        20.33852
484.48        20.41371
484.93        20.65339
485.37        20.49644
485.81        20.64956
486.25         21.0509
486.69        21.33769
487.14        21.16797
487.58        21.39869
488.02        21.35018
488.46        21.14632
488.90        20.90074
489.34        21.13039
489.79        21.30536
490.23        21.50909
490.67        21.68743
491.11        21.81993
491.55        21.87151
491.99        21.87218
492.43        21.92482
492.88        22.04535
493.32         22.1827
493.76        22.32259
494.20        22.46873
494.64        22.61806
495.08        22.75229
495.52        22.86075
495.96        22.99918
496.41        23.14433
496.85        23.13266
497.29        23.00595
497.73        23.16611
498.17        23.30913
498.61        23.54163
499.05        23.72178
499.49        23.85702
499.93        23.88984
500.37        24.06039
500.82        24.32564
501.26        24.50113
501.70        24.57168
502.14        24.63833
502.58        24.73192
503.02        24.85353
503.46        25.00816
503.90        25.19327
504.34        25.36527
504.78        25.45218
505.22         25.4408
505.66        25.35565
506.10        25.25069
506.54        25.21226
506.98        25.26293
507.42        25.37737
507.86        25.52091
508.30        25.63473
508.74        25.69993
509.18        25.73642
509.62        25.75744
510.06        25.78377
510.50        25.82328
510.94        25.86447
511.38         25.9104
511.82        25.96887
512.26        26.03893
512.70        26.12125
513.14        26.20049
513.58        26.24955
514.02        26.26425
514.46        26.25221
514.90         26.2348
515.34        26.24806
515.78        26.29831
516.22        26.37068
516.66        26.44514
517.10        26.48937
517.54        26.49436
517.98        26.47359
518.42        26.43207
518.86        26.37746
519.30        26.31779
519.74        26.25173
520.18        26.19758
520.62        26.18353
521.06        26.21298
521.50        26.27878
521.93        26.35433
522.37        26.38498
522.81        26.36074
523.25        26.29348
523.69         26.2103
524.13        26.15524
524.57        26.13733
525.01        26.14086
525.45        26.14302
525.89        26.10751
526.32        26.02461
526.76        25.91761
527.20        25.80259
527.64         25.7055
528.08        25.63433
528.52        25.57795
528.96        25.53671
529.40        25.51148
529.83        25.49718
530.27        25.49653
530.71        25.48707
531.15        25.43526
531.59        25.33769
532.03        25.20372
532.46        25.06367
532.90        24.98395
533.34        24.97233
533.78        24.99617
534.22        25.02251
534.66        25.02984
535.09           24.99
535.53        24.86547
535.97        24.69456
536.41        24.60175
536.85         24.6047
537.28        24.64138
537.72        24.70436
538.16        24.80026
538.60        24.91586
539.04        25.04865
539.47        25.16086
539.91        25.21036
540.35        25.18892
540.79        25.11397
541.22        25.03308
541.66        25.03242
542.10        25.12849
542.54        25.29695
542.97        25.49477
543.41        25.66279
543.85        25.78056
544.29        25.87158
544.72        25.95027
545.16        26.05644
545.60        26.19529
546.04        26.35357
546.47        26.53203
546.91        26.72904
547.35        26.93476
547.79        27.14982
548.22        27.35171
548.66        27.49878
549.10         27.6195
549.53        27.71583
549.97        27.81664
550.41        27.89177
550.84        27.97836
551.28         28.1709
551.72         28.4392
552.15        28.61396
552.59        28.93937
553.03         28.8252
553.46        29.20806
553.90        29.31532
554.34        29.40127
554.77        29.53491
555.21        29.61079
555.65        29.74165
556.08        29.88002
556.52        30.00874
556.96        30.11288
557.39        30.25301
557.83          30.404
558.27        30.39598
558.70        30.26629
559.14        30.25735
559.57        30.36554
560.01        30.43697
560.45        30.47219
560.88        30.56701
561.32         30.7341
561.75         30.9101
562.19        31.08149
562.63         31.2213
563.06        31.31517
563.50        31.37577
563.93        31.39194
564.37        31.42869
564.80        31.50861
565.24        31.54406
565.68        31.47601
566.11        31.89586
566.55        31.66009
566.98        31.72438
567.42        31.81021
567.85         31.9758
568.29        32.23306
568.72        32.58218
569.16        33.00374
569.60        33.26651
570.03        33.46903
570.47        33.62963
570.90         33.8197
571.34        33.72541
571.77        34.06392
572.21        34.25776
572.64         34.4186
573.08        34.66997
573.51        34.51073
573.95        34.65076
574.38        34.95489
574.82        35.28726
575.25        35.16245
575.69         35.1777
576.12        35.13305
576.56        35.09071
576.99        35.10744
577.42         35.3548
577.86         35.1711
578.29        35.89138
578.73        35.82941
579.16        35.72715
579.60         35.1952
580.03        35.09399
580.47         35.0067
580.90        35.26441
581.33        35.36445
581.77        35.12152
582.20        35.22765
582.64        35.24978
583.07        34.84665
583.51        34.53303
583.94        34.27992
584.37        34.16703
584.81        34.21416
585.24        34.13842
585.68         33.9172
586.11        33.93867
586.54        33.74099
586.98        33.40794
587.41        33.28051
587.85        33.33169
588.28        33.14703
588.71        33.21004
589.15        33.10839
589.58        33.09171
590.01        33.15612
590.45        33.14193
590.88        33.07038
591.31        32.96961
591.75        32.93353
592.18        32.84493
592.61        32.70557
593.05         33.3987
593.48        33.77531
593.91        33.51199
594.35        33.61522
594.78        33.41973
595.21        33.36703
595.65        33.63423
596.08        34.26913
596.51         34.2117
596.94        34.18401
597.38        34.21082
597.81        34.52042
598.24        34.82398
598.68         34.9697
599.11        35.19847
599.54        36.10828
599.97        36.18946
600.41        36.43604
600.84        36.45248
601.27        36.99926
601.70        37.40962
602.14        37.80154
602.57         38.0608
603.00        38.32441
603.43        38.49484
603.87        39.59865
604.30        40.10033
604.73        40.21907
605.16        40.21546
605.60        40.74734
606.03        40.99214
606.46        41.08661
606.89        41.77051
607.32        42.31488
607.76        42.65114
608.19        43.17726
608.62        43.48003
609.05        43.84903
609.48        44.19529
609.92        45.05731
610.35        45.29717
610.78        45.12463
611.21        45.14529
611.64        45.65926
612.07        46.08344
612.50        46.21416
612.94         46.4801
613.37        46.80192
613.80        46.91065
614.23        46.83001
614.66        47.14819
615.09        47.84033
615.52        48.30981
615.96        48.41713
616.39        48.92484
616.82        49.15476
617.25        48.80051
617.68        49.36383
618.11        49.59304
618.54        49.78646
618.97         49.9915
619.40        50.18447
619.84        50.32581
620.27        50.40405
620.70        50.57948
621.13        50.81461
621.56        50.43684
621.99        49.91337
622.42        50.06152
622.85        50.54025
623.28        50.63222
623.71         50.5673
624.14        50.83095
624.57        50.99437
625.00        51.00761
625.43        50.93051
625.86        50.74442
626.29        50.59221
626.72         50.2013
627.15        50.27045
627.58        50.22137
628.01         50.1694
628.44        50.03505
628.87        49.81112
629.30        49.40907
629.73        48.86636
630.16        48.87334
630.59        48.47278
631.02        48.40536
631.45        48.31858
631.88        48.14164
632.31         47.8358
632.74        47.43943
633.17        46.98724
633.60        46.50846
634.03        46.02786
634.46        45.53658
634.89        45.04514
635.32        44.58202
635.75        44.15612
636.18        43.72015
636.61        43.29153
637.04        42.91413
637.47        42.58078
637.89        42.28401
638.32         41.9845
638.75        41.62045
639.18        41.18032
639.61        40.85535
640.04        40.38189
640.47        40.06719
640.90        39.83477
641.33        39.68054
641.76        39.56484
642.18         39.4328
642.61        39.26137
643.04        39.06711
643.47         38.8977
643.90        38.82858
644.33        38.87201
644.76         39.0043
645.18        39.16135
645.61        39.22893
646.04        39.19353
646.47        39.10165
646.90         39.0339
647.33         39.1132
647.75        39.35406
648.18        39.74247
648.61        40.24677
649.04        40.67193
649.47        40.93319
649.89        41.69876
650.32        41.86416
650.75        42.17425
651.18        42.40415
651.61        42.95987
652.03        43.80016
652.46        44.48741
652.89        44.96372
653.32        45.34948
653.74        45.82399
654.17        45.97087
654.60         46.7627
655.03        47.02745
655.46        47.12881
655.88        47.55139
656.31        50.74991
656.74        54.62613
657.16        53.83514
657.59        52.77138
658.02        50.71851
658.45        51.44249
658.87        51.39947
659.30        51.60556
659.73        51.52963
660.15         52.7851
660.58        52.64448
661.01        52.78086
661.44        52.55049
661.86        52.58497
662.29        52.84918
662.72         53.5926
663.14        53.72226
663.57        53.88207
664.00        53.88525
664.42        54.16287
664.85        54.73308
665.27         55.4347
665.70        55.89291
666.13          56.233
666.55        56.35535
666.98        56.22377
667.41        55.92739
667.83        55.99004
668.26        55.88518
668.69        56.03403
669.11        56.25945
669.54        56.54499
669.96        56.87196
670.39        57.26605
670.82        57.65975
671.24        57.88771
671.67        57.94672
672.09         57.8895
672.52        57.82185
672.94         57.9357
673.37        58.20339
673.80        58.32576
674.22        58.31287
674.65        58.39368
675.07        58.58378
675.50        58.72149
675.92        58.79688
676.35        58.86408
676.77         58.9281
677.20        58.96665
677.62        59.01658
678.05        59.14109
678.47        59.34336
678.90        59.60626
679.32        59.87046
679.75        60.05131
680.17        60.12591
680.60        60.12525
681.02        60.09555
681.45        60.11604
681.87        60.22483
682.30        60.36275
682.72        60.52342
683.15        60.73428
683.57        60.95356
684.00        61.00893
684.42        60.97401
684.85        61.09945
685.27         61.3886
685.70        61.83091
686.12        62.09755
686.54        62.28074
686.97        62.29905
687.39        62.12244
687.82        61.83391
688.24        61.81412
688.66         62.0972
689.09        61.90521
689.51         62.1119
689.94        62.20417
690.36        62.42983
690.78        62.54542
691.21        62.58186
691.63        62.77291
692.06        63.06743
692.48        63.18468
692.90        63.11826
693.33         63.1017
693.75        63.14155
694.17        63.06992
694.60        62.97479
695.02        63.04486
695.44        63.26678
695.87        63.67876
696.29        64.12772
696.71        63.95519
697.14        63.33653
697.56        63.30348
697.98        63.83187
698.41        64.05115
698.83        63.93596
699.25        64.04708
699.68        64.31937
700.10        64.43448
700.52        64.34902
700.94        64.16539
701.37        63.99718
701.79        64.03319
702.21        64.30322
702.64        64.72485
703.06        65.17379
703.48        65.43435
703.90        65.44949
704.33        65.28833
704.75        65.04972
705.17        64.88616
705.59        64.85468
706.01        64.90914
706.44        65.02805
706.86        65.19558
707.28        65.37965
707.70        65.58246
708.12        65.78557
708.55        65.95687
708.97        66.07918
709.39        66.11162
709.81        66.07404
710.23        66.06141
710.66          66.089
711.08        66.13242
711.50        66.15979
711.92        66.15376
712.34        66.11471
712.76        66.06151
713.19        66.01196
713.61        66.03027
714.03        66.11611
714.45        66.25745
714.87        66.44417
715.29        66.66349
715.71        66.89943
716.13        67.13636
716.56        67.34051
716.98        67.54318
717.40        67.69904
717.82        67.81565
718.24        67.86122
718.66        67.73141
719.08        67.53407
719.50        67.25056
719.92        66.99474
720.34        66.89346
720.76        66.97448
721.19        67.16656
721.61        67.47018
722.03        67.83223
722.45        68.20206
722.87         68.5802
723.29        68.84441
723.71        68.80183
724.13        68.44084
724.55        67.83684
724.97        67.19945
725.39        66.87545
725.81        66.95357
726.23        67.31591
726.65         67.8108
727.07        68.33443
727.49        68.55679
727.91        68.73954
728.33        68.85658
728.75        68.99683
729.17        69.17948
729.59        69.34711
730.01        69.46947
730.43        69.54229
730.85        69.56705
731.27        69.50983
731.69         69.3573
732.10        69.39261
732.52        69.11855
732.94        68.94849
733.36        68.81731
733.78        68.71007
734.20        68.62835
734.62        68.92242
735.04        69.55366
735.46        68.98607
735.88        69.32391
736.30         69.2808
736.72        69.54235
737.13         69.9618
737.55        70.36304
737.97        70.71424
738.39        70.86538
738.81        70.33117
739.23        69.41634
739.65        69.48362
740.06        70.36416
740.48        70.68463
740.90         70.3504
741.32        70.20239
741.74        70.34031
742.16        70.47161
742.57        70.59984
742.99        70.85524
743.41        71.12544
743.83        71.05488
744.25        70.69755
744.67        70.45212
745.08        70.41847
745.50        70.42698
745.92        70.49821
746.34        70.75681
746.75        71.11166
747.17        71.26842
747.59        71.18587
748.01        71.07936
748.42        70.96188
748.84        70.63838
749.26        70.28728
749.68        70.31181
750.09        70.68655
750.51        71.25066
750.93        71.72623
751.35        71.57792
751.76        70.96339
752.18        70.59876
752.60        70.48969
753.01        70.96001
753.43        70.56479
753.85         70.5191
754.27        70.39118
754.68        70.68871
755.10         70.5797
755.52        70.69686
755.93        70.80057
756.35        70.92413
756.77        71.12016
757.18        71.37024
757.60        71.68687
758.02        72.25384
758.43        72.73422
758.85        72.57226
759.26        71.66186
759.68         70.9092
760.10        71.18037
760.51        72.12799
760.93        72.57417
761.34        71.62132
761.76         72.0566
762.18        71.78294
762.59        71.84191
763.01        72.08813
763.42        72.49259
763.84        72.65307
764.26         72.5005
764.67        72.20599
765.09        71.92978
765.50        71.73897
765.92        71.74133
766.33        71.83672
766.75        72.09383
767.16        72.07729
767.58        71.83965
768.00        71.30237
768.41        70.81482
768.83        71.53405
769.24        73.03623
769.66        73.42229
770.07         72.6865
770.49        71.99024
770.90        71.68871
771.32        72.18983
771.73        73.23709
772.15        73.57163
772.56        73.11447
772.97          72.576
773.39        72.21652
773.80        72.27033
774.22        72.68331
774.63        73.02411
775.05        73.11479
775.46        73.18248
775.88        73.15717
776.29        72.85325
776.70        72.41924
777.12        72.26517
777.53        72.46543
777.95        72.84402
778.36        73.27361
778.77        73.48184
779.19        73.41696
779.60        73.26189
780.02         73.0517
780.43        72.79112
780.84        72.62194
781.26        72.46642
781.67        72.44845
782.09        73.23512
782.50        74.43766
782.91        74.43323
783.33        73.34737
783.74        72.90005
784.15        73.18383
784.57        73.22136
784.98        73.03236
785.39        72.98765
785.81         73.1512
786.22        73.71344
786.63        74.48597
787.04        74.79891
787.46        74.64281
787.87        74.49575
788.28        74.46681
788.70        74.39111
789.11        74.28275
789.52         74.3512
789.93        74.51086
790.35        74.40946
790.76        74.08447
791.17        73.89072
791.58        73.90166
792.00        73.85026
792.41        73.74731
792.82        74.01369
793.23        74.49513
793.65        74.19282
794.06        73.38026
794.47        73.62115
794.88        74.71642
795.29        75.09756
795.71        74.65867
796.12        74.43746
796.53        74.50529
796.94         74.2174
797.35        73.74981
797.76        74.00714
798.18        74.82964
798.59        75.22961
799.00        75.08629
799.41        74.93487
799.82        74.85258
800.23        74.74045
800.64        74.63152
801.06        74.50749
801.47        74.43034
801.88        74.41949
802.29        74.46659
802.70        74.54809
803.11        74.61802
803.52        74.60121
803.93        74.51341
804.34        74.40278
804.75        74.28678
805.17        74.34289
805.58        74.66499
805.99        74.68176
806.40        74.51914
806.81        75.60929
807.22        77.37504
807.63        76.98924
808.04        74.82684
808.45        73.95087
808.86        74.60028
809.27        75.11655
809.68        75.22231
810.09        75.24728
810.50        75.11794
810.91        74.75315
811.32         74.4165
811.73          74.501
812.14        75.07269
812.55        76.09503
812.96        77.22171
813.37        77.59261
813.78        77.11232
814.19        76.45593
814.60        75.85091
815.01        75.24022
815.42        74.71616
815.83        74.40501
816.24        74.32566
816.65        74.39155
817.05        74.58446
817.46        74.92363
817.87        75.30167
818.28        75.48231
818.69        75.42233
819.10        75.14314
819.51        74.81766
819.92        74.80527
820.33        75.18866
820.74        75.78481
821.14         76.3777
821.55        76.77441
821.96        76.81786
822.37        76.26611
822.78        75.37071
823.19        74.88691
823.60        74.96745
824.00        75.31597
824.41        75.71296
824.82        76.00832
825.23        76.10217
825.64        76.04765
826.04        75.94235
826.45        75.89174
826.86        75.95081
827.27        76.08968
827.68         76.2279
828.08        76.27012
828.49        76.13841
828.90        75.88123
829.31        75.65276
829.72        75.69941
830.12        76.08951
830.53        76.69161
830.94        77.25667
831.35        77.30787
831.75        76.76181
832.16        75.75975
832.57        74.67091
832.97        74.05401
833.38         74.0547
833.79        74.47987
834.20        75.11747
834.60        75.62709
835.01        75.89452
835.42        76.06923
835.82        76.16072
836.23        76.09419
836.64        75.92005
837.04        75.59752
837.45        75.34329
837.86        75.59651
838.26        76.44167
838.67        77.71493
839.08         78.9706
839.48        79.35224
839.89        78.65169
840.29        77.18548
840.70        75.62109
841.11        74.72433
841.51        74.69569
841.92        75.28188
842.33         76.2289
842.73        77.07642
843.14        77.51723
843.54        77.74294
843.95        77.81916
844.35        77.91277
844.76        78.05333
845.17        78.15292
845.57        78.17762
845.98        78.06895
846.38        77.84791
846.79        77.55481
847.19        77.25397
847.60        77.00539
848.00        76.84412
848.41        76.72427
848.81        76.66829
849.22        76.61739
849.62        76.60066
850.03        76.63034
850.43        76.68159
850.84        76.63385
851.24          76.525
851.65        76.30855
852.05        76.21151
852.46         76.5022
852.86        77.19476
853.27        78.14088
853.67         78.9759
854.07        79.34222
854.48        79.15069
854.88        78.55828
855.29        77.69521
855.69         76.9648
856.10        76.45805
856.50         76.1694
856.90        76.05606
857.31        76.05609
857.71        76.18349
858.12        76.39659
858.52        76.67445
858.92        76.83559
859.33        76.81017
859.73        76.67367
860.13        76.41213
860.54        76.05373
860.94        75.68645
861.34        75.30037
861.75        74.99839
862.15        74.99252
862.55        75.29011
862.96        75.78998
863.36        76.39008
863.76        76.80703
864.17        76.92884
864.57         76.8525
864.97        76.56973
865.38        76.09001
865.78        75.49158
866.18        74.78243
866.58        74.13538
866.99        73.85937
867.39         74.0538
867.79        74.61547
868.19        75.35818
868.60        75.95513
869.00        76.33819
869.40        76.56374
869.80        76.64536
870.21        76.62834
870.61        76.60896
871.01        76.50006
871.41        76.32569
871.81         76.1323
872.22        75.92127
872.62        75.69951
873.02         75.4856
873.42        75.28341
873.82        75.10031
874.22        74.94665
874.63        74.79639
875.03        74.62572
875.43        74.41795
875.83        74.18197
876.23        73.97626
876.63        73.88538
877.03        73.93412
877.44        74.09269
877.84        74.29875
878.24        74.43937
878.64        74.44215
879.04        74.20124
879.44        73.92825
879.84        74.03593
880.24        74.54562
880.64        75.30614
881.04        75.92533
881.44        75.77885
881.84        74.76946
882.24        73.14438
882.65        71.45393
883.05        70.53882
883.45        70.61954
883.85        71.47119
884.25        72.69336
884.65        73.58218
885.05        73.90102
885.45        73.84326
885.85        73.64771
886.25        73.68913
886.65        74.05695
887.05         74.5825
887.45         75.0906
887.85        75.32584
888.25        75.21146
888.65        74.85744
889.04        74.38196
889.44        73.98011
889.84        73.70229
890.24        73.49847
890.64        73.33937
891.04        73.17835
891.44        73.01061
891.84         72.8883
892.24         72.8118
892.64        72.76047
893.04        72.74535
893.44        72.77199
893.83        72.90977
894.23        73.22232
894.63        73.71709
895.03        74.31529
895.43        74.92133
895.83        75.39446
896.23        75.65938
896.63        75.72653
897.02        75.55482
897.42        75.11746
897.82        74.46731
898.22        73.69942
898.62        72.94025
899.01        72.35473
899.41        72.02058
899.81        71.87859
900.21        71.97616
900.61        72.37321
901.00        73.01757
901.40        73.84655
901.80        74.60866
902.20        74.90405
902.59        74.67036
902.99        74.02614
903.39        73.22581
903.79        72.70541
904.18        72.58613
904.58        72.73057
904.98        73.07847
905.38         73.5377
905.77        74.04401
906.17        74.66523
906.57        75.17976
906.96        75.21052
907.36         74.6947
907.76        73.74319
908.15         72.8074
908.55        72.60344
908.95        73.27518
909.34        74.60282
909.74         76.0442
910.14        76.77649
910.53        76.54456
910.93        75.65508
911.33        74.42103
911.72        73.31429
912.12        72.59373
912.52        72.12424
912.91         71.9239
913.31        72.05418
913.70        72.47862
914.10        73.15494
914.49        74.00071
914.89         74.7451
915.29         75.2944
915.68        75.67735
916.08         75.7724
916.47        75.50365
916.87        74.93172
917.26        74.09851
917.66        73.31744
918.05        72.90675
918.45        72.94201
918.84        73.37971
919.24        73.99178
919.64        74.49551
920.03        74.78271
920.42        74.87579
920.82        74.89061
921.21        74.96505
921.61        75.11713
922.00        75.33366
922.40        75.47778
922.79        75.49401
923.19         75.3409
923.58        75.08099
923.98        74.84617
924.37        74.74571
924.77        74.82663
925.16        75.02084
925.55        75.25028
925.95        75.35715
926.34        75.30895
926.74        75.11794
927.13        74.82407
927.52         74.4264
927.92        74.00325
928.31        73.56578
928.70        73.18033
929.10        72.90782
929.49        72.75394
929.89        72.64574
930.28        72.71951
930.67        73.07935
931.07        73.68079
931.46        74.55173
931.85        75.31073
932.24        75.39682
932.64        74.76548
933.03        73.56535
933.42        72.37078
933.82        72.01772
934.21        72.67569
934.60         74.1492
934.99        75.88371
935.39        76.86913
935.78        76.84113
936.17        75.97898
936.56        74.81824
936.96        74.20319
937.35        74.34686
937.74        74.99869
938.13        75.65295
938.53        75.54327
938.92        74.54472
939.31        73.00449
939.70        71.48274
940.09        70.75392
940.49        70.95496
940.88        71.86195
941.27        73.11624
941.66        74.05791
942.05        74.43788
942.44        74.45995
942.84        74.28754
943.23        74.17242
943.62        74.21962
944.01         74.2933
944.40        74.43211
944.79        74.74323
945.18        75.20148
945.57        75.77827
945.97        76.23466
946.36         76.2573
946.75        75.74449
947.14        74.86855
947.53        73.86716
947.92        73.07129
948.31        72.59371
948.70         72.3583
949.09        72.37973
949.48        72.67283
949.87        73.19305
950.26        73.91315
950.65        74.68121
951.04        75.24108
951.43        75.49976
951.82        75.48933
952.21        75.27421
952.60        74.98603
952.99        74.72252
953.38         74.5174
953.77        74.40791
954.16        74.45267
954.55        74.64635
954.94        74.90666
955.33        75.32097
955.72        76.01794
956.11        76.94608
956.50        78.06398
956.89        78.84509
957.28         78.4381
957.66          76.757
958.05        74.20376
958.44        71.66997
958.83        70.41824
959.22        70.68729
959.61        72.12568
960.00        74.07741
960.39        75.28294
960.78        75.28969
961.16        74.45631
961.55        73.30888
961.94        72.51832
962.33        72.30626
962.72        72.50149
963.11        72.90719
963.49        73.22913
963.88        73.26794
964.27        73.12073
964.66        73.13948
965.04         73.8668
965.43        75.31351
965.82        77.36501
966.21        79.23393
966.60        79.44358
966.98        77.64233
967.37        74.47999
967.76        71.20495
968.15        69.35974
968.53        69.22946
968.92        70.45918
969.31        72.28276
969.69        73.16299
970.08        72.52129
970.47         70.8796
970.86        69.24232
971.24        69.02128
971.63        70.48815
972.02        73.21029
972.40        76.25062
972.79        77.47171
973.17        76.29848
973.56        73.51702
973.95        70.37241
974.33        68.44666
974.72        68.09254
975.11        68.83514
975.49        70.18722
975.88         71.1264
976.26        71.31596
976.65        71.04664
977.04        70.62474
977.42        70.45833
977.81        70.63132
978.19        70.92126
978.58        71.30602
978.96        71.77402
979.35        72.25707
979.74        72.82997
980.12        73.40837
980.51        73.57247
980.89        73.38126
981.28        72.90537
981.66        72.46625
982.05        72.52583
982.43         73.1788
982.82        74.26633
983.20        75.62954
983.59        76.80077
983.97        77.65777
984.35        78.24858
984.74        78.44196
985.12        78.30801
985.51        77.85365
985.89        77.13052
986.28        76.43316
986.66        76.12022
987.04        76.34135
987.43        76.96706
987.81        77.85815
988.20        78.53706
988.58        78.82509
988.96        78.69234
989.35        78.24442
989.73        77.63168
990.12        76.89647
990.50        76.07001
990.88        74.98466
991.27        73.43541
991.65        71.56528
992.03        69.59444
992.42        68.09048
992.80        67.73324
993.18        68.62631
993.56        70.57072
993.95        72.91319
994.33        74.55527
994.71        74.92236
995.10          74.381
995.48         73.3763
995.86        72.73244
996.24        72.66667
996.63        72.71842
997.01        72.99999
997.39        73.37101
997.77        73.70492
998.15        74.23791
998.54        74.48049
998.92        73.50591
999.30        71.40448
999.68        68.51227
1000.06        66.02612
1000.45        65.65139
1000.83        67.80717
1001.21        72.17434
1001.59        77.54871
1001.97        80.93371
1002.35        81.10595
1002.73         78.9463
1003.12          76.098
1003.50        74.68245
1003.88        75.32555
1004.26        77.23855
1004.64        79.94425
1005.02        82.38362
1005.40        83.88159
1005.78        84.91679
1006.16        84.95821
1006.54        83.12122
1006.92        79.63847
1007.30        74.94868
1007.69        70.62814
1008.07        68.76812
1008.45        69.94452
1008.83        73.73115
1009.21        79.01062
1009.59        82.78889
1009.97        83.49672
1010.35        81.89765
1010.73        78.87994
1011.11        75.83627
1011.49        73.41322
1011.86        71.27718
1012.24        69.76474
1012.62         69.3004
1013.00        69.87204
1013.38        71.47573
1013.76        73.76215
1014.14        75.58556
1014.52        76.27789
1014.90        75.98743
1015.28         74.9541
1015.66        73.62986
1016.04        72.24557
1016.41        70.73885
1016.79        69.32844
1017.17        68.57973
1017.55        68.59676
1017.93        69.13198
1018.31        70.01791
1018.69        70.97253
1019.06        71.92746
1019.44        73.11455
1019.82        73.90267
1020.20        73.00848
1020.58        70.32736
1020.95        66.36537
1021.33        63.12215
1021.71        62.79812
1022.09        65.70078
1022.46        71.76969
1022.84        79.23412
1023.22        83.30057
1023.60        81.86273
1023.97         76.1105
1024.35        69.96625
1024.73        68.11803
