SpectraSmart Spectrum 2.9.0.0
--------- Device Information -----------
Spectrum Name :  反射率_0
Saving Time :  2024/04/27 00:18:57
Spectro-Module Model Name : SE2030-DUVN
Spectro-Module Serial Number : OS361AC55029948
Wavelength Start : 200
Wavelength End : 1025
Wavelength Unit : Wavelength(nm)
Spectrum Unit : Reflectance(%)
-----------Spectrum Setting ------------
Integration Time : 20ms
Average : 10
Boxcar : 0
Background removal :  enabled
linearity correction :  enabled
SC :  disabled
Intensity correction :  disabled
DWT denoise :  enabled
savitzky-golay :  disabled
FFT :  disabled
Running average :  disabled
Kalman :  disabled
High pass :  disabled
---------------BEGIN--------------------
Wavelength(nm)             Reflectance(%)
200.29               0
200.75         20.3499
201.21        21.46408
201.67        22.97025
202.13        24.81197
202.58        26.99359
203.04        30.16197
203.50        34.19443
203.96        37.52267
204.42        38.73946
204.88        37.48958
205.34        34.29323
205.80        31.13594
206.26         28.9611
206.72        27.53618
207.18        26.41532
207.64        24.71165
208.10        22.04834
208.55        18.32721
209.01        13.59109
209.47        11.29058
209.93        13.21171
210.39        16.86694
210.85        20.17205
211.31        22.69525
211.77        25.31544
212.23        29.97825
212.69        40.54721
213.14        58.56853
213.60        56.80909
214.06         42.5517
214.52        33.89687
214.98        31.83499
215.44        33.12881
215.90        36.08556
216.36        38.64111
216.81        37.23269
217.27         30.8774
217.73         19.4152
218.19        4.050646
218.65        -3.48516
219.11        2.805538
219.57        14.38489
220.02        25.01241
220.48        34.05407
220.94        43.62939
221.40        56.73519
221.86        73.33299
222.32        83.21811
222.77        77.83138
223.23         64.2151
223.69        51.29466
224.15        44.20063
224.61        41.75857
225.06        41.53025
225.52        42.33035
225.98        42.80972
226.44         42.7954
226.90        42.88592
227.36        43.03314
227.81        43.04697
228.27        42.99825
228.73        42.60428
229.19        42.41988
229.65        43.21423
230.10        44.91694
230.56        47.34005
231.02        49.32466
231.48         49.0409
231.93        46.40569
232.39        42.56837
232.85        39.03496
233.31        37.75027
233.77        38.85558
234.22         41.6524
234.68        45.02446
235.14         47.3185
235.60        47.99278
236.05        47.49643
236.51        46.24209
236.97        45.17648
237.43        44.76028
237.88        44.73349
238.34        44.90517
238.80        45.18718
239.26        45.59178
239.71        46.65859
240.17         48.2997
240.63        50.41656
241.08        52.94977
241.54        55.24202
242.00        58.14405
242.46        63.89313
242.91        74.58837
243.37        92.10822
243.83        116.0431
244.28        132.9921
244.74        125.9125
245.20        97.06505
245.66        66.12224
246.11         48.7756
246.57        44.61679
247.03        48.65622
247.48        55.63997
247.94        56.51936
248.40        51.13556
248.85        44.39732
249.31        39.14503
249.77        36.55827
250.22        36.13175
250.68        36.99255
251.14        38.98555
251.59        41.43997
252.05        43.67022
252.51         45.9229
252.96        47.11138
253.42        46.62996
253.88         44.9785
254.33        42.45012
254.79        41.16614
255.25        42.78036
255.70        46.98142
256.16        53.01772
256.62        58.33995
257.07        59.05146
257.53        56.11637
257.99         51.8927
258.44        48.33243
258.90        47.29169
259.35         47.9343
259.81        49.58941
260.27        51.09907
260.72        51.11266
261.18        49.84006
261.63        47.77784
262.09        45.94914
262.55        44.99572
263.00        44.81095
263.46        45.15058
263.91        45.38723
264.37        44.98468
264.83         43.9012
265.28        42.40075
265.74        41.05054
266.19        40.28815
266.65         40.2101
267.11        40.53869
267.56        40.94877
268.02        40.93248
268.47        40.36237
268.93        39.44495
269.38        38.36569
269.84        37.45117
270.30        36.78328
270.75         36.2454
271.21        35.81519
271.66        35.41544
272.12        35.01139
272.57        34.61002
273.03        34.16556
273.48        33.58696
273.94        32.90555
274.39        32.11531
274.85         31.3266
275.31        30.57251
275.76        29.85604
276.22        29.21102
276.67        28.60836
277.13        28.07715
277.58         27.5776
278.04         27.1273
278.49        26.68519
278.95        26.29043
279.40         25.8997
279.86        25.56481
280.31        25.21066
280.77        24.81967
281.22        24.36644
281.68          23.912
282.13        23.50478
282.59        23.28229
283.04        23.22664
283.50        23.30168
283.95        23.40428
284.41        23.38144
284.86        23.19176
285.32        22.90183
285.77        22.57553
286.22        22.35263
286.68        22.26225
287.13        22.24043
287.59         22.2402
288.04        22.15263
288.50        21.97939
288.95        21.73906
289.41        21.51056
289.86        21.35091
290.32        21.29946
290.77        21.32072
291.22        21.38246
291.68        21.42647
292.13        21.43671
292.59        21.45135
293.04        21.51637
293.50        21.72076
293.95        22.07012
294.40        22.53081
294.86        23.04646
295.31        23.52513
295.77        23.94367
296.22        24.31738
296.68        24.67602
297.13        25.05535
297.58        25.47332
298.04        25.91881
298.49        26.37969
298.95        26.85315
299.40        27.32843
299.85        27.81116
300.31        28.29953
300.76         28.7815
301.21        29.25188
301.67        29.71598
302.12        30.15154
302.58        30.57965
303.03        30.97723
303.48        31.35896
303.94        31.72289
304.39        32.03622
304.84        32.31109
305.30         32.5689
305.75        32.81425
306.20         33.1055
306.66        33.45274
307.11        33.81512
307.57         34.1654
308.02        34.41886
308.47        34.56572
308.93        34.63368
309.38        34.63729
309.83        34.64691
310.29        34.68063
310.74        34.71747
311.19        34.72776
311.65        34.65892
312.10        34.49913
312.55        34.27052
313.00         34.0309
313.46        33.85993
313.91        33.76123
314.36        33.72288
314.82         33.6786
315.27        33.53199
315.72        33.26242
316.18        32.91089
316.63        32.55037
317.08        32.30782
317.53        32.20591
317.99        32.19733
318.44         32.2064
318.89        32.09935
319.35        31.84226
319.80        31.47751
320.25        31.07091
320.70        30.72777
321.16        30.47649
321.61        30.29449
322.06          30.137
322.51        29.93494
322.97        29.66506
323.42        29.35615
323.87        29.04811
324.32        28.80638
324.78        28.63397
325.23        28.52234
325.68        28.40313
326.13        28.17573
326.59        27.82196
327.04        27.39037
327.49        26.95515
327.94        26.63235
328.39        26.44323
328.85        26.33544
329.30        26.27572
329.75         26.1555
330.20         25.9419
330.66        25.66627
331.11        25.36287
331.56         25.0616
332.01        24.77932
332.46        24.50247
332.92        24.23621
333.37        24.03496
333.82        23.89535
334.27        23.81323
334.72        23.76152
335.17         23.6881
335.63         23.5734
336.08        23.44003
336.53        23.29685
336.98        23.17145
337.43        23.07067
337.88         22.9763
338.34        22.88575
338.79         22.8217
339.24        22.77408
339.69        22.74327
340.14        22.69269
340.59        22.56195
341.05        22.35312
341.50        22.08733
341.95         21.8245
342.40        21.65579
342.85        21.59994
343.30        21.62342
343.75        21.68308
344.20        21.70896
344.66        21.68044
345.11        21.61928
345.56        21.52901
346.01        21.41623
346.46        21.29466
346.91        21.16372
347.36          21.054
347.81        21.01744
348.26         21.0574
348.72        21.15319
349.17        21.26079
349.62        21.32009
350.07        21.31041
350.52         21.2496
350.97        21.13906
351.42        20.98549
351.87        20.80486
352.32        20.60252
352.77        20.41528
353.22        20.29522
353.67        20.24839
354.13        20.26099
354.58        20.29441
355.03        20.28606
355.48        20.21658
355.93        20.10337
356.38        19.96626
356.83        19.83672
357.28         19.7216
357.73        19.60446
358.18        19.48121
358.63        19.35033
359.08        19.21102
359.53        19.06984
359.98        18.91707
360.43        18.73194
360.88        18.51344
361.33        18.27044
361.78        18.02747
362.23        17.82554
362.68        17.67736
363.13        17.57401
363.58        17.49439
364.03        17.40297
364.48        17.28827
364.93        17.15726
365.38        17.02589
365.83         16.9221
366.28        16.85027
366.73          16.797
367.18        16.73922
367.63        16.64287
368.08        16.50127
368.53        16.32869
368.98        16.14539
369.43        15.98184
369.88        15.84888
370.33        15.73921
370.78        15.64693
371.23         15.5627
371.68        15.48148
372.13        15.40461
372.58         15.3324
373.03        15.26366
373.48        15.19594
373.93        15.12768
374.38        15.04917
374.83        14.94771
375.28        14.82423
375.72        14.68115
376.17        14.54844
376.62        14.45089
377.07        14.39398
377.52        14.36996
377.97        14.35917
378.42         14.3313
378.87        14.27571
379.32        14.19528
379.77        14.10804
380.22        14.03966
380.67         13.9935
381.11        13.96903
381.56        13.92691
382.01        13.81833
382.46        13.64447
382.91        13.43226
383.36        13.24397
383.81        13.16321
384.26        13.19767
384.71          13.316
385.15        13.45535
385.60        13.51495
386.05        13.46418
386.50        13.33617
386.95        13.17322
387.40        13.04261
387.85         12.9664
388.29         12.9156
388.74         12.8923
389.19        12.87188
389.64        12.84523
390.09        12.81721
390.54        12.78733
390.98        12.74787
391.43        12.70779
391.88        12.66998
392.33        12.62891
392.78        12.57801
393.23        12.51963
393.67        12.44883
394.12        12.40231
394.57        12.40917
395.02         12.4701
395.47        12.56944
395.91        12.66757
396.36        12.68837
396.81        12.62306
397.26        12.49853
397.71        12.35548
398.15        12.26143
398.60        12.24641
399.05        12.23859
399.50        12.22991
399.95        12.29947
400.39        12.40092
400.84        12.32425
401.29        12.10672
401.74         12.0006
402.18        12.02861
402.63        12.04765
403.08        12.04869
403.53         12.0746
403.97        12.11882
404.42        12.17347
404.87        12.20981
405.32        12.17955
405.76        12.07712
406.21        11.92478
406.66        11.77744
407.11        11.72266
407.55        11.78138
408.00        11.92468
408.45        12.09393
408.90        12.17418
409.34        12.13223
409.79        12.00733
410.24        11.86085
410.68        11.77738
411.13        11.78041
411.58        11.83923
412.03        11.91992
412.47        11.96544
412.92        11.95151
413.37        11.90367
413.81        11.83912
414.26        11.78886
414.71        11.75759
415.15        11.73729
415.60        11.72078
416.05         11.7072
416.49        11.69723
416.94        11.69418
417.39        11.69745
417.83        11.70331
418.28         11.7085
418.73        11.70801
419.17        11.70788
419.62        11.71902
420.07        11.74155
420.51         11.7704
420.96        11.78701
421.41        11.76063
421.85        11.68681
422.30        11.57718
422.74        11.46158
423.19        11.43621
423.64        11.49183
424.08        11.54258
424.53        11.56639
424.98        11.61684
425.42        11.69165
425.87        11.72123
426.31        11.70921
426.76        11.75007
427.21        11.81237
427.65        11.72691
428.10        11.54836
428.54        11.48365
428.99        11.55277
429.44        11.69423
429.88        11.83757
430.33        11.82678
430.77        11.68626
431.22        11.65307
431.66        11.74024
432.11        11.76457
432.56        11.73338
433.00        11.79837
433.45        11.89251
433.89        11.81043
434.34        11.63049
434.78        11.31284
435.23        11.51906
435.67        11.53337
436.12        11.52306
436.57        11.50975
437.01        11.50105
437.46         11.5151
437.90        11.54411
438.35        11.55005
438.79        11.53397
439.24        11.53675
439.68        11.56171
440.13        11.59458
440.57        11.62711
441.02        11.65915
441.46        11.68534
441.91         11.6744
442.35        11.63405
442.80        11.68967
443.24         11.7926
443.69        11.74233
444.13        11.56608
444.58        11.49236
445.02        11.53148
445.47         11.5653
445.91        11.57715
446.36        11.59653
446.80        11.61538
447.24        11.62724
447.69        11.63568
448.13        11.64032
448.58         11.6446
449.02        11.64624
449.47        11.64772
449.91        11.64796
450.36        11.64986
450.80        11.65176
451.25        11.65586
451.69        11.65917
452.13        11.66086
452.58        11.65729
453.02        11.64732
453.47        11.63136
453.91         11.6091
454.36        11.58425
454.80        11.54729
455.24        11.48165
455.69        11.39297
456.13        11.28205
456.58        11.18677
457.02        11.14344
457.46        11.16235
457.91         11.2291
458.35        11.30068
458.79        11.30989
459.24        11.25427
459.68        11.14888
460.13        11.04696
460.57         10.9981
461.01        11.02239
461.46        11.08938
461.90        11.17921
462.34        11.24775
462.79         11.2752
463.23        11.28075
463.68        11.25714
464.12        11.20095
464.56        11.11834
465.01         11.0267
465.45        10.93833
465.89        10.90119
466.34        10.91951
466.78        10.97891
467.22        11.05805
467.67        11.10649
468.11        11.11485
468.55        11.09082
468.99        11.05385
469.44          11.035
469.88         11.0437
470.32        11.06952
470.77        11.10057
471.21        11.12129
471.65        11.12574
472.10        11.12255
472.54         11.1172
472.98        11.12211
473.42        11.13957
473.87        11.16731
474.31        11.19158
474.75        11.20352
475.20          11.204
475.64        11.19306
476.08        11.18088
476.52        11.17629
476.97        11.18257
477.41        11.20273
477.85        11.23606
478.29        11.26428
478.74        11.29382
479.18        11.35451
479.62         11.4344
480.06         11.4958
480.50        11.53534
480.95        11.55435
481.39        11.55061
481.83        11.63371
482.27        11.63612
482.72        11.69774
483.16         11.7669
483.60        11.81092
484.04        11.80543
484.48        11.86553
484.93        12.06551
485.37        11.98568
485.81        11.94164
486.25        12.46166
486.69        12.26765
487.14        11.99492
487.58        12.78834
488.02        12.78111
488.46        12.41173
488.90        12.54176
489.34        12.47545
489.79        12.72345
490.23        12.94162
490.67        13.10308
491.11        13.17183
491.55        13.17161
491.99        13.15189
492.43        13.18334
492.88        13.28415
493.32        13.40778
493.76        13.53935
494.20        13.68588
494.64        13.84458
495.08        13.98682
495.52        14.10186
495.96        14.26572
496.41        14.44634
496.85        14.42856
497.29        14.27564
497.73        14.42108
498.17        14.66483
498.61        14.89754
499.05        15.01226
499.49        15.11556
499.93        15.16901
500.37        15.26379
500.82        15.38971
501.26        15.48849
501.70        15.55952
502.14        15.65077
502.58        15.76759
503.02        15.88712
503.46        16.00595
503.90        16.13156
504.34        16.24541
504.78        16.31536
505.22        16.33604
505.66        16.31584
506.10        16.28311
506.54        16.28417
506.98        16.33187
507.42        16.41689
507.86        16.51647
508.30        16.59125
508.74        16.63121
509.18        16.64804
509.62        16.66513
510.06        16.71982
510.50        16.81897
510.94        16.94735
511.38        17.07755
511.82        17.16733
512.26        17.20595
512.70        17.20684
513.14        17.19242
513.58        17.19897
514.02        17.23708
514.46        17.29515
514.90        17.35851
515.34        17.40428
515.78        17.42488
516.22        17.42738
516.66         17.4203
517.10        17.41585
517.54        17.41821
517.98         17.4247
518.42        17.42744
518.86        17.41459
519.30        17.38552
519.74        17.34538
520.18        17.30936
520.62        17.30014
521.06         17.3208
521.50        17.36263
521.93        17.40786
522.37        17.42048
522.81        17.39466
523.25        17.34109
523.69        17.27424
524.13        17.21727
524.57        17.17585
525.01         17.1396
525.45        17.10571
525.89        17.07014
526.32         17.0283
526.76         16.9889
527.20        16.94011
527.64        16.86351
528.08        16.76019
528.52        16.63756
528.96        16.52168
529.40        16.45345
529.83        16.43875
530.27        16.46321
530.71        16.49771
531.15        16.49661
531.59        16.44757
532.03        16.36471
532.46        16.26182
532.90         16.1729
533.34        16.10614
533.78        16.04423
534.22        15.98703
534.66        15.95404
535.09        15.93263
535.53        15.88828
535.97        15.82511
536.41        15.78932
536.85        15.78388
537.28        15.78067
537.72        15.78473
538.16        15.81665
538.60        15.87469
539.04        15.95071
539.47        16.02504
539.91        16.07791
540.35        16.10338
540.79         16.1123
541.22        16.11966
541.66        16.15511
542.10        16.22457
542.54        16.31899
542.97        16.43139
543.41        16.55682
543.85        16.68773
544.29        16.82699
544.72        16.96189
545.16        17.08374
545.60        17.18791
546.04        17.28352
546.47        17.38718
546.91        17.50872
547.35        17.65728
547.79        17.85807
548.22        18.07843
548.66        18.23776
549.10        18.34929
549.53        18.43752
549.97        18.53526
550.41        18.64396
550.84        18.79239
551.28        19.01755
551.72        19.27283
552.15        19.49964
552.59        19.70612
553.03        19.62044
553.46        19.85734
553.90        19.94169
554.34        20.05665
554.77        20.18996
555.21        20.33915
555.65        20.48333
556.08        20.60727
556.52        20.70682
556.96        20.78209
557.39        20.88928
557.83        21.01461
558.27        21.03496
558.70        20.97193
559.14        20.98787
559.57        21.07874
560.01        21.14182
560.45        21.17683
560.88        21.24814
561.32        21.36638
561.75         21.4889
562.19        21.61273
562.63        21.72912
563.06        21.82894
563.50        21.91663
563.93        21.97699
564.37        22.04177
564.80        22.12271
565.24        22.16659
565.68        22.13385
566.11         22.4314
566.55         22.2639
566.98         22.3305
567.42        22.42928
567.85        22.56984
568.29        22.75735
568.72        23.00586
569.16        23.30957
569.60        23.51493
570.03        23.69803
570.47        23.86607
570.90        24.05017
571.34        24.04428
571.77        24.27971
572.21        24.37868
572.64        24.45912
573.08         24.6288
573.51        24.87471
573.95         24.9272
574.38        24.86263
574.82        25.00659
575.25        24.86405
575.69        25.02806
576.12        25.26499
576.56        25.24504
576.99        25.41892
577.42        25.24973
577.86        25.15264
578.29         25.5647
578.73        25.28293
579.16         25.2472
579.60        25.04192
580.03        25.09943
580.47        25.11007
580.90        25.03724
581.33        25.00674
581.77        25.10206
582.20         24.9212
582.64        24.53806
583.07        24.38701
583.51        24.16146
583.94        24.09515
584.37        24.09779
584.81        24.10388
585.24        23.91723
585.68        23.63269
586.11        23.48206
586.54        23.60617
586.98        23.55142
587.41        23.35598
587.85        23.29299
588.28         23.0217
588.71        23.20559
589.15        22.94488
589.58        23.13666
590.01        23.08489
590.45        23.16875
590.88        23.20924
591.31         23.0937
591.75        22.93331
592.18        22.81781
592.61        22.74894
593.05        23.32632
593.48        23.61064
593.91        23.28006
594.35        23.41177
594.78         23.2862
595.21        23.34339
595.65        23.64013
596.08        24.14823
596.51        24.32911
596.94        24.10281
597.38        24.17426
597.81        24.55873
598.24        24.76039
598.68        24.80888
599.11        25.24771
599.54        25.72786
599.97        25.72667
600.41        26.23719
600.84        26.37013
601.27        26.83433
601.70        27.20896
602.14        27.57413
602.57        27.97301
603.00        28.43334
603.43        28.46744
603.87        29.18936
604.30        29.51856
604.73        29.81781
605.16        30.17026
605.60        30.56339
606.03        30.89456
606.46        31.28805
606.89        31.39555
607.32        32.24091
607.76        32.66208
608.19        32.94969
608.62        33.24643
609.05         33.6572
609.48        33.97156
609.92        34.57945
610.35        34.94352
610.78        35.02625
611.21        34.92394
611.64        35.61024
612.07        36.01804
612.50         36.2274
612.94        36.54933
613.37        36.92454
613.80        37.11305
614.23        37.16412
614.66        37.41084
615.09        37.85506
615.52        38.20652
615.96         38.4115
616.39        38.67352
616.82        39.01481
617.25         38.9932
617.68        39.11703
618.11        39.49428
618.54         40.1564
618.97        40.44556
619.40        40.36085
619.84        40.54519
620.27        40.64421
620.70        40.86082
621.13        41.04166
621.56        40.82244
621.99        40.52634
622.42        40.54344
622.85        40.94053
623.28        40.89436
623.71        40.86822
624.14        40.98273
624.57        41.03761
625.00        41.09336
625.43        41.02397
625.86        40.99734
626.29        41.04438
626.72        40.63313
627.15        40.74072
627.58        40.57084
628.01         40.3764
628.44        40.13646
628.87        39.86871
629.30        39.47079
629.73        38.95115
630.16        38.92202
630.59        38.47752
631.02        38.32833
631.45        38.16543
631.88        37.95351
632.31        37.66356
632.74        37.31702
633.17        36.92838
633.60        36.49808
634.03        36.03859
634.46        35.54872
634.89        35.04277
635.32        34.55319
635.75        34.09338
636.18         33.6276
636.61        33.17225
637.04        32.76543
637.47        32.40636
637.89        32.08062
638.32        31.75874
638.75        31.42653
639.18        31.08183
639.61        30.73116
640.04        30.39785
640.47        30.11557
640.90         29.8899
641.33        29.71322
641.76        29.56128
642.18        29.39836
642.61        29.21067
643.04         29.0159
643.47        28.84836
643.90         28.7621
644.33        28.76717
644.76        28.84457
645.18        28.95844
645.61        29.04496
646.04         29.0915
646.47          29.119
646.90        29.16067
647.33        29.26903
647.75        29.45485
648.18        29.72168
648.61        30.06346
649.04        30.41804
649.47        30.73401
649.89        31.34523
650.32        31.46558
650.75        32.02298
651.18        32.72193
651.61        33.24532
652.03        33.62253
652.46        34.12825
652.89        34.74965
653.32        35.28391
653.74        35.80075
654.17        35.94057
654.60        36.71834
655.03        37.18523
655.46        36.98512
655.88        38.26772
656.31        40.69844
656.74        42.23499
657.16        41.73318
657.59        41.62108
658.02        40.96141
658.45        41.84958
658.87        41.91036
659.30        41.91911
659.73         42.6141
660.15         43.4868
660.58        43.37268
661.01        43.60723
661.44        43.85186
661.86        44.03651
662.29        44.14664
662.72        44.77773
663.14        45.02769
663.57        45.24065
664.00        45.24965
664.42        45.50283
664.85        46.02999
665.27        46.59949
665.70        47.07487
666.13        47.38017
666.55        47.48461
666.98        47.36549
667.41        47.12877
667.83        47.25286
668.26        47.29575
668.69        47.60499
669.11        47.96915
669.54         48.2783
669.96        48.49946
670.39        48.67166
670.82         48.8224
671.24        48.97705
671.67        49.14448
672.09        49.27347
672.52        49.39432
672.94         49.5775
673.37        49.80807
673.80        49.97495
674.22        50.07115
674.65        50.14695
675.07        50.21428
675.50        50.21801
675.92        50.19604
676.35         50.2294
676.77        50.33479
677.20        50.48727
677.62        50.66097
678.05        50.81257
678.47        50.92506
678.90        51.01375
679.32        51.08741
679.75        51.16947
680.17         51.2645
680.60        51.36831
681.02        51.47291
681.45        51.57189
681.87        51.67506
682.30        51.75148
682.72        51.82813
683.15        51.98214
683.57        52.19387
684.00        52.29005
684.42        52.29598
684.85        52.39547
685.27        52.58788
685.70        52.78088
686.12         52.9252
686.54        53.00077
686.97        52.99626
687.39        52.92607
687.82         52.8353
688.24        52.81259
688.66          52.878
689.09        53.00865
689.51        53.17432
689.94         53.2963
690.36        53.36089
690.78        53.37898
691.21        53.39252
691.63        53.46073
692.06        53.59914
692.48        53.79436
692.90        53.98482
693.33        54.07871
693.75        54.05522
694.17        53.91736
694.60        53.76633
695.02        53.77047
695.44        53.93767
695.87        54.23211
696.29        54.53601
696.71        54.46947
697.14        54.10757
697.56        53.97157
697.98        54.11114
698.41        54.18869
698.83        54.20208
699.25        54.40908
699.68        54.71072
700.10        54.85912
700.52        54.79993
700.94         54.6176
701.37        54.42372
701.79        54.40438
702.21        54.59553
702.64        54.92045
703.06        55.28262
703.48        55.51375
703.90        55.56141
704.33        55.47859
704.75        55.33193
705.17        55.19433
705.59        55.10397
706.01        55.09111
706.44        55.15965
706.86         55.0879
707.28        55.26962
707.70        55.34749
708.12        55.46052
708.55        55.68756
708.97        55.98738
709.39        56.15865
709.81        56.17639
710.23        56.19873
710.66        56.22555
711.08        56.16456
711.50        56.03246
711.92        55.92721
712.34         55.8708
712.76        55.85254
713.19        55.85407
713.61         55.8725
714.03        55.89373
714.45        55.92976
714.87        56.00747
715.29        56.16773
715.71        56.40517
716.13        56.68393
716.56        56.93664
716.98        57.12934
717.40        57.20758
717.82        57.19386
718.24        57.08535
718.66           56.88
719.08        56.61183
719.50        56.31098
719.92        56.06186
720.34        55.98807
720.76        56.11026
721.19        56.37113
721.61        56.73024
722.03        57.07035
722.45        57.33265
722.87        57.52975
723.29        57.62261
723.71        57.55754
724.13        57.34409
724.55        57.01612
724.97        56.68073
725.39        56.45589
725.81        56.37715
726.23        56.51484
726.65        56.85168
727.07        56.83289
727.49        57.24027
727.91        57.43079
728.33        57.62916
728.75        57.78524
729.17        57.89098
729.59        57.92346
730.01        57.89305
730.43        57.85311
730.85        57.81831
731.27        57.79092
731.69        57.75021
732.10        57.65674
732.52        57.50595
732.94        57.32442
733.36        57.19542
733.78        57.11826
734.20        57.09575
734.62        57.38999
735.04         57.9615
735.46         57.5262
735.88        57.82026
736.30        57.81647
736.72        58.06476
737.13        58.26004
737.55        58.35145
737.97        58.70446
738.39        59.14094
738.81        58.88816
739.23        58.11618
739.65        57.98041
740.06        58.45172
740.48        58.62998
740.90        58.48015
741.32        58.55781
741.74        58.85928
742.16        59.06456
742.57        59.14034
742.99        59.17961
743.41        59.18726
743.83        59.10159
744.25        58.95977
744.67        58.87167
745.08        58.86386
745.50        58.85375
745.92        58.85025
746.34        58.91418
746.75        59.01057
747.17        59.03279
747.59        58.97604
748.01        58.87389
748.42        58.76823
748.84        58.75655
749.26        58.85895
749.68        58.94746
750.09         59.0041
750.51        59.21446
750.93        59.45844
751.35        59.29446
751.76        58.80291
752.18        58.50673
752.60        58.44961
753.01         58.3936
753.43        58.32066
753.85         58.2454
754.27        58.33765
754.68        58.44714
755.10        58.62134
755.52        58.84125
755.93        59.06651
756.35        59.28559
756.77        59.50592
757.18        59.55951
757.60        59.47479
758.02        59.72527
758.43        60.14559
758.85        59.53284
759.26        59.03201
759.68        58.48026
760.10        58.63479
760.51        59.33848
760.93        60.47585
761.34         59.7926
761.76        59.84595
762.18        59.51737
762.59        59.67942
763.01        59.89165
763.42        60.13638
763.84        60.20737
764.26        60.05457
764.67        59.96561
765.09        59.96494
765.50        59.60193
765.92        59.07494
766.33        59.11557
766.75        59.58235
767.16        59.69505
767.58         59.3916
768.00        59.17957
768.41        59.20939
768.83        59.59959
769.24        60.15851
769.66        60.32391
770.07        60.07385
770.49        59.64967
770.90        59.29153
771.32        59.61743
771.73        60.47004
772.15        60.80299
772.56        60.54911
772.97        60.30756
773.39        60.20853
773.80        60.18462
774.22        60.25275
774.63        60.47488
775.05        60.71519
775.46        60.81704
775.88        60.71538
776.29        60.48053
776.70        60.22301
777.12        60.14323
777.53        60.29433
777.95        60.57597
778.36        60.89155
778.77        61.04783
779.19        61.00821
779.60        60.85372
780.02        60.63034
780.43        60.47714
780.84        60.45374
781.26        60.28001
781.67        60.06339
782.09        60.50224
782.50        61.34402
782.91        61.32034
783.33        60.52897
783.74        60.25121
784.15        60.54766
784.57         60.7206
784.98        60.73472
785.39        60.74865
785.81        60.80705
786.22        61.09869
786.63        61.53117
787.04        61.72914
787.46        61.66148
787.87        61.49077
788.28        61.33846
788.70        61.25174
789.11        61.23349
789.52        61.45774
789.93        61.79318
790.35        61.61224
790.76        61.06748
791.17         61.1186
791.58        61.71598
792.00        61.90394
792.41        61.64324
792.82        61.61448
793.23        61.80206
793.65        61.55711
794.06        61.06079
794.47        61.22265
794.88        61.88895
795.29        62.10187
795.71        61.77736
796.12        61.54792
796.53        61.49754
796.94        61.28613
797.35         61.0607
797.76        61.44408
798.18        62.24199
798.59        62.61549
799.00        62.44489
799.41         62.1516
799.82        61.88535
800.23        61.72721
800.64        61.73583
801.06        61.84997
801.47        62.01775
801.88         62.0731
802.29        61.96756
802.70        61.75171
803.11        61.49018
803.52        61.28546
803.93        61.19664
804.34        61.20568
804.75        61.28619
805.17        61.48534
805.58        61.83366
805.99        61.98371
806.40        61.99232
806.81          62.706
807.22        63.76272
807.63        63.42835
808.04        61.95109
808.45        61.25503
808.86        61.50925
809.27        61.68999
809.68        61.66611
810.09        61.70499
810.50        61.76754
810.91        61.77761
811.32        61.82579
811.73        62.04678
812.14        62.44719
812.55        63.00397
812.96        63.53093
813.37        63.61834
813.78        63.22134
814.19        62.63086
814.60        62.03056
815.01        61.53614
815.42        61.21215
815.83        61.07365
816.24        61.10377
816.65          61.218
817.05        61.38515
817.46        61.60933
817.87        61.85315
818.28        62.01244
818.69        62.06466
819.10        62.00234
819.51        61.90464
819.92        61.93352
820.33        62.12345
820.74         62.4267
821.14        62.72443
821.55        62.81935
821.96        62.67434
822.37        62.35842
822.78        62.00219
823.19        61.82334
823.60        61.88793
824.00        62.15158
824.41        62.47225
824.82        62.70214
825.23         62.7686
825.64        62.70582
826.04        62.56926
826.45        62.41256
826.86        62.27865
827.27        62.17024
827.68        62.03905
828.08        61.83615
828.49        61.51538
828.90        61.10931
829.31        60.78529
829.72        60.80511
830.12        61.23259
830.53        61.95733
830.94        62.67759
831.35          62.831
831.75        62.30885
832.16        61.26217
832.57        60.14373
832.97        59.65934
833.38        59.96913
833.79         60.8259
834.20        61.87329
834.60        62.54811
835.01        62.69212
835.42        62.52069
835.82        62.18929
836.23        61.89342
836.64        61.76038
837.04        61.67911
837.45        61.73743
837.86        62.15327
838.26         62.9425
838.67        64.01202
839.08        65.01736
839.48        65.28673
839.89        64.66664
840.29        63.40351
840.70        62.03787
841.11        61.18836
841.51        61.02375
841.92        61.34892
842.33        61.99446
842.73        62.65054
843.14        63.07818
843.54        63.40371
843.95        63.63119
844.35        63.81747
844.76         63.9614
845.17        64.01756
845.57        63.95675
845.98        63.73371
846.38        63.38253
846.79        62.93567
847.19        62.51347
847.60        62.27529
848.00        62.26632
848.41        62.42283
848.81        62.65905
849.22        62.74736
849.62        62.66282
850.03        62.45616
850.43        62.21297
850.84        62.01366
851.24        61.93501
851.65         61.8936
852.05        61.97418
852.46        62.22437
852.86        62.61922
853.27         63.1145
853.67        63.52058
854.07        63.67989
854.48         63.5439
854.88        63.18431
855.29         62.6566
855.69        62.19308
856.10        61.83202
856.50        61.60609
856.90        61.47885
857.31        61.39462
857.71        61.38098
858.12        61.39872
858.52        61.50343
858.92        61.67467
859.33        61.87382
859.73        62.12189
860.13        62.29544
860.54        62.22374
860.94        61.92466
861.34        61.44643
861.75        60.95296
862.15        60.75413
862.55        60.90704
862.96        61.29021
863.36        61.81125
863.76        62.22649
864.17        62.42495
864.57        62.49728
864.97        62.39566
865.38        62.05853
865.78        61.53791
866.18        60.85126
866.58        60.18484
866.99        59.87618
867.39        60.03754
867.79        60.57608
868.19        61.30314
868.60        61.89866
869.00        62.28962
869.40        62.51634
869.80         62.6362
870.21        62.76175
870.61        62.96986
871.01        63.15773
871.41        63.20813
871.81        62.97052
872.22        62.43407
872.62        61.66401
873.02        60.87892
873.42         60.4375
873.82        60.44296
874.22        60.80486
874.63        61.28014
875.03        61.48805
875.43        61.32209
875.83        60.90228
876.23        60.44107
876.63        60.27455
877.03         60.4788
877.44        60.89724
877.84        61.37722
878.24        61.69307
878.64        61.71568
879.04        61.38589
879.44        60.88416
879.84        60.59831
880.24        60.58683
880.64        60.69445
881.04        60.77123
881.44        60.61558
881.84        60.19166
882.24        59.59856
882.65        59.02597
883.05        58.74728
883.45        58.83439
883.85        59.20806
884.25        59.72491
884.65        60.13806
885.05        60.35646
885.45         60.4324
885.85        60.44936
886.25        60.54594
886.65        60.75036
887.05        60.99938
887.45        61.20465
887.85        61.23354
888.25        61.05519
888.65        60.72953
889.04        60.34151
889.44        60.03912
889.84        59.85741
890.24        59.76876
890.64        59.73688
891.04        59.69944
891.44        59.64137
891.84        59.59293
892.24        59.58117
892.64        59.63672
893.04        59.77181
893.44        59.98124
893.83        60.25533
894.23        60.53132
894.63        60.80291
895.03        61.04955
895.43        61.30412
895.83        61.63242
896.23        62.01461
896.63        62.39587
897.02        62.63773
897.42        62.55385
897.82        62.12521
898.22        61.46852
898.62        60.72826
899.01        60.10246
899.41        59.68409
899.81        59.42252
900.21        59.34612
900.61        59.49139
901.00        59.82642
901.40        60.31522
901.80        60.82053
902.20         61.1158
902.59        61.15202
902.99        60.97872
903.39        60.67587
903.79        60.39348
904.18        60.18176
904.58        59.99545
904.98        59.89266
905.38        59.96512
905.77        60.21238
906.17        60.64571
906.57        61.05814
906.96        61.09598
907.36        60.68761
907.76        59.94703
908.15        59.23317
908.55        59.10379
908.95        59.67359
909.34        60.76323
909.74        61.94168
910.14        62.57186
910.53        62.44659
910.93        61.79684
911.33        60.87206
911.72        60.04725
912.12        59.53193
912.52        59.23167
912.91        59.12586
913.31        59.20451
913.70        59.43734
914.10        59.79402
914.49        60.31085
914.89        60.94523
915.29        61.65372
915.68        62.41542
916.08        62.94702
916.47        62.87363
916.87        62.18257
917.26        61.00929
917.66        59.84105
918.05        59.27064
918.45        59.42218
918.84        60.16678
919.24        61.12897
919.64        61.74904
920.03        61.84993
920.42        61.56678
920.82        61.17566
921.21        61.05762
921.61        61.29787
922.00        61.78498
922.40         62.3048
922.79        62.63115
923.19        62.65092
923.58        62.48006
923.98        62.23321
924.37        62.01153
924.77        61.87069
925.16         61.7318
925.55         61.6153
925.95         61.5466
926.34        61.53635
926.74        61.57693
927.13         61.5616
927.52        61.24702
927.92        60.66043
928.31        59.88266
928.70        59.15972
929.10        58.83928
929.49        58.97469
929.89        59.40392
930.28        60.03656
930.67        60.60352
931.07        60.96389
931.46        61.26394
931.85        61.35151
932.24        61.03576
932.64        60.37982
933.03        59.41914
933.42        58.58996
933.82        58.52983
934.21        59.33803
934.60         60.8726
934.99        62.61193
935.39         63.5932
935.78        63.56219
936.17        62.69081
936.56        61.48295
936.96        60.75145
937.35        60.71236
937.74         61.1285
938.13        61.59927
938.53        61.51357
938.92        60.76038
939.31        59.62399
939.70        58.48489
940.09         57.8513
940.49        57.81679
940.88        58.23079
941.27        58.90947
941.66        59.51314
942.05        59.90428
942.44        60.20288
942.84        60.42977
943.23        60.60855
943.62        60.76558
944.01        60.81085
944.40        60.86763
944.79        61.18079
945.18         61.7532
945.57        62.50764
945.97        63.07424
946.36         62.9171
946.75        61.92503
947.14        60.38552
947.53        58.75002
947.92        57.64156
948.31        57.22739
948.70        57.33813
949.09        57.84404
949.48         58.5041
949.87        59.17863
950.26        59.90725
950.65        60.58776
951.04        61.05599
951.43        61.25584
951.82        61.16837
952.21        60.86444
952.60        60.50934
952.99        60.18587
953.38        59.90796
953.77        59.67705
954.16        59.47501
954.55        59.29334
954.94        59.12225
955.33        59.03587
955.72         59.1447
956.11        59.44443
956.50        59.90078
956.89        60.24783
957.28        60.05281
957.66        59.25093
958.05        58.04249
958.44        56.83253
958.83        56.20189
959.22        56.25436
959.61        56.81281
960.00        57.57727
960.39        57.98483
960.78        57.84105
961.16        57.32392
961.55        56.66517
961.94        56.13003
962.33        55.82257
962.72        55.68499
963.11        55.69846
963.49        55.86922
963.88        56.11874
964.27        56.43864
964.66        56.90248
965.04         57.6566
965.43        58.65628
965.82        59.89093
966.21        60.97137
966.60        61.17164
966.98        60.30885
967.37        58.69102
967.76        56.99792
968.15        56.08955
968.53        56.12467
968.92        56.91756
969.31        57.97798
969.69         58.3282
970.08        57.62578
970.47        56.24186
970.86        54.88639
971.24        54.53679
971.63        55.38895
972.02        57.17207
972.40        59.29641
972.79        60.35145
973.17        59.93112
973.56        58.48742
973.95        56.79981
974.33        55.88372
974.72        55.96783
975.11        56.73844
975.49        57.79812
975.88        58.35296
976.26        58.16359
976.65          57.444
977.04        56.57062
977.42        56.06609
977.81        56.03724
978.19        56.30695
978.58        56.70667
978.96        56.93254
979.35        56.86912
979.74        56.63032
980.12        56.41693
980.51        56.35795
980.89        56.61864
981.28        57.09986
981.66         57.6632
982.05        58.09978
982.43         58.3741
982.82        58.47949
983.20        58.69653
983.59        59.44302
983.97        60.83769
984.35          62.713
984.74         64.3495
985.12        64.78949
985.51        63.78939
985.89        61.74886
986.28        59.56283
986.66        58.48343
987.04        58.87363
987.43        60.34538
987.81        62.37211
988.20         63.7914
988.58        64.13461
988.96        63.64201
989.35        62.62288
989.73        61.52127
990.12        60.48934
990.50        59.44149
990.88        58.27483
991.27        56.93003
991.65        55.52139
992.03        54.21066
992.42        53.37746
992.80        53.45758
993.18        54.49821
993.56        56.38019
993.95        58.50677
994.33        59.86538
994.71        59.98218
995.10        59.18829
995.48         58.0633
995.86        57.61036
996.24        58.07978
996.63        59.05066
997.01         60.3597
997.39        61.33451
997.77        61.63707
998.15         61.5833
998.54        61.09038
998.92        59.88592
999.30        58.15813
999.68        56.05054
1000.06        54.28996
1000.45        53.88643
1000.83        55.10929
1001.21        57.79601
1001.59        61.25626
1001.97        63.68371
1002.35         64.2945
1002.73        63.55486
1003.12        62.35998
1003.50        61.84706
1003.88        62.39668
1004.26        63.50202
1004.64        64.93401
1005.02        66.19803
1005.40        66.95129
1005.78         67.5185
1006.16        67.41463
1006.54        65.82157
1006.92        62.90697
1007.30        59.10058
1007.69        55.75205
1008.07        54.60905
1008.45        56.17027
1008.83        60.05806
1009.21         65.2504
1009.59        69.02049
1009.97        69.88498
1010.35         68.4652
1010.73        65.56882
1011.11        62.50372
1011.49        59.88826
1011.86        57.47409
1012.24        55.54074
1012.62        54.41797
1013.00        54.09317
1013.38        54.61306
1013.76        55.76269
1014.14        56.80534
1014.52        57.35159
1014.90        57.46563
1015.28        57.34676
1015.66        57.41875
1016.04        57.76171
1016.41        58.16064
1016.79        58.45726
1017.17        58.46225
1017.55          58.124
1017.93         57.6154
1018.31         56.9696
1018.69        56.14059
1019.06        55.14824
1019.44        53.97911
1019.82        52.90669
1020.20        52.60055
1020.58        53.21113
1020.95        54.33712
1021.33        55.56495
1021.71        56.35109
1022.09        56.63607
1022.46        56.70392
1022.84        56.29965
1023.22        55.06258
1023.60        53.13999
1023.97        50.60742
1024.35        48.75486
1024.73        48.85358
