SpectraSmart Spectrum 2.9.0.0
--------- Device Information -----------
Spectrum Name :  反射率_0
Saving Time :  2024/04/27 00:18:08
Spectro-Module Model Name : SE2030-DUVN
Spectro-Module Serial Number : OS361AC55029948
Wavelength Start : 200
Wavelength End : 1025
Wavelength Unit : Wavelength(nm)
Spectrum Unit : Reflectance(%)
-----------Spectrum Setting ------------
Integration Time : 20ms
Average : 10
Boxcar : 0
Background removal :  enabled
linearity correction :  enabled
SC :  disabled
Intensity correction :  disabled
DWT denoise :  enabled
savitzky-golay :  disabled
FFT :  disabled
Running average :  disabled
Kalman :  disabled
High pass :  disabled
---------------BEGIN--------------------
Wavelength(nm)             Reflectance(%)
200.29               0
200.75        20.68484
201.21        20.63788
201.67        20.88675
202.13        20.88251
202.58        20.54741
203.04        20.53062
203.50        21.00791
203.96        22.24123
204.42        24.32745
204.88        26.49813
205.34        29.64564
205.80        35.36413
206.26        42.62483
206.72         49.6065
207.18        53.68329
207.64         52.7217
208.10        46.57393
208.55        34.67825
209.01        17.38254
209.47        6.798838
209.93        10.68227
210.39        21.72227
210.85        31.67127
211.31        37.13958
211.77        39.23566
212.23         39.0276
212.69        36.36495
213.14        38.81546
213.60        49.78454
214.06        56.25635
214.52        56.54238
214.98        53.64594
215.44        48.77496
215.90        42.28144
216.36        35.89232
216.81        32.30296
217.27        32.79248
217.73        37.44764
218.19        45.61184
218.65        50.45937
219.11        48.48427
219.57        43.87331
220.02        40.92426
220.48         42.4674
220.94        48.52993
221.40        59.51349
221.86        75.69543
222.32        88.23551
222.77         87.6574
223.23        79.75458
223.69        70.05928
224.15        61.75911
224.61        55.33125
225.06        49.80983
225.52        46.52015
225.98        46.73572
226.44        49.99255
226.90        55.58104
227.36        61.50377
227.81        64.13019
228.27        62.92028
228.73        59.25039
229.19        55.31083
229.65        53.61712
230.10        54.35308
230.56        56.60642
231.02        59.11176
231.48        59.92563
231.93        58.65711
232.39        56.48423
232.85        54.28334
233.31        53.16537
233.77        53.27415
234.22        54.15585
234.68        55.42044
235.14        56.64425
235.60        57.62923
236.05         58.5875
236.51        59.30736
236.97        59.39115
237.43        58.73995
237.88        57.43258
238.34         55.9039
238.80        55.17264
239.26        55.63279
239.71        57.62542
240.17        60.67629
240.63         63.6178
241.08        65.63826
241.54        66.17204
242.00        66.46258
242.46         69.4156
242.91         77.1981
243.37        90.86377
243.83        109.7346
244.28        121.6727
244.74        112.4933
245.20        86.30685
245.66        59.48501
246.11         43.8665
246.57         39.0808
247.03        40.63206
247.48        46.51167
247.94        52.51896
248.40        56.02714
248.85        57.81077
249.31        58.21644
249.77        56.79193
250.22        53.31335
250.68        47.15396
251.14        38.32812
251.59        30.15671
252.05        26.51456
252.51        27.40053
252.96        30.63492
253.42        33.67074
253.88        35.95614
254.33         37.6786
254.79        40.10669
255.25        44.26624
255.70        49.98335
256.16        56.81354
256.62         62.2592
257.07        62.56363
257.53        59.06504
257.99        54.31397
258.44        50.50996
258.90        49.71274
259.35        50.96986
259.81         53.4578
260.27         55.8349
260.72        56.47728
261.18        55.54629
261.63        53.61686
262.09        51.78803
262.55        50.73376
263.00        50.38475
263.46        50.53531
263.91        50.59146
264.37        50.10044
264.83        49.02643
265.28        47.60535
265.74        46.40083
266.19        45.82094
266.65        45.95324
267.11        46.50379
267.56        47.12275
268.02        47.26511
268.47        46.78073
268.93        45.88332
269.38        44.74183
269.84        43.67384
270.30        42.77362
270.75        41.94094
271.21        41.21737
271.66        40.60976
272.12        40.10648
272.57        39.69974
273.03        39.30342
273.48        38.74476
273.94        38.05053
274.39        37.24969
274.85        36.48943
275.31        35.84423
275.76         35.3101
276.22        34.87645
276.67        34.50986
277.13        34.25766
277.58        34.05111
278.04        33.90686
278.49        33.67312
278.95        33.24709
279.40        32.57913
279.86        31.79617
280.31        30.98287
280.77         30.3693
281.22        29.94982
281.68        29.70551
282.13        29.52368
282.59        29.33611
283.04        29.08218
283.50        28.80632
283.95        28.51258
284.41        28.22812
284.86        27.96017
285.32        27.71833
285.77         27.4817
286.22        27.28251
286.68        27.12265
287.13        26.96733
287.59        26.82228
288.04        26.64868
288.50        26.46211
288.95        26.24459
289.41        26.01882
289.86        25.75427
290.32        25.48626
290.77        25.21434
291.22        24.97402
291.68        24.80175
292.13         24.6995
292.59        24.67511
293.04        24.72812
293.50        24.87687
293.95        25.10623
294.40        25.40673
294.86         25.7485
295.31        26.07783
295.77        26.38417
296.22         26.6686
296.68        26.94712
297.13        27.23385
297.58        27.54247
298.04         27.8704
298.49        28.21488
298.95        28.59036
299.40        28.98215
299.85        29.37558
300.31        29.75974
300.76        30.10911
301.21         30.4142
301.67        30.69528
302.12        30.90674
302.58        31.03508
303.03        31.06806
303.48        31.04117
303.94        31.03022
304.39        31.11665
304.84         31.3226
305.30        31.62536
305.75        31.93662
306.20        32.17038
306.66          32.307
307.11        32.35676
307.57        32.36199
308.02        32.34662
308.47        32.33132
308.93        32.30935
309.38        32.26519
309.83        32.22181
310.29        32.18093
310.74        32.13807
311.19        32.07573
311.65        31.95725
312.10        31.77569
312.55        31.54509
313.00        31.30571
313.46        31.11499
313.91        30.97249
314.36        30.86911
314.82        30.76538
315.27        30.60708
315.72        30.38131
316.18        30.11662
316.63        29.84252
317.08        29.61819
317.53        29.45382
317.99        29.32109
318.44        29.20041
318.89        29.05016
319.35        28.85841
319.80        28.64273
320.25        28.40435
320.70        28.14437
321.16        27.86878
321.61        27.58647
322.06        27.32233
322.51        27.12133
322.97        26.98663
323.42        26.90568
323.87         26.8477
324.32        26.76719
324.78        26.63481
325.23        26.47113
325.68        26.25621
326.13        25.97299
326.59        25.63335
327.04        25.26394
327.49        24.90632
327.94        24.62564
328.39        24.43374
328.85        24.30143
329.30        24.23201
329.75        24.17921
330.20        24.12349
330.66        24.06925
331.11        24.00292
331.56        23.88563
332.01         23.7123
332.46        23.48369
332.92        23.22812
333.37        23.04207
333.82        22.93766
334.27        22.89843
334.72         22.8864
335.17        22.83136
335.63        22.71323
336.08        22.57168
336.53        22.42991
336.98        22.33249
337.43        22.29473
337.88        22.29358
338.34        22.32748
338.79        22.41992
339.24        22.55066
339.69        22.70659
340.14        22.82867
340.59        22.82508
341.05        22.68574
341.50        22.43763
341.95        22.14591
342.40        21.91143
342.85        21.76706
343.30        21.69049
343.75        21.65889
344.20        21.63331
344.66        21.60258
345.11        21.57788
345.56        21.56302
346.01        21.56085
346.46        21.57237
346.91        21.59241
347.36         21.6088
347.81         21.6098
348.26        21.59243
348.72        21.55736
349.17        21.52268
349.62        21.52832
350.07        21.57966
350.52        21.66911
350.97        21.74563
351.42        21.72834
351.87        21.60423
352.32        21.39713
352.77        21.18504
353.22        21.08245
353.67        21.10899
354.13        21.23438
354.58        21.36579
355.03         21.3542
355.48        21.16758
355.93        20.85617
356.38         20.5309
356.83        20.35528
357.28        20.36197
357.73        20.49972
358.18        20.66318
358.63        20.68224
359.08         20.5152
359.53        20.21714
359.98        19.89096
360.43        19.68772
360.88        19.63848
361.33         19.6937
361.78         19.7629
362.23        19.70508
362.68        19.49256
363.13        19.18076
363.58        18.85999
364.03        18.66453
364.48        18.62526
364.93        18.69495
365.38         18.8052
365.83        18.84712
366.28        18.78657
366.73        18.65635
367.18        18.49322
367.63        18.35487
368.08        18.25615
368.53        18.17155
368.98        18.08287
369.43        17.96423
369.88        17.81014
370.33        17.64069
370.78         17.4619
371.23        17.27996
371.68        17.10574
372.13        16.93923
372.58        16.80658
373.03        16.74854
373.48        16.76414
373.93         16.8331
374.38        16.90709
374.83        16.90884
375.28        16.81918
375.72        16.65867
376.17        16.46885
376.62        16.29316
377.07        16.15009
377.52        16.02748
377.97         15.9326
378.42        15.87867
378.87        15.86201
379.32        15.87585
379.77        15.89563
380.22        15.88229
380.67        15.82338
381.11         15.7291
381.56        15.59937
382.01        15.45827
382.46        15.32466
382.91        15.20524
383.36        15.10448
383.81         15.0238
384.26         14.9613
384.71        14.91367
385.15        14.89237
385.60        14.91803
386.05        14.98485
386.50        15.08078
386.95        15.15935
387.40        15.15321
387.85        15.05559
388.29        14.88318
388.74        14.70925
389.19        14.60159
389.64        14.57111
390.09        14.59096
390.54        14.62068
390.98        14.59069
391.43        14.49439
391.88        14.35742
392.33        14.20862
392.78        14.08576
393.23        13.99954
393.67        13.93155
394.12        13.88673
394.57        13.84488
395.02        13.80077
395.47        13.75629
395.91        13.72067
396.36        13.69882
396.81        13.69907
397.26        13.71674
397.71        13.73373
398.15        13.73392
398.60         13.7298
399.05        13.66823
399.50         13.5801
399.95        13.61024
400.39        13.71936
400.84        13.65621
401.29        13.43575
401.74        13.29536
402.18        13.25305
402.63        13.17427
403.08        13.07638
403.53        13.04362
403.97        13.07821
404.42        13.15413
404.87        13.23623
405.32        13.26559
405.76        13.22629
406.21        13.14433
406.66        13.04776
407.11        12.98342
407.55        12.96782
408.00        12.97777
408.45        13.00289
408.90        13.01907
409.34        13.01388
409.79        12.99687
410.24        12.96541
410.68        12.90847
411.13        12.83062
411.58        12.73322
412.03        12.62659
412.47        12.53619
412.92        12.46987
413.37        12.42758
413.81         12.4059
414.26        12.40695
414.71        12.42308
415.15        12.45723
415.60        12.49337
416.05        12.51236
416.49        12.50917
416.94        12.48466
417.39        12.45293
417.83        12.43792
418.28        12.44284
418.73        12.45724
419.17        12.47136
419.62        12.46925
420.07        12.44729
420.51        12.41188
420.96        12.36574
421.41        12.30945
421.85        12.24356
422.30        12.16652
422.74        12.08882
423.19        12.08179
423.64        12.12846
424.08        12.14778
424.53        12.12705
424.98         12.1409
425.42        12.19356
425.87        12.20557
426.31        12.18048
426.76        12.21551
427.21        12.27664
427.65        12.19169
428.10        12.00868
428.54        11.92819
428.99        11.96901
429.44        12.06878
429.88        12.17225
430.33        12.14633
430.77        12.01888
431.22        12.02571
431.66        12.15486
432.11        12.17468
432.56        12.08383
433.00        12.04992
433.45        12.03715
433.89         11.9036
434.34         11.7467
434.78        11.50032
435.23        11.79841
435.67        11.85786
436.12        11.83516
436.57        11.77077
437.01        11.69201
437.46        11.65086
437.90        11.65128
438.35        11.64207
438.79        11.61859
439.24        11.61443
439.68        11.62835
440.13        11.65076
440.57        11.66862
441.02         11.6718
441.46        11.65751
441.91        11.60198
442.35         11.5228
442.80        11.55712
443.24        11.65789
443.69        11.61943
444.13        11.46809
444.58        11.42943
445.02         11.5087
445.47        11.58634
445.91        11.62715
446.36        11.63292
446.80        11.59339
447.24        11.51276
447.69        11.42105
448.13        11.36045
448.58        11.34497
449.02        11.35978
449.47         11.3913
449.91        11.41112
450.36        11.41419
450.80        11.41052
451.25        11.40401
451.69        11.39381
452.13         11.3822
452.58        11.36154
453.02        11.34402
453.47        11.35294
453.91        11.38939
454.36        11.44967
454.80        11.49755
455.24        11.47299
455.69        11.37352
456.13        11.21462
456.58         11.0626
457.02        10.99714
457.46        11.03795
457.91        11.15565
458.35        11.28847
458.79        11.33922
459.24        11.29632
459.68        11.18547
460.13        11.06872
460.57         11.0071
461.01        11.02535
461.46        11.08991
461.90        11.17951
462.34        11.24882
462.79         11.2778
463.23        11.28638
463.68        11.27091
464.12        11.23256
464.56          11.175
465.01        11.11042
465.45        11.04176
465.89        11.00556
466.34        11.00492
466.78        11.03007
467.22        11.06627
467.67        11.07539
468.11        11.05473
468.55        11.01132
468.99        10.96523
469.44        10.94705
469.88        10.96504
470.32        11.00837
470.77        11.06323
471.21        11.11036
471.65        11.14061
472.10        11.16066
472.54        11.17117
472.98        11.17865
473.42        11.18504
473.87        11.19079
474.31        11.18836
474.75        11.17854
475.20        11.16546
475.64        11.14769
476.08        11.13337
476.52        11.12753
476.97        11.13195
477.41        11.15049
477.85        11.18295
478.29        11.21151
478.74        11.24256
479.18        11.30552
479.62        11.38638
480.06        11.44475
480.50        11.47711
480.95        11.48578
481.39        11.47357
481.83        11.55577
482.27        11.56795
482.72        11.64867
483.16        11.73605
483.60          11.787
484.04        11.78274
484.48        11.80458
484.93        11.92513
485.37        11.85606
485.81        11.94089
486.25        12.26232
486.69        12.20587
487.14        12.00818
487.58        12.53196
488.02         12.5362
488.46        12.35244
488.90        12.39493
489.34        12.46154
489.79        12.55258
490.23        12.56308
490.67        12.70093
491.11        12.90699
491.55        12.92065
491.99        12.78085
492.43        12.76205
492.88        12.88594
493.32        12.99691
493.76        13.07609
494.20        13.17421
494.64        13.28976
495.08        13.38114
495.52        13.45192
495.96         13.5961
496.41        13.78466
496.85        13.80938
497.29        13.69953
497.73        13.82192
498.17        13.97702
498.61        14.07559
499.05        14.05842
499.49         14.0943
499.93        14.16283
500.37        14.32704
500.82        14.54104
501.26        14.68949
501.70        14.75385
502.14        14.79885
502.58         14.8494
503.02        14.91571
503.46        15.00525
503.90        15.11289
504.34         15.2177
504.78        15.28516
505.22        15.30799
505.66        15.30023
506.10         15.2819
506.54        15.28391
506.98        15.31616
507.42        15.36924
507.86        15.43713
508.30        15.50958
508.74        15.58021
509.18        15.65116
509.62        15.71617
510.06        15.76525
510.50        15.79684
510.94        15.81249
511.38        15.82014
511.82        15.83381
512.26        15.85828
512.70        15.89163
513.14         15.9301
513.58        15.96645
514.02        15.99854
514.46        16.02833
514.90        16.05906
515.34        16.09554
515.78        16.13762
516.22        16.18175
516.66        16.22095
517.10        16.24539
517.54        16.25243
517.98        16.24446
518.42        16.22783
518.86        16.21291
519.30        16.20293
519.74        16.19617
520.18        16.18811
520.62        16.17061
521.06        16.14336
521.50        16.11139
521.93        16.08273
522.37        16.06362
522.81        16.05797
523.25         16.0598
523.69        16.06535
524.13        16.06969
524.57        16.06808
525.01        16.05945
525.45        16.03696
525.89        15.98993
526.32        15.91814
526.76        15.83344
527.20        15.74493
527.64        15.66811
528.08         15.6088
528.52        15.56185
528.96        15.53334
529.40        15.53147
529.83        15.55263
530.27        15.59343
530.71        15.62731
531.15        15.61387
531.59        15.54562
532.03        15.43274
532.46        15.30562
532.90        15.22434
533.34        15.19998
533.78        15.20986
534.22        15.22428
534.66        15.21495
535.09        15.16216
535.53        15.04741
535.97        14.90985
536.41        14.84851
536.85        14.87704
537.28        14.95009
537.72        15.03875
538.16        15.10775
538.60        15.14257
539.04        15.15634
539.47        15.15608
539.91        15.16163
540.35         15.1785
540.79        15.20248
541.22        15.23914
541.66        15.30439
542.10        15.39607
542.54        15.50838
542.97        15.62802
543.41        15.73913
543.85        15.83413
544.29        15.91979
544.72        15.99334
545.16        16.06281
545.60        16.13099
546.04        16.20123
546.47        16.28923
546.91        16.41658
547.35        16.58266
547.79        16.77698
548.22        16.97871
548.66        17.15314
549.10        17.31066
549.53        17.45075
549.97         17.5771
550.41        17.65346
550.84        17.69797
551.28        17.77596
551.72         17.8851
552.15        17.98855
552.59        18.10076
553.03        18.14637
553.46        18.34199
553.90         18.4695
554.34        18.58906
554.77        18.70706
555.21        18.83063
555.65        18.96129
556.08        19.09156
556.52        19.20588
556.96        19.29067
557.39        19.37915
557.83        19.45659
558.27        19.41791
558.70        19.30354
559.14        19.29362
559.57        19.38958
560.01        19.48465
560.45           19.56
560.88        19.64701
561.32        19.74808
561.75        19.83376
562.19        19.90807
562.63        19.97333
563.06        20.02785
563.50        20.07403
563.93        20.10374
564.37        20.15749
564.80        20.24617
565.24        20.31095
565.68        20.30906
566.11        20.61437
566.55        20.48678
566.98        20.54795
567.42        20.61383
567.85        20.71852
568.29        20.87044
568.72        21.06681
569.16        21.31679
569.60        21.51042
570.03        21.71967
570.47        21.93686
570.90         22.1549
571.34        22.17895
571.77        22.38571
572.21         22.3941
572.64        22.31751
573.08        22.62431
573.51        22.75729
573.95        22.95227
574.38        23.01516
574.82        23.38235
575.25        23.10671
575.69        23.18636
576.12        23.20062
576.56        23.20439
576.99         23.6464
577.42        23.45514
577.86        23.26092
578.29        23.87492
578.73        23.46403
579.16        23.42428
579.60        23.16412
580.03        23.15588
580.47        23.10948
580.90        23.22388
581.33        23.12333
581.77        23.34686
582.20        23.16979
582.64        22.99354
583.07        22.79319
583.51        22.56797
583.94        22.44552
584.37        22.41152
584.81        22.45221
585.24        22.36016
585.68        22.14516
586.11        22.07344
586.54        21.89407
586.98        21.79035
587.41        21.66198
587.85        21.81961
588.28        21.54512
588.71         21.5492
589.15        21.48448
589.58        21.50534
590.01        21.44434
590.45        21.45562
590.88        21.49518
591.31        21.43497
591.75          21.344
592.18        21.33576
592.61        21.39041
593.05        21.76805
593.48        21.98186
593.91        21.72813
594.35        21.75565
594.78        21.67332
595.21        21.75828
595.65        21.92649
596.08        22.20433
596.51        22.35261
596.94         22.2914
597.38        22.43169
597.81        22.77369
598.24        23.00063
598.68        23.11563
599.11         23.5384
599.54        23.98394
599.97        23.81147
600.41        24.44548
600.84        24.51885
601.27        24.83964
601.70        25.08281
602.14        25.35826
602.57        25.68815
603.00         26.1001
603.43        26.28699
603.87          27.033
604.30        27.38818
604.73        27.65028
605.16        27.94067
605.60         28.3314
606.03        28.66561
606.46        28.95128
606.89        29.25776
607.32         30.0008
607.76        30.30078
608.19        30.66924
608.62        30.89194
609.05        31.21893
609.48        31.57331
609.92        32.28228
610.35        32.87848
610.78        32.64793
611.21        32.78339
611.64        33.27486
612.07        33.66223
612.50        33.81775
612.94        34.06838
613.37        34.35632
613.80        34.69346
614.23         34.6843
614.66        35.02125
615.09         35.5407
615.52        35.95645
615.96        36.19804
616.39        36.36123
616.82        36.51033
617.25         36.5967
617.68        36.81596
618.11        37.19246
618.54        37.69245
618.97        37.95273
619.40        37.97055
619.84        38.21915
620.27        38.34565
620.70        38.52643
621.13        38.63217
621.56        38.51439
621.99        38.23982
622.42        38.37739
622.85        38.72271
623.28        38.77329
623.71        38.84157
624.14        39.12043
624.57        39.28902
625.00        39.22633
625.43         39.2886
625.86        39.23924
626.29         39.1622
626.72        38.77186
627.15        38.82839
627.58        38.68728
628.01        38.49704
628.44        38.29755
628.87        37.90899
629.30        37.45102
629.73        37.15647
630.16        37.23822
630.59        36.79636
631.02        36.70326
631.45        36.62128
631.88         36.4367
632.31        36.11221
632.74        35.69706
633.17        35.22487
633.60        34.72706
634.03        34.22839
634.46        33.71815
634.89        33.20995
635.32        32.73371
635.75        32.29791
636.18        31.87045
636.61        31.45005
637.04        31.04524
637.47        30.65009
637.89        30.25567
638.32        29.85849
638.75        29.48844
639.18         29.1539
639.61         28.8489
640.04        28.56789
640.47        28.29805
640.90        28.03418
641.33        27.78315
641.76         27.5463
642.18        27.33057
642.61        27.13399
643.04        26.95855
643.47        26.81809
643.90         26.7337
644.33        26.70692
644.76        26.73344
645.18         26.7868
645.61        26.81707
646.04        26.81767
646.47        26.80414
646.90        26.81754
647.33        26.91691
647.75        27.11086
648.18        27.41683
648.61        27.80366
649.04        28.12521
649.47        28.34189
649.89        28.87916
650.32        29.01532
650.75        29.48105
651.18        30.01888
651.61         30.5036
652.03         30.9329
652.46        31.33667
652.89        31.74961
653.32        32.23767
653.74         32.9012
654.17         33.1929
654.60        33.83252
655.03        34.27964
655.46        34.64766
655.88        34.91625
656.31        37.66199
656.74        40.09504
657.16        39.69599
657.59        39.21153
658.02         38.2911
658.45        38.25674
658.87        38.39811
659.30        38.64642
659.73        39.47082
660.15        39.99061
660.58        39.88629
661.01          40.094
661.44        40.52327
661.86        40.84223
662.29         41.0051
662.72        41.56267
663.14        41.72223
663.57        42.02502
664.00        42.27381
664.42        42.60602
664.85        43.03825
665.27        43.51874
665.70        43.95808
666.13        44.27036
666.55        44.43718
666.98        44.43672
667.41        44.34612
667.83        44.57894
668.26        44.70719
668.69        45.07011
669.11        45.46399
669.54        45.78124
669.96        45.99245
670.39        46.12993
670.82        46.24909
671.24        46.41727
671.67        46.64883
672.09        46.90373
672.52        47.15934
672.94        47.35773
673.37        47.49371
673.80        47.58621
674.22        47.66609
674.65        47.75285
675.07        47.86997
675.50        48.00034
675.92        48.13938
676.35        48.27107
676.77        48.39262
677.20        48.51158
677.62         48.6414
678.05        48.77344
678.47        48.90181
678.90        49.07581
679.32        49.29793
679.75        49.31791
680.17        49.55017
680.60         49.6675
681.02        49.79663
681.45        49.92236
681.87        50.06608
682.30        50.21726
682.72        50.37737
683.15         50.5678
683.57        50.76466
684.00        50.82739
684.42        50.80109
684.85        50.91616
685.27        51.19629
685.70        51.45608
686.12        51.61092
686.54        51.91533
686.97        52.06264
687.39        51.77927
687.82        51.95021
688.24         51.8988
688.66        51.92761
689.09        51.99706
689.51        52.11724
689.94        52.26199
690.36        52.42055
690.78        52.55932
691.21        52.69601
691.63        52.90584
692.06        53.13092
692.48        53.23776
692.90        53.28032
693.33        53.05637
693.75        53.33577
694.17        53.38782
694.60        53.49081
695.02        53.49623
695.44        53.82159
695.87        54.12897
696.29        54.43842
696.71        54.30851
697.14        53.87816
697.56         53.8229
697.98        54.21707
698.41        54.40995
698.83        54.40607
699.25        54.60231
699.68         54.9175
700.10        55.06908
700.52         55.0096
700.94        54.83072
701.37        54.65243
701.79        54.67625
702.21        54.93819
702.64         55.3559
703.06        55.81174
703.48        56.10171
703.90        56.16907
704.33        56.08047
704.75        55.91755
705.17        55.80489
705.59        55.79343
706.01        55.84518
706.44        55.95405
706.86         56.1302
707.28        56.35109
707.70        56.60392
708.12        56.86118
708.55        57.09791
708.97        57.28514
709.39        57.34528
709.81        57.31034
710.23        57.32955
710.66         57.4221
711.08        57.53122
711.50        57.60668
711.92        57.61438
712.34        57.55535
712.76        57.44588
713.19        57.32212
713.61         57.3196
714.03        57.47058
714.45        57.55714
714.87        57.80539
715.29        58.08985
715.71        58.49457
716.13        58.44498
716.56        58.87675
716.98        59.02161
717.40        59.12863
717.82        59.18474
718.24        59.18237
718.66        59.05427
719.08        58.88182
719.50         58.6536
719.92        58.45602
720.34        58.40955
720.76        58.54071
721.19        58.69178
721.61        59.03306
722.03        59.35437
722.45        59.66419
722.87        59.95906
723.29        60.16676
723.71         60.1739
724.13         59.9737
724.55        59.61158
724.97        59.21368
725.39         58.9944
725.81        59.01426
726.23        59.20126
726.65        59.47208
727.07         59.8171
727.49        59.97203
727.91         60.1405
728.33        60.28287
728.75        60.44557
729.17        60.63186
729.59        60.81201
730.01        60.95028
730.43        60.99693
730.85        60.94711
731.27        60.82705
731.69        60.68629
732.10        60.59513
732.52        60.57043
732.94        60.60895
733.36        60.70676
733.78        60.70644
734.20        60.57569
734.62        60.65304
735.04        61.01041
735.46        60.44537
735.88        60.84373
736.30        61.13718
736.72        61.76719
737.13        62.17137
737.55        62.21143
737.97        62.21397
738.39        62.17674
738.81        61.79849
739.23        61.26715
739.65        61.32936
740.06        61.87029
740.48        62.14539
740.90        62.08879
741.32        62.13151
741.74        62.32161
742.16        62.49541
742.57        62.64522
742.99         62.8469
743.41        63.03048
743.83        62.93672
744.25        62.62814
744.67        62.45357
745.08        62.47321
745.50        62.49631
745.92        62.53418
746.34        62.68837
746.75        62.90519
747.17        63.10419
747.59        63.01411
748.01        63.02708
748.42        63.04549
748.84        62.75808
749.26          62.334
749.68        62.35759
750.09        62.79076
750.51        63.19296
750.93        63.43079
751.35        63.30051
751.76        62.90249
752.18        62.67928
752.60        62.66354
753.01        62.67467
753.43        62.50751
753.85        62.46817
754.27        62.51901
754.68        62.64259
755.10        62.81601
755.52        63.00073
755.93        63.15199
756.35        63.25206
756.77        63.39375
757.18        63.49538
757.60        63.58716
758.02        64.16661
758.43        64.95255
758.85         64.0755
759.26        63.68481
759.68        62.43563
760.10         62.9775
760.51        63.51651
760.93         64.3931
761.34        64.28209
761.76        64.45045
762.18        64.28324
762.59        64.29194
763.01        64.41561
763.42         64.6692
763.84        64.75061
764.26        64.62774
764.67        64.48103
765.09        64.37599
765.50        64.17467
765.92        63.97522
766.33        63.94115
766.75         63.9904
767.16        64.04264
767.58        64.03787
768.00        63.89923
768.41        63.73898
768.83        64.11328
769.24         64.7985
769.66        64.97144
770.07        64.62205
770.49        64.09267
770.90        63.67926
771.32        64.12726
771.73        65.20554
772.15        65.64701
772.56        65.37296
772.97        64.98407
773.39        64.61074
773.80        64.90718
774.22        64.66116
774.63        64.93507
775.05         65.2211
775.46        65.39318
775.88         65.3727
776.29         65.2552
776.70        65.11626
777.12        65.06631
777.53         65.1367
777.95        65.22486
778.36        65.34013
778.77        65.41289
779.19        65.43805
779.60        65.63306
780.02        65.84421
780.43        65.55991
780.84        64.98596
781.26        64.63234
781.67        64.68846
782.09        65.56922
782.50        66.83472
782.91        66.82964
783.33        65.71371
783.74        65.32546
784.15        65.74752
784.57        65.96874
784.98        65.98022
785.39        65.69416
785.81        65.97803
786.22        66.31638
786.63        66.83453
787.04         67.0889
787.46        67.04451
787.87        66.88274
788.28        66.71698
788.70        66.61604
789.11        66.59146
789.52        66.74265
789.93        66.96461
790.35        66.86285
790.76        66.49949
791.17         66.3874
791.58        66.56665
792.00        66.55455
792.41        66.34497
792.82        66.51815
793.23         66.9362
793.65        66.52909
794.06        65.65366
794.47        65.99872
794.88        67.24045
795.29        68.07216
795.71        67.23828
796.12        66.91998
796.53        66.92238
796.94        66.47283
797.35        65.86547
797.76        66.45877
798.18        67.92542
798.59        68.57202
799.00         68.2065
799.41        67.52375
799.82        67.11861
800.23        66.79281
800.64         66.7495
801.06        66.90508
801.47        67.17966
801.88        67.35147
802.29        67.33973
802.70         67.2117
803.11        67.00273
803.52        66.77045
803.93        66.57677
804.34        66.41344
804.75        66.31435
805.17         66.4584
805.58        66.91271
805.99        67.21558
806.40        67.37936
806.81        68.37444
807.22        69.71004
807.63        69.20918
808.04        67.24939
808.45        66.37425
808.86        66.82081
809.27        67.25665
809.68        67.43279
810.09        67.55724
810.50        67.54006
810.91        67.29762
811.32        67.05051
811.73        67.16614
812.14        67.65845
812.55        68.42565
812.96        69.17144
813.37        69.11895
813.78        68.32859
814.19        67.77213
814.60        67.56503
815.01        67.17725
815.42        66.66062
815.83        66.40658
816.24         66.4411
816.65        66.56259
817.05        66.74763
817.46        67.02705
817.87         67.3585
818.28        67.62466
818.69        67.80125
819.10        67.88213
819.51         67.9048
819.92        68.00043
820.33        68.19672
820.74        68.34076
821.14        68.40504
821.55        68.59736
821.96        68.79063
822.37        68.44025
822.78        67.68877
823.19        67.30916
823.60        67.40341
824.00        67.59953
824.41        67.76693
824.82        67.96088
825.23        68.12665
825.64        68.24277
826.04        68.32503
826.45        68.36195
826.86        68.37006
827.27        68.36072
827.68        68.31133
828.08        68.21272
828.49        68.02957
828.90        67.79829
829.31         67.6311
829.72        67.70587
830.12        68.07114
830.53        68.61166
830.94        69.15503
831.35        69.35646
831.75        69.14021
832.16        68.59103
832.57        67.91176
832.97        67.40788
833.38        67.18269
833.79        67.13949
834.20        67.23848
834.60        67.40897
835.01        67.61404
835.42        67.92336
835.82        68.26676
836.23        68.43284
836.64        68.40792
837.04        68.19818
837.45         68.0098
837.86        68.25599
838.26        69.02485
838.67        70.14715
839.08        71.23803
839.48        71.57084
839.89        70.96443
840.29        69.69043
840.70        68.32731
841.11        67.52368
841.51        67.45314
841.92        67.90755
842.33          68.658
842.73        69.29457
843.14         69.5528
843.54        69.60158
843.95        69.54744
844.35        69.61348
844.76        69.83261
845.17        70.10721
845.57        70.31753
845.98        70.26153
846.38        69.92698
846.79        69.39606
847.19        68.83317
847.60        68.46539
848.00        68.37296
848.41        68.47216
848.81        68.69607
849.22        68.84504
849.62        68.89692
850.03        68.89201
850.43        68.88691
850.84         68.9044
851.24        69.00336
851.65        69.09918
852.05        69.27333
852.46         69.5591
852.86        69.93914
853.27        70.38222
853.67        70.72026
854.07        70.84232
854.48        70.70501
854.88        70.36647
855.29        69.87601
855.69        69.46738
856.10        69.15629
856.50        68.97755
856.90        68.84436
857.31        68.62163
857.71        68.33332
858.12        67.96859
858.52         67.6619
858.92        67.51363
859.33        67.53228
859.73        67.72308
860.13        67.93944
860.54        67.96321
860.94        67.78685
861.34        67.45908
861.75        67.12614
862.15        67.07481
862.55        67.34766
862.96        67.81366
863.36        68.36717
863.76        68.74609
864.17        68.84344
864.57        68.75913
864.97         68.4921
865.38        68.05245
865.78        67.50581
866.18        66.85012
866.58        66.22084
866.99        65.86467
867.39        65.87372
867.79        66.18819
868.19        66.66226
868.60        67.02733
869.00        67.23479
869.40        67.32513
869.80        67.36266
870.21        67.47128
870.61        67.73904
871.01        68.05353
871.41        68.30561
871.81        68.36448
872.22        68.20423
872.62        67.85911
873.02        67.47733
873.42        67.29679
873.82         67.3758
874.22        67.65195
874.63        67.91646
875.03        67.85661
875.43        67.39936
875.83        66.65411
876.23        65.87851
876.63        65.46049
877.03        65.49688
877.44         65.8643
877.84        66.34299
878.24        66.57048
878.64        66.40438
879.04        65.81941
879.44        65.15886
879.84        65.04959
880.24        65.56148
880.64        66.45227
881.04        67.28236
881.44        67.36167
881.84        66.55134
882.24        65.11662
882.65         63.5775
883.05         62.7282
883.45        62.78222
883.85        63.51226
884.25        64.57218
884.65        65.36048
885.05        65.66894
885.45        65.67522
885.85        65.55718
886.25        65.58569
886.65        65.83929
887.05         66.1963
887.45        66.55806
887.85        66.79464
888.25        66.85372
888.65        66.78336
889.04         66.6479
889.44        66.55901
889.84         66.5378
890.24        66.56967
890.64         66.5755
891.04         66.4343
891.44        66.13871
891.84        65.74158
892.24        65.39967
892.64        65.33398
893.04        65.58666
893.44        66.10888
893.83        66.72698
894.23        67.09468
894.63        67.14497
895.03        66.94121
895.43        66.71072
895.83        66.84453
896.23        67.39682
896.63        68.19539
897.02        68.92233
897.42        69.10098
897.82        68.63826
898.22         67.7679
898.62        66.72414
899.01        65.83709
899.41        65.25014
899.81        64.84615
900.21         64.7055
900.61         64.9537
901.00        65.55653
901.40        66.47455
901.80        67.38876
902.20        67.77086
902.59        67.52266
902.99        66.76919
903.39        65.86688
903.79        65.42741
904.18         65.5911
904.58        66.15641
904.98        66.86829
905.38        67.34164
905.77        67.47152
906.17        67.42482
906.57        67.22618
906.96        66.91457
907.36        66.53176
907.76        66.05103
908.15        65.69524
908.55        65.80781
908.95        66.43336
909.34        67.49105
909.74         68.5583
910.14        69.00478
910.53        68.66359
910.93        67.76153
911.33        66.65888
911.72         65.9166
912.12        65.74714
912.52        65.95752
912.91        66.37768
913.31        66.77325
913.70         67.0519
914.10        67.26394
914.49        67.46407
914.89         67.6396
915.29        67.81285
915.68        67.97206
916.08        68.00946
916.47        67.84604
916.87        67.50109
917.26        66.98953
917.66        66.55659
918.05        66.43009
918.45         66.6532
918.84         67.2068
919.24        67.79712
919.64        68.03976
920.03         67.8466
920.42        67.29414
920.82        66.72313
921.21        66.61381
921.61        67.04887
922.00        67.91734
922.40        68.84773
922.79        69.32234
923.19        69.15955
923.58        68.56884
923.98         67.8524
924.37         67.3869
924.77        67.29039
925.16        67.38833
925.55        67.60184
925.95        67.78215
926.34        67.87048
926.74        67.91271
927.13        67.81228
927.52        67.33598
927.92        66.54104
928.31        65.51158
928.70        64.54733
929.10        64.08076
929.49         64.1864
929.89        64.68295
930.28        65.46448
930.67        66.21391
931.07        66.75928
931.46        67.25479
931.85        67.50779
932.24        67.27042
932.64        66.59987
933.03         65.5415
933.42        64.59197
933.82        64.48414
934.21        65.34215
934.60        67.00734
934.99        68.91328
935.39        70.00887
935.78        70.01497
936.17        69.11903
936.56         67.8663
936.96        67.13703
937.35        67.15961
937.74        67.66823
938.13        68.21217
938.53        68.10476
938.92        67.22549
939.31        65.90329
939.70        64.57016
940.09        63.80381
940.49        63.71576
940.88        64.13393
941.27         64.8751
941.66        65.59691
942.05        66.14535
942.44        66.63734
942.84        67.03892
943.23        67.29024
943.62        67.40167
944.01        67.29865
944.40        67.17464
944.79        67.39477
945.18        67.99785
945.57        68.88546
945.97        69.61497
946.36        69.53011
946.75        68.48098
947.14        66.78542
947.53        64.98924
947.92        63.85025
948.31        63.56108
948.70        63.92319
949.09        64.67896
949.48         65.3733
949.87        65.81705
950.26        66.10204
950.65        66.33183
951.04         66.6824
951.43        67.17595
951.82        67.70332
952.21         68.0658
952.60        67.98833
952.99        67.46519
953.38        66.65622
953.77        65.85232
954.16        65.49558
954.55        65.67678
954.94        66.21976
955.33        66.96304
955.72        67.59843
956.11        67.98077
956.50        68.23412
956.89        68.17113
957.28        67.50515
957.66         66.2695
958.05        64.60418
958.44        63.09005
958.83         62.5737
959.22        63.16338
959.61        64.63197
960.00        66.31763
960.39        66.96375
960.78        66.22014
961.16        64.51313
961.55        62.56269
961.94        61.31413
962.33        61.02892
962.72        61.46138
963.11        62.35053
963.49        63.21809
963.88         63.7433
964.27        64.02674
964.66        64.26498
965.04        64.79188
965.43        65.60786
965.82        66.62936
966.21        67.35751
966.60         66.9249
966.98         65.2183
967.37        62.74307
967.76        60.40082
968.15        59.28074
968.53        59.56466
968.92        60.97074
969.31         62.9444
969.69        64.31782
970.08        64.54687
970.47        63.96122
970.86        63.11507
971.24        62.82509
971.63        63.28526
972.02        64.23087
972.40        65.27007
972.79        65.44545
973.17        64.59148
973.56        63.12349
973.95        61.63647
974.33        60.84002
974.72         60.8872
975.11        61.53873
975.49        62.55056
975.88        63.37499
976.26        63.82204
976.65        63.98886
977.04        63.96265
977.42        63.85889
977.81          63.702
978.19        63.40905
978.58        63.15316
978.96        63.19973
979.35        63.56356
979.74        64.21664
980.12        64.95199
980.51        65.15064
980.89        64.79821
981.28        64.06141
981.66        63.28954
982.05        62.95145
982.43        63.16752
982.82        63.76985
983.20        64.70657
983.59        65.75616
983.97        66.84825
984.35        67.99187
984.74        68.87786
985.12        69.24917
985.51        68.99082
985.89        68.18374
986.28        67.25454
986.66        66.78911
987.04        66.98408
987.43        67.67047
987.81        68.52706
988.20        68.79029
988.58        68.26831
988.96        67.13999
989.35        65.82913
989.73        64.91898
990.12        64.52058
990.50         64.4986
990.88         64.5084
991.27        63.98528
991.65        62.86234
992.03        61.43123
992.42        60.18647
992.80        59.74146
993.18          60.237
993.56        61.48048
993.95        63.06964
994.33        64.40411
994.71        65.07272
995.10        65.27676
995.48        65.19526
995.86        65.24354
996.24         65.5407
996.63        65.78685
997.01        66.05521
997.39         66.1897
997.77        66.12027
998.15        66.04787
998.54        65.81297
998.92        64.99883
999.30        63.71483
999.68        62.14045
1000.06        60.94338
1000.45        61.04687
1000.83        62.69394
1001.21        65.69205
1001.59        69.33477
1001.97        71.79757
1002.35        72.30367
1002.73        71.38587
1003.12        69.92185
1003.50         68.9789
1003.88        68.95542
1004.26        69.34806
1004.64        70.21247
1005.02        71.60607
1005.40        73.30139
1005.78        75.41627
1006.16        76.87957
1006.54        75.97492
1006.92        72.68798
1007.30        67.72714
1007.69        62.93359
1008.07        60.76864
1008.45         61.9168
1008.83        65.81116
1009.21        71.20744
1009.59        74.90797
1009.97        75.24421
1010.35        73.06132
1010.73        69.43756
1011.11        65.96036
1011.49        63.34657
1011.86        61.31559
1012.24        59.91006
1012.62        59.18736
1013.00        59.07096
1013.38        59.50889
1013.76        60.78843
1014.14        63.15929
1014.52        66.31702
1014.90        69.90174
1015.28        72.50066
1015.66        72.40824
1016.04        69.52593
1016.41        64.28778
1016.79        58.50198
1017.17        55.66716
1017.55        56.75181
1017.93        60.67864
1018.31        65.40005
1018.69        67.97652
1019.06        67.70179
1019.44        65.26585
1019.82        61.67789
1020.20        59.43464
1020.58        59.59605
1020.95        61.07714
1021.33        62.90879
1021.71        63.90989
1022.09        63.85874
1022.46        63.36671
1022.84        62.35811
1023.22        60.81799
1023.60         59.0953
1023.97        57.09303
1024.35        55.87859
1024.73        56.55716
