SpectraSmart Spectrum 2.9.0.0
--------- Device Information -----------
Spectrum Name :  反射率_0
Saving Time :  2024/04/27 00:17:48
Spectro-Module Model Name : SE2030-DUVN
Spectro-Module Serial Number : OS361AC55029948
Wavelength Start : 200
Wavelength End : 1025
Wavelength Unit : Wavelength(nm)
Spectrum Unit : Reflectance(%)
-----------Spectrum Setting ------------
Integration Time : 20ms
Average : 10
Boxcar : 0
Background removal :  enabled
linearity correction :  enabled
SC :  disabled
Intensity correction :  disabled
DWT denoise :  enabled
savitzky-golay :  disabled
FFT :  disabled
Running average :  disabled
Kalman :  disabled
High pass :  disabled
---------------BEGIN--------------------
Wavelength(nm)             Reflectance(%)
200.29               0
200.75        20.71797
201.21        25.40052
201.67        29.69122
202.13        31.46049
202.58        30.50706
203.04        27.89188
203.50          23.976
203.96        20.30176
204.42        18.37138
204.88        17.66078
205.34        18.79108
205.80        22.31314
206.26        27.15265
206.72        32.38237
207.18        35.87318
207.64        35.75489
208.10        31.98492
208.55        24.34352
209.01         13.0146
209.47        6.141858
209.93        8.902076
210.39        16.24101
210.85        23.29322
211.31         28.6293
211.77        33.89759
212.23        42.84979
212.69        63.21665
213.14        98.30373
213.60        98.27988
214.06        73.72209
214.52        57.04581
214.98        50.51535
215.44         48.8412
215.90        48.79408
216.36        49.21308
216.81        48.34936
217.27        45.80264
217.73         42.4688
218.19         37.4677
218.65        31.11411
219.11        27.00196
219.57        25.54085
220.02        27.17161
220.48        33.13757
220.94        44.26133
221.40        62.97225
221.86        89.40971
222.32        107.9211
222.77        103.8444
223.23        87.22556
223.69        69.83773
224.15          58.673
224.61        53.00465
225.06        49.78204
225.52        48.84304
225.98        50.02871
226.44        52.85275
226.90        57.37697
227.36        61.98575
227.81        63.64814
228.27        62.07599
228.73        58.30595
229.19        54.63213
229.65        53.77878
230.10        55.82906
230.56        59.79392
231.02        63.82504
231.48        64.99765
231.93        62.84218
232.39        59.01165
232.85        55.08837
233.31        53.06783
233.77        53.19355
234.22        54.69045
234.68        56.80095
235.14         58.5015
235.60        59.40359
236.05        59.92141
236.51         59.9522
236.97        59.35717
237.43        58.17973
237.88        56.34925
238.34        54.38836
238.80        53.47427
239.26        53.99936
239.71        56.38706
240.17        59.80686
240.63        62.02719
241.08        61.68845
241.54        58.37083
242.00        54.31748
242.46        54.20066
242.91        61.06897
243.37        76.87994
243.83        102.1048
244.28        123.9286
244.74        124.4162
245.20         103.683
245.66        78.91391
246.11        65.89195
246.57        64.96791
247.03        70.99411
247.48        77.76644
247.94        75.30113
248.40        65.10434
248.85        53.88941
249.31        45.42952
249.77        41.07784
250.22        39.89978
250.68        40.56734
251.14        42.98351
251.59        46.38119
252.05        49.68958
252.51        53.19844
252.96        54.74051
253.42        52.80133
253.88        48.45751
254.33        42.77507
254.79        39.31185
255.25         41.0913
255.70        47.60604
256.16        57.36983
256.62        66.44224
257.07        68.68472
257.53        65.15189
257.99        59.48636
258.44        54.67245
258.90        53.32601
259.35        54.42993
259.81         56.9484
260.27        59.33638
260.72        59.76439
261.18        58.44896
261.63        56.08749
262.09        53.98009
262.55        52.98526
263.00        52.96697
263.46        53.57616
263.91        54.01973
264.37        53.60841
264.83        52.29663
265.28        50.45893
265.74        48.77293
266.19        47.76199
266.65         47.5573
267.11         47.8266
267.56        48.26574
268.02        48.40818
268.47        48.10332
268.93        47.54032
269.38        46.78363
269.84        45.98595
270.30        45.20114
270.75        44.36475
271.21        43.59405
271.66        43.01928
272.12        42.65831
272.57        42.45802
273.03         42.2778
273.48        41.85703
273.94        41.20283
274.39        40.37727
274.85        39.56955
275.31        38.90055
275.76        38.37494
276.22        37.96437
276.67        37.61412
277.13        37.35511
277.58        37.10492
278.04        36.88715
278.49        36.55202
278.95        36.00456
279.40        35.20094
279.86        34.28407
280.31        33.32675
280.77        32.55159
281.22        31.95524
281.68        31.52438
282.13        31.18926
282.59        30.94419
283.04        30.72701
283.50        30.56805
283.95         30.3893
284.41        30.08702
284.86        29.65499
285.32        29.15728
285.77        28.68626
286.22        28.43959
286.68        28.43523
287.13        28.56342
287.59        28.72973
288.04        28.73882
288.50        28.56798
288.95        28.25824
289.41        27.87114
289.86        27.42888
290.32        26.99601
290.77        26.55009
291.22          26.168
291.68        25.94944
292.13        25.89699
292.59        26.00559
293.04        26.19203
293.50        26.33923
293.95        26.40639
294.40        26.42289
294.86        26.45679
295.31         26.6112
295.77        26.90907
296.22         27.3004
296.68         27.7092
297.13        28.00584
297.58        28.17185
298.04        28.25601
298.49        28.33179
298.95        28.53106
299.40        28.87167
299.85        29.30096
300.31         29.7569
300.76        30.13692
301.21        30.41202
301.67        30.63053
302.12        30.78013
302.58        30.89546
303.03        30.97119
303.48        31.01546
303.94        31.07572
304.39        31.19664
304.84        31.38915
305.30        31.64352
305.75         31.8821
306.20        32.03327
306.66         32.0883
307.11         32.0614
307.57        31.99834
308.02        31.92808
308.47        31.87441
308.93        31.82926
309.38        31.78791
309.83        31.78803
310.29        31.82653
310.74        31.88781
311.19        31.92169
311.65        31.84012
312.10        31.62578
312.55        31.31077
313.00         30.9664
313.46         30.6977
313.91        30.51948
314.36        30.41137
314.82        30.32636
315.27        30.19604
315.72        30.00049
316.18        29.77292
316.63        29.54048
317.08        29.35674
317.53        29.23087
317.99        29.13445
318.44         29.0463
318.89        28.92498
319.35        28.75884
319.80        28.56312
320.25        28.34794
320.70        28.12888
321.16        27.91313
321.61        27.70618
322.06        27.51308
322.51        27.34556
322.97        27.20084
323.42        27.07768
323.87        26.97382
324.32        26.88902
324.78        26.80832
325.23        26.74454
325.68        26.65213
326.13        26.46805
326.59        26.18554
327.04        25.83387
327.49        25.48468
327.94        25.25355
328.39        25.16093
328.85        25.16563
329.30        25.21307
329.75        25.15269
330.20        24.94627
330.66        24.63823
331.11        24.31341
331.56        24.08715
332.01        23.99358
332.46        23.99002
332.92         24.0245
333.37        24.05005
333.82        24.02375
334.27        23.96344
334.72        23.86846
335.17        23.73427
335.63        23.56694
336.08        23.38571
336.53        23.20316
336.98        23.05171
337.43        22.94551
337.88        22.87492
338.34        22.85879
338.79        22.94706
339.24        23.12302
339.69        23.36246
340.14        23.57552
340.59        23.62063
341.05        23.47806
341.50        23.19358
341.95        22.85797
342.40        22.61373
342.85        22.50446
343.30        22.48831
343.75        22.54042
344.20        22.61879
344.66        22.70056
345.11        22.79564
345.56        22.87199
346.01        22.87562
346.46        22.80474
346.91          22.679
347.36        22.53998
347.81        22.46015
348.26        22.45849
348.72        22.51056
349.17        22.60373
349.62        22.72836
350.07        22.86642
350.52        23.01708
350.97        23.12783
351.42        23.11486
351.87        22.96965
352.32        22.72326
352.77        22.45215
353.22        22.27013
353.67        22.20488
354.13        22.22888
354.58         22.2929
355.03        22.31675
355.48        22.27191
355.93        22.17812
356.38        22.06856
356.83        21.99063
357.28        21.95383
357.73        21.94326
358.18        21.91351
358.63        21.79754
359.08        21.58829
359.53        21.31072
359.98        21.04102
360.43        20.88971
360.88        20.87046
361.33        20.94487
361.78        21.02269
362.23        20.95943
362.68        20.72792
363.13        20.38373
363.58        20.01158
364.03        19.74118
364.48        19.60692
364.93        19.56475
365.38        19.57666
365.83        19.58041
366.28        19.55093
366.73        19.51166
367.18        19.45305
367.63        19.35791
368.08        19.22755
368.53         19.0583
368.98        18.88723
369.43        18.77824
369.88        18.74386
370.33        18.77181
370.78        18.80905
371.23        18.76493
371.68        18.61855
372.13         18.3945
372.58        18.16082
373.03          18.026
373.48        18.01254
373.93        18.08559
374.38        18.16817
374.83        18.13909
375.28        17.97116
375.72        17.70053
376.17        17.41512
376.62        17.22215
377.07        17.14866
377.52        17.16387
377.97        17.20686
378.42        17.18158
378.87        17.06665
379.32         16.8936
379.77        16.72814
380.22        16.66434
380.67        16.71575
381.11        16.85233
381.56        16.98841
382.01        16.99759
382.46        16.85224
382.91        16.60452
383.36        16.33705
383.81        16.16169
384.26        16.10061
384.71         16.1167
385.15        16.16526
385.60        16.17664
386.05        16.12701
386.50        16.04216
386.95        15.94145
387.40        15.85304
387.85        15.78618
388.29        15.71761
388.74        15.66118
389.19        15.60298
389.64        15.53746
390.09        15.46513
390.54        15.38403
390.98        15.28667
391.43        15.18676
391.88         15.0912
392.33        15.00217
392.78        14.92063
393.23        14.84985
393.67        14.78293
394.12        14.74766
394.57        14.75585
395.02        14.80421
395.47         14.8773
395.91        14.95206
396.36        14.97971
396.81        14.95589
397.26        14.89808
397.71        14.81395
398.15        14.72579
398.60        14.66146
399.05        14.55467
399.50         14.4405
399.95        14.47448
400.39        14.61264
400.84         14.5904
401.29        14.40655
401.74        14.28576
402.18        14.23862
402.63        14.12123
403.08        13.97427
403.53        13.92528
403.97        13.98418
404.42        14.11541
404.87         14.2482
405.32        14.26713
405.76        14.14803
406.21         13.9369
406.66        13.71411
407.11        13.60542
407.55        13.64378
408.00        13.78532
408.45        13.96361
408.90        14.05117
409.34        14.00874
409.79        13.88224
410.24        13.73161
410.68        13.63681
411.13        13.62115
411.58        13.65262
412.03        13.70268
412.47        13.72589
412.92        13.70236
413.37        13.65856
413.81        13.60309
414.26        13.55553
414.71        13.51764
415.15        13.48259
415.60        13.45703
416.05        13.46632
416.49        13.51365
416.94        13.59155
417.39        13.66795
417.83        13.69123
418.28        13.65035
418.73        13.55637
419.17        13.45117
419.62        13.40439
420.07        13.43122
420.51        13.50662
420.96        13.58577
421.41        13.59674
421.85        13.52155
422.30        13.38393
422.74        13.22418
423.19        13.15934
423.64        13.18318
424.08        13.19678
424.53        13.17624
424.98        13.18649
425.42        13.22815
425.87        13.22233
426.31        13.18685
426.76        13.24619
427.21        13.36501
427.65        13.34466
428.10        13.21196
428.54        13.15124
428.99        13.17687
429.44        13.23392
429.88        13.28048
430.33        13.20027
430.77        13.03353
431.22        13.02794
431.66        13.16687
432.11        13.19491
432.56        13.10749
433.00        13.09022
433.45        13.09845
433.89        12.96471
434.34        12.79177
434.78        12.51106
435.23        12.82183
435.67        12.88805
436.12        12.88262
436.57        12.84332
437.01        12.79314
437.46        12.77652
437.90        12.79339
438.35          12.793
438.79        12.76988
439.24        12.76081
439.68        12.76631
440.13        12.77469
440.57        12.78134
441.02        12.79214
441.46        12.80419
441.91        12.78303
442.35        12.73109
442.80        12.77718
443.24        12.86634
443.69        12.78112
444.13        12.56318
444.58        12.47862
445.02        12.54114
445.47        12.61646
445.91        12.66746
446.36        12.69776
446.80        12.69233
447.24        12.65122
447.69        12.59982
448.13        12.57202
448.58        12.57914
449.02        12.60961
449.47        12.64272
449.91        12.63977
450.36        12.59848
450.80        12.53235
451.25        12.47195
451.69        12.45601
452.13        12.49262
452.58        12.56267
453.02        12.64122
453.47        12.69162
453.91        12.70099
454.36        12.68214
454.80        12.63699
455.24        12.56762
455.69        12.48619
456.13        12.38747
456.58        12.30267
457.02        12.25771
457.46        12.26299
457.91        12.30992
458.35        12.36735
458.79        12.38554
459.24        12.36437
459.68        12.31047
460.13        12.26316
460.57        12.25005
461.01        12.28845
461.46         12.3544
461.90        12.43914
462.34        12.51696
462.79        12.57224
463.23        12.61624
463.68        12.63329
464.12        12.60714
464.56         12.5378
465.01        12.44825
465.45        12.34896
465.89         12.2885
466.34        12.27305
466.78        12.28868
467.22        12.32141
467.67         12.3336
468.11        12.32218
468.55        12.29371
468.99        12.26262
469.44           12.25
469.88        12.26207
470.32        12.28989
470.77         12.3263
471.21        12.36323
471.65        12.39526
472.10        12.42782
472.54        12.45555
472.98        12.47548
473.42        12.48715
473.87        12.49248
474.31        12.49178
474.75        12.49931
475.20        12.51931
475.64        12.54322
476.08        12.56346
476.52        12.56068
476.97        12.53287
477.41        12.49406
477.85        12.46118
478.29          12.443
478.74        12.45596
479.18        12.52494
479.62        12.62652
480.06        12.70252
480.50        12.74411
480.95        12.75868
481.39        12.74833
481.83        12.83994
482.27        12.85055
482.72        12.92997
483.16        13.01464
483.60         13.0709
484.04        13.08256
484.48          13.122
484.93        13.25525
485.37        13.18269
485.81        13.27892
486.25        13.49545
486.69        13.36218
487.14        13.09215
487.58        13.82262
488.02         13.5943
488.46        13.64064
488.90        13.72042
489.34        13.54283
489.79        13.61892
490.23        13.73722
490.67         13.8905
491.11         14.0223
491.55        14.06468
491.99        14.04312
492.43        14.08103
492.88        14.19041
493.32        14.28415
493.76        14.35305
494.20        14.44353
494.64        14.55802
495.08          14.647
495.52        14.72532
495.96        14.90181
496.41        15.14081
496.85        15.25084
497.29        15.22366
497.73        15.30957
498.17         15.3236
498.61        15.40736
499.05        15.48927
499.49        15.53639
499.93        15.52125
500.37        15.64709
500.82        15.86789
501.26        16.00178
501.70         16.0293
502.14        16.03615
502.58        16.06088
503.02        16.13167
503.46        16.25829
503.90        16.42802
504.34        16.59384
504.78        16.68014
505.22        16.67127
505.66         16.5934
506.10        16.49962
506.54        16.47425
506.98         16.5389
507.42        16.66679
507.86        16.82256
508.30        16.94752
508.74        17.02164
509.18        17.06351
509.62        17.08559
510.06        17.10731
510.50        17.13739
510.94        17.16739
511.38        17.19953
511.82        17.24021
512.26        17.28915
512.70        17.34572
513.14        17.40424
513.58         17.4532
514.02        17.48873
514.46        17.51315
514.90        17.52655
515.34        17.53031
515.78        17.52652
516.22        17.51533
516.66        17.50257
517.10        17.49763
517.54        17.50255
517.98        17.51556
518.42        17.53078
518.86        17.53769
519.30        17.53381
519.74        17.52255
520.18         17.5083
520.62        17.49773
521.06        17.49321
521.50        17.49286
521.93        17.49592
522.37        17.49507
522.81        17.49014
523.25        17.47969
523.69        17.46501
524.13        17.44879
524.57        17.42913
525.01        17.40306
525.45        17.36366
525.89        17.29998
526.32        17.21229
526.76        17.11512
527.20        17.01716
527.64        16.93243
528.08        16.86676
528.52        16.81472
528.96         16.7856
529.40        16.79279
529.83        16.83263
530.27        16.89986
530.71        16.96088
531.15        16.96407
531.59        16.90013
532.03        16.78329
532.46        16.65108
532.90        16.57649
533.34        16.57221
533.78        16.60789
534.22        16.64992
534.66        16.66598
535.09        16.63272
535.53        16.53187
535.97        16.39686
536.41        16.32139
536.85        16.32082
537.28        16.35133
537.72        16.40254
538.16        16.47029
538.60        16.54448
539.04        16.62668
539.47        16.70056
539.91        16.75098
540.35         16.7739
540.79        16.77527
541.22        16.77414
541.66         16.8089
542.10        16.88508
542.54        16.99092
542.97        17.10816
543.41        17.21404
543.85        17.29915
544.29        17.37428
544.72        17.43987
545.16         17.5088
545.60        17.58273
546.04         17.6601
546.47        17.75193
546.91        17.87313
547.35        18.02135
547.79        18.19069
548.22        18.35946
548.66        18.49045
549.10        18.59874
549.53        18.68609
549.97        18.76875
550.41        18.83026
550.84        18.89816
551.28        19.01972
551.72        19.17183
552.15        19.33274
552.59        19.51917
553.03        19.44978
553.46        19.71639
553.90        19.82073
554.34        19.93435
554.77        20.05115
555.21        20.17238
555.65        20.28319
556.08        20.37313
556.52        20.43914
556.96        20.48117
557.39         20.5547
557.83        20.64819
558.27        20.64155
558.70         20.5682
559.14        20.60499
559.57        20.74646
560.01        20.88116
560.45         20.9834
560.88         21.0798
561.32        21.17359
561.75        21.23419
562.19        21.27823
562.63        21.32889
563.06         21.3879
563.50        21.45176
563.93        21.49908
564.37        21.55167
564.80        21.61787
565.24         21.6454
565.68        21.59749
566.11        21.88475
566.55        21.72511
566.98        21.76956
567.42        21.82449
567.85        21.94341
568.29        22.13585
568.72        22.37161
569.16        22.63359
569.60        22.88827
570.03        22.97326
570.47        23.11514
570.90         23.2971
571.34        23.18734
571.77        23.45313
572.21        23.56641
572.64        23.69474
573.08        23.81859
573.51         23.9669
573.95        24.08563
574.38        24.18764
574.82        24.46396
575.25        24.20417
575.69        24.33446
576.12        24.31418
576.56         24.3409
576.99        24.45198
577.42        24.66593
577.86        24.43307
578.29         24.9092
578.73        24.59846
579.16        24.55194
579.60        24.35073
580.03        24.38229
580.47        24.33588
580.90        24.31198
581.33         24.4066
581.77        24.44051
582.20        24.04523
582.64        24.18425
583.07        23.88811
583.51        23.78472
583.94        23.69474
584.37        23.63155
584.81        23.58673
585.24        23.49723
585.68        23.42045
586.11        23.23884
586.54        23.23207
586.98        23.15658
587.41        23.10908
587.85        22.96757
588.28        22.76312
588.71        22.91925
589.15        22.65316
589.58         22.8688
590.01        22.80897
590.45        22.87241
590.88        22.88898
591.31        22.79273
591.75        22.66062
592.18        22.62252
592.61        22.69681
593.05        22.90723
593.48        23.31226
593.91        22.99605
594.35        22.98214
594.78        22.87902
595.21        22.99077
595.65        23.24779
596.08        23.65782
596.51        23.65807
596.94        23.62618
597.38        23.72591
597.81        24.11175
598.24        24.31725
598.68        24.32858
599.11        24.89766
599.54        25.23804
599.97        25.00587
600.41        25.62803
600.84        25.67887
601.27        26.02579
601.70        26.29158
602.14        26.58704
602.57        26.96882
603.00        27.45771
603.43        27.57213
603.87        28.34236
604.30        28.64585
604.73        28.87214
605.16        29.09703
605.60        29.34641
606.03        29.70927
606.46        30.18565
606.89        30.21697
607.32        31.01256
607.76         31.3945
608.19        31.71182
608.62        31.98719
609.05        32.29238
609.48         32.6154
609.92        33.37563
610.35        33.43318
610.78        33.52376
611.21        33.76811
611.64        34.06079
612.07        34.52715
612.50         34.8404
612.94        35.16631
613.37        35.42064
613.80        35.48919
614.23        35.47657
614.66        35.62929
615.09        36.17837
615.52        36.51748
615.96        36.67188
616.39        37.01857
616.82         37.3524
617.25        37.56992
617.68        37.71703
618.11        38.07808
618.54        38.60897
618.97        38.83852
619.40        38.77732
619.84        38.99135
620.27        39.14185
620.70         39.3342
621.13        39.44215
621.56         39.4388
621.99        39.48817
622.42        39.48084
622.85         39.4992
623.28        39.57602
623.71        39.73024
624.14        39.82965
624.57        40.24207
625.00        40.14613
625.43        40.13729
625.86        39.97025
626.29        39.90642
626.72          39.378
627.15         39.5588
627.58        39.51944
628.01        39.51225
628.44        39.32532
628.87        38.98058
629.30         38.5939
629.73         38.3632
630.16        38.08916
630.59        37.83078
631.02        37.64609
631.45        37.50414
631.88        37.30632
632.31        37.02783
632.74        36.69806
633.17        36.31834
633.60        35.89171
634.03         35.4296
634.46        34.93064
634.89        34.42004
635.32         33.9489
635.75        33.53188
636.18        33.12476
636.61        32.72836
637.04        32.35665
637.47        32.00256
637.89        31.65988
638.32        31.30673
638.75        30.94185
639.18        30.57047
639.61        30.19704
640.04        29.85058
640.47        29.57312
640.90        29.37031
641.33        29.23213
641.76        29.12353
642.18        28.98999
642.61        28.81047
643.04        28.60415
643.47         28.4117
643.90        28.29837
644.33        28.27909
644.76        28.33584
645.18        28.42564
645.61        28.47233
646.04        28.46262
646.47        28.42211
646.90        28.40502
647.33        28.49098
647.75        28.69113
648.18        29.01077
648.61        29.40782
649.04        29.71885
649.47        29.89439
649.89        30.38683
650.32        30.44394
650.75        30.83138
651.18        31.30891
651.61        31.80165
652.03        32.28316
652.46        32.74469
652.89        33.20247
653.32        33.61206
653.74         34.0357
654.17        34.44442
654.60        35.14772
655.03        35.43584
655.46         35.4024
655.88        36.37843
656.31        37.87748
656.74         40.1072
657.16        39.54279
657.59        39.22993
658.02        38.87389
658.45        39.27841
658.87        39.48442
659.30        39.89565
659.73        40.07087
660.15        40.85941
660.58        40.80854
661.01        41.11509
661.44        41.41737
661.86        41.52698
662.29        41.48788
662.72        42.09571
663.14        42.50048
663.57        42.80386
664.00        42.82443
664.42        43.09962
664.85        43.65429
665.27        44.20614
665.70        44.64063
666.13        44.94067
666.55        45.08549
666.98        45.03952
667.41        44.88919
667.83        45.06614
668.26        45.14211
668.69        45.45787
669.11        45.82286
669.54        46.14179
669.96        46.38404
670.39        46.60028
670.82        46.80473
671.24        46.94859
671.67        47.05837
672.09        47.21984
672.52        47.44084
672.94         47.6199
673.37         47.7605
673.80        47.92398
674.22        48.10642
674.65         48.2392
675.07        48.33004
675.50        48.39062
675.92        48.45256
676.35         48.5531
676.77        48.70265
677.20        48.89194
677.62        49.10717
678.05        49.27669
678.47        49.46302
678.90        49.61769
679.32        49.75409
679.75        49.85777
680.17        49.92868
680.60        49.99558
681.02        50.08434
681.45        50.18275
681.87        50.33841
682.30         50.6445
682.72        51.03927
683.15        51.33608
683.57         51.4892
684.00        51.43874
684.42         51.2817
684.85        51.42702
685.27        51.61652
685.70         51.9784
686.12        52.31448
686.54        52.49066
686.97        52.47385
687.39        52.34373
687.82        52.18866
688.24        52.13508
688.66        52.22411
689.09         52.4243
689.51        52.68383
689.94        52.89125
690.36        53.02176
690.78        53.08027
691.21        53.11756
691.63        53.24788
692.06        53.46738
692.48        53.66333
692.90        53.78471
693.33        53.86714
693.75        53.89598
694.17        53.83886
694.60        53.78118
695.02        53.82625
695.44        54.00225
695.87        54.42607
696.29        54.95518
696.71        55.00433
697.14         54.6601
697.56        54.62236
697.98        54.90891
698.41        55.11031
698.83         55.0485
699.25        55.20761
699.68        55.46944
700.10        55.61304
700.52        55.59844
700.94        55.50467
701.37        55.42356
701.79        55.51792
702.21        55.81364
702.64        56.21144
703.06        56.60999
703.48        56.97198
703.90        57.02853
704.33        57.01383
704.75        56.91638
705.17        56.82365
705.59        56.77229
706.01        56.73831
706.44        56.75322
706.86        56.85963
707.28        57.04323
707.70        57.34639
708.12         57.6917
708.55        57.82042
708.97        57.76475
709.39        57.83027
709.81        58.02338
710.23         58.1136
710.66        58.09781
711.08        58.13778
711.50        58.21748
711.92        58.25439
712.34        58.25188
712.76        58.24715
713.19        58.25153
713.61        58.31317
714.03        58.42884
714.45        58.58314
714.87        58.77477
715.29        59.01004
715.71        59.27639
716.13        59.54734
716.56        59.78487
716.98        59.97523
717.40        60.07888
717.82        60.10874
718.24        60.06319
718.66        59.94274
719.08        59.77401
719.50        59.58078
719.92        59.43007
720.34        59.41799
720.76        59.56047
721.19        59.81074
721.61        60.13625
722.03        60.43284
722.45        60.65125
722.87        60.80153
723.29        60.86962
723.71        60.83403
724.13        60.69894
724.55        60.51575
724.97        60.34061
725.39        60.15975
725.81        60.01074
726.23        60.24713
726.65         60.1702
727.07        60.46922
727.49        60.70209
727.91        61.05357
728.33        61.40072
728.75        61.66817
729.17        61.83014
729.59        61.88609
730.01        61.87543
730.43        61.86874
730.85        61.88738
731.27        61.91302
731.69        61.92571
732.10        61.89305
732.52        61.81646
732.94        61.72544
733.36        61.66318
733.78         61.6063
734.20        61.56262
734.62        61.62336
735.04        62.06582
735.46        61.69032
735.88        62.39782
736.30         62.5457
736.72        62.92439
737.13        63.14709
737.55        63.22096
737.97         63.2409
738.39        63.19059
738.81        62.90382
739.23        62.54034
739.65         62.5849
740.06        62.92998
740.48        63.23355
740.90        63.49443
741.32        63.04115
741.74        63.61814
742.16        63.68922
742.57        63.76945
742.99         63.8362
743.41        63.88301
743.83        63.84861
744.25         63.7246
744.67         63.5472
745.08        63.40572
745.50        63.42342
745.92        63.62003
746.34        63.93536
746.75        64.27952
747.17        64.44648
747.59        64.39268
748.01        64.32764
748.42        64.25961
748.84        63.90034
749.26         63.4529
749.68         63.5525
750.09        64.12034
750.51        64.61412
750.93        64.84501
751.35        64.70827
751.76        64.31082
752.18        64.10802
752.60        64.12582
753.01        64.12576
753.43        64.08858
753.85        63.96009
754.27        63.70985
754.68         64.0526
755.10        64.03349
755.52        63.89634
755.93        64.11299
756.35        64.37488
756.77         64.8716
757.18        65.14712
757.60        65.19045
758.02         65.5012
758.43        65.88727
758.85        65.12635
759.26        64.86338
759.68         63.7535
760.10        63.91036
760.51        64.94009
760.93        65.90255
761.34        65.48466
761.76        65.42439
762.18        65.10549
762.59        65.29264
763.01         65.6368
763.42        66.08234
763.84        66.31935
764.26        66.27341
764.67        66.01355
765.09        65.69118
765.50         65.5369
765.92         65.6288
766.33        65.45843
766.75        65.52263
767.16        65.49644
767.58        65.25631
768.00        65.12179
768.41        65.11247
768.83        65.57668
769.24        66.26035
769.66        66.29669
770.07        65.76888
770.49        65.40262
770.90         65.3986
771.32        65.89146
771.73        66.67784
772.15        67.00465
772.56        66.80799
772.97        66.46707
773.39        66.15594
773.80        66.12909
774.22        66.26115
774.63        66.52174
775.05         66.7315
775.46        66.87955
775.88        66.89526
776.29        66.77212
776.70        66.59296
777.12        66.55366
777.53        66.69894
777.95        66.91358
778.36        67.15031
778.77        67.29144
779.19        67.32324
779.60        67.33282
780.02        67.28072
780.43        67.16848
780.84        67.06881
781.26        66.69237
781.67        66.25217
782.09        66.88141
782.50        68.18443
782.91        68.09207
783.33        66.77953
783.74        66.32682
784.15        66.82264
784.57        67.16895
784.98        67.32645
785.39        67.21354
785.81        67.41613
786.22        67.96317
786.63        68.80119
787.04        68.82264
787.46        68.17006
787.87        68.01237
788.28        68.37024
788.70        68.43198
789.11        68.19259
789.52        68.16974
789.93        68.32465
790.35        68.37858
790.76        68.32133
791.17        68.13053
791.58        67.92583
792.00        68.01554
792.41        68.33239
792.82         68.5719
793.23        68.63598
793.65        68.26546
794.06        67.71917
794.47        67.99873
794.88        68.90356
795.29        69.18742
795.71        68.74946
796.12        68.46597
796.53        68.45261
796.94        68.15686
797.35        67.89137
797.76        68.35996
798.18        69.36094
798.59        69.82748
799.00        69.61335
799.41        69.24595
799.82        68.92104
800.23        68.75481
800.64        68.82633
801.06        69.06573
801.47        69.37579
801.88        69.51019
802.29        69.38616
802.70        69.05402
803.11        68.65411
803.52        68.38103
803.93         68.3205
804.34        68.55081
804.75        68.89131
805.17        68.92458
805.58        68.78412
805.99        68.61553
806.40         68.6048
806.81        69.69189
807.22        71.32355
807.63        71.04259
808.04        69.15552
808.45        68.40251
808.86        68.98559
809.27        69.34814
809.68         69.3014
810.09        69.30932
810.50        69.32995
810.91        69.22772
811.32        69.14158
811.73        69.26576
812.14        69.61826
812.55        70.24704
812.96         70.9296
813.37        70.97002
813.78        70.39233
814.19        69.96288
814.60        69.76061
815.01        69.38161
815.42        68.86685
815.83        68.49112
816.24        68.33515
816.65        68.37542
817.05        68.62807
817.46         69.0798
817.87        69.58395
818.28        69.86018
818.69        69.84654
819.10        69.57953
819.51        69.23943
819.92        69.17412
820.33        69.46739
820.74        70.00227
821.14        70.55894
821.55        70.78194
821.96        70.59225
822.37        70.11707
822.78        69.54196
823.19         69.1746
823.60        69.12214
824.00        69.31687
824.41        69.62529
824.82        69.92596
825.23        70.14288
825.64        70.31155
826.04        70.43098
826.45        70.45547
826.86        70.40015
827.27        70.27386
827.68         70.0919
828.08        69.92029
828.49        69.74168
828.90        69.57569
829.31        69.49104
829.72        69.59173
830.12        69.90636
830.53        70.33736
830.94        70.75623
831.35         70.8925
831.75        70.69358
832.16        70.22332
832.57        69.63793
832.97         69.1703
833.38        68.90529
833.79        68.76478
834.20        68.76119
834.60        68.90368
835.01        69.17272
835.42        69.61906
835.82        70.10372
836.23        70.29721
836.64        70.15836
837.04        69.72369
837.45         69.3001
837.86        69.46315
838.26         70.3374
838.67        71.71078
839.08        73.07993
839.48        73.50188
839.89        72.74966
840.29        71.18778
840.70        69.53017
841.11        68.60956
841.51        68.64047
841.92        69.34644
842.33        70.44719
842.73        71.43466
843.14        71.97652
843.54        72.25813
843.95        72.34394
844.35        72.39718
844.76        72.45479
845.17        72.44129
845.57        72.31273
845.98        72.00164
846.38        71.54167
846.79        70.98422
847.19        70.47574
847.60        70.20194
848.00        70.21392
848.41         70.4363
848.81         70.7514
849.22        70.87051
849.62        70.76162
850.03         70.4928
850.43        70.19303
850.84        70.00877
851.24        70.03611
851.65        70.15232
852.05        70.42385
852.46         70.8435
852.86        71.35958
853.27        71.95027
853.67        72.38976
854.07        72.48741
854.48        72.19995
854.88        71.61056
855.29         70.8581
855.69        70.34836
856.10        70.14951
856.50        70.25145
856.90         70.4865
857.31        70.57785
857.71         70.4931
858.12        70.24408
858.52         69.9838
858.92        69.84747
859.33        69.85928
859.73        70.01212
860.13        70.14839
860.54        70.04324
860.94        69.69592
861.34        69.16474
861.75        68.64509
862.15        68.49438
862.55        68.76704
862.96        69.31944
863.36        69.96886
863.76        70.31446
864.17        70.22865
864.57         69.8699
864.97         69.3445
865.38        68.82772
865.78         68.4301
866.18        68.09891
866.58        67.90882
866.99        67.99067
867.39        68.36797
867.79         68.9809
868.19        69.67906
868.60        70.20341
869.00        70.50893
869.40        70.61931
869.80        70.56937
870.21        70.45397
870.61        70.38301
871.01        70.28816
871.41        70.14098
871.81        69.89555
872.22        69.54506
872.62        69.12168
873.02        68.73389
873.42        68.54108
873.82        68.58588
874.22        68.82795
874.63        69.11811
875.03        69.23972
875.43        69.12315
875.83        68.81779
876.23        68.48814
876.63        68.39482
877.03        68.59392
877.44        68.98855
877.84        69.39931
878.24        69.52892
878.64        69.27291
879.04        68.61401
879.44        67.87581
879.84        67.64446
880.24        67.98913
880.64        68.68642
881.04        69.36363
881.44        69.42979
881.84        68.76271
882.24        67.60239
882.65        66.34464
883.05        65.59013
883.45        65.51496
883.85        65.93939
884.25         66.6795
884.65        67.40857
885.05        67.97742
885.45        68.47079
885.85        68.86788
886.25        69.14529
886.65        69.30908
887.05        69.31204
887.45        69.22699
887.85        69.20896
888.25        69.28789
888.65        69.44225
889.04        69.54244
889.44        69.40353
889.84        68.98552
890.24         68.3568
890.64        67.70245
891.04        67.32451
891.44        67.30017
891.84        67.55157
892.24        67.88259
892.64        67.98383
893.04        67.80685
893.44        67.47266
893.83        67.18972
894.23        67.24462
894.63        67.71982
895.03        68.46365
895.43        69.32624
895.83        70.07987
896.23        70.60278
896.63        70.92667
897.02         70.9778
897.42        70.67745
897.82        70.06213
898.22        69.21648
898.62        68.31264
899.01         67.5964
899.41        67.16755
899.81        66.97068
900.21        66.99908
900.61        67.21796
901.00        67.57327
901.40        68.04575
901.80        68.51128
902.20        68.76534
902.59        68.77885
902.99        68.60492
903.39        68.33394
903.79        68.13547
904.18        68.05339
904.58         68.0147
904.98        68.09288
905.38         68.4058
905.77        68.94391
906.17         69.7178
906.57        70.40132
906.96        70.44664
907.36         69.7546
907.76        68.50085
908.15        67.26985
908.55        66.97517
908.95        67.81474
909.34        69.52409
909.74        71.41628
910.14        72.42138
910.53        72.20911
910.93        71.12626
911.33        69.66941
911.72        68.60435
912.12        68.22296
912.52        68.28568
912.91        68.54546
913.31        68.65916
913.70         68.5322
914.10        68.27518
914.49        68.11086
914.89        68.29417
915.29        68.89174
915.68         69.7799
916.08        70.61451
916.47         70.9216
916.87        70.60588
917.26        69.81181
917.66        68.92803
918.05        68.38811
918.45        68.31566
918.84        68.63296
919.24         69.0983
919.64        69.42449
920.03        69.52083
920.42        69.43516
920.82        69.37244
921.21        69.59137
921.61        70.11818
922.00        70.89311
922.40        71.61103
922.79        71.90269
923.19        71.64767
923.58        71.01109
923.98        70.30121
924.37        69.90134
924.77        69.91742
925.16        70.18019
925.55        70.55412
925.95        70.78027
926.34        70.77622
926.74        70.61914
927.13          70.277
927.52        69.62346
927.92          68.754
928.31        67.73121
928.70        66.83124
929.10         66.4458
929.49        66.63506
929.89        67.22517
930.28        68.12056
930.67        69.01691
931.07        69.72589
931.46         70.3701
931.85        70.71327
932.24        70.44953
932.64        69.63126
933.03        68.34441
933.42        67.10866
933.82        66.68172
934.21        67.21184
934.60        68.54131
934.99        70.18493
935.39        71.22984
935.78        71.42786
936.17        70.93127
936.56        70.14336
936.96        69.71309
937.35        69.80766
937.74        70.20824
938.13        70.58018
938.53        70.44112
938.92         69.7093
939.31        68.62875
939.70        67.52512
940.09        66.82331
940.49        66.59745
940.88        66.73649
941.27          67.112
941.66        67.48064
942.05        67.74374
942.44        68.00094
942.84        68.23318
943.23        68.39461
943.62        68.49316
944.01        68.46671
944.40        68.46661
944.79        68.77942
945.18        69.42263
945.57        70.30151
945.97        71.02679
946.36        71.04387
946.75        70.21194
947.14        68.80067
947.53        67.26679
947.92        66.24662
948.31        65.91191
948.70        66.10564
949.09         66.6487
949.48        67.21458
949.87        67.66708
950.26        68.08421
950.65        68.50711
951.04        69.00667
951.43        69.56548
951.82         70.0709
952.21        70.41747
952.60        70.48414
952.99        70.26737
953.38        69.86771
953.77        69.36193
954.16        68.85507
954.55        68.39846
954.94        67.95213
955.33        67.64673
955.72        67.69011
956.11         68.1064
956.50        68.86717
956.89        69.61601
957.28        69.74351
957.66        69.11579
958.05        67.94627
958.44        66.73769
958.83        66.23152
959.22        66.56702
959.61        67.54408
960.00        68.70364
960.39        69.19343
960.78        68.76673
961.16        67.70082
961.55        66.52856
961.94        65.93146
962.33        66.07973
962.72        66.79024
963.11        67.73534
963.49        68.32311
963.88        68.25353
964.27        67.71743
964.66        67.09677
965.04        66.97508
965.43        67.41859
965.82         68.2939
966.21        69.13622
966.60        69.09237
966.98        67.95458
967.37        66.14524
967.76        64.34953
968.15        63.39415
968.53        63.44053
968.92        64.28283
969.31        65.48692
969.69         66.1925
970.08        66.01991
970.47        65.22887
970.86        64.40661
971.24        64.39673
971.63        65.36375
972.02        67.07529
972.40        68.90628
972.79        69.38206
973.17        68.19901
973.56        65.92919
973.95        63.55973
974.33        62.34586
974.72        62.53777
975.11        63.74513
975.49        65.48134
975.88        66.70824
976.26        67.05798
976.65         66.7869
977.04        66.17316
977.42         65.6181
977.81        65.24384
978.19        64.88068
978.58        64.64346
978.96        64.71336
979.35        65.07726
979.74         65.7573
980.12        66.57927
980.51        66.95484
980.89         66.8589
981.28        66.40435
981.66        65.90383
982.05        65.79794
982.43        66.20624
982.82        66.98652
983.20        68.05482
983.59        69.12804
983.97        70.12114
984.35        71.01263
984.74        71.63965
985.12        71.99461
985.51        72.00655
985.89        71.72723
986.28        71.26772
986.66        70.71479
987.04        70.20078
987.43        69.68595
987.81        69.34682
988.20        69.37374
988.58        69.80304
988.96        70.42021
989.35        71.01084
989.73        71.25705
990.12        71.07148
990.50        70.63755
990.88        69.79131
991.27        68.33945
991.65        66.44197
992.03        64.24375
992.42        62.51453
992.80        62.26193
993.18        63.64476
993.56        66.47455
993.95        69.72368
994.33        71.52135
994.71        71.10619
995.10        69.05518
995.48         66.5506
995.86         65.4756
996.24        66.26144
996.63        68.26114
997.01        70.75813
997.39        71.92327
997.77        71.08065
998.15        69.00845
998.54        66.41757
998.92        64.14003
999.30        62.59221
999.68        61.52219
1000.06        61.15835
1000.45        61.81908
1000.83        63.57544
1001.21        66.45407
1001.59        69.92144
1001.97        72.46581
1002.35        73.39274
1002.73        72.99131
1003.12        72.00121
1003.50          71.384
1003.88        71.50278
1004.26        71.93879
1004.64        72.63667
1005.02          73.427
1005.40        74.14771
1005.78        75.09866
1006.16        75.63081
1006.54        74.65582
1006.92        72.22695
1007.30          68.748
1007.69        65.74267
1008.07        65.26328
1008.45         67.8606
1008.83        73.10687
1009.21        79.46318
1009.59        83.09108
1009.97        82.19802
1010.35        77.89137
1010.73        72.04169
1011.11        67.35535
1011.49        64.67491
1011.86        63.28534
1012.24        62.80336
1012.62        62.67361
1013.00        62.66833
1013.38        63.03135
1013.76        63.82323
1014.14        64.91344
1014.52        66.09303
1014.90        67.11739
1015.28        67.69161
1015.66        67.61901
1016.04        66.91585
1016.41        65.64996
1016.79        64.11651
1017.17        62.97829
1017.55        62.46999
1017.93        62.45049
1018.31        62.67276
1018.69         62.7063
1019.06        62.45713
1019.44        62.10539
1019.82        61.69133
1020.20        61.33826
1020.58        61.12648
1020.95        60.83597
1021.33        60.83677
1021.71        61.53104
1022.09        63.00808
1022.46        65.50101
1022.84        68.16692
1023.22        68.93278
1023.60        67.11633
1023.97        63.23004
1024.35        59.72261
1024.73        59.40456
