SpectraSmart Spectrum 2.9.0.0
--------- Device Information -----------
Spectrum Name :  反射率_0
Saving Time :  2024/04/27 00:14:44
Spectro-Module Model Name : SE2030-DUVN
Spectro-Module Serial Number : OS361AC55029948
Wavelength Start : 200
Wavelength End : 1025
Wavelength Unit : Wavelength(nm)
Spectrum Unit : Reflectance(%)
-----------Spectrum Setting ------------
Integration Time : 20ms
Average : 10
Boxcar : 0
Background removal :  enabled
linearity correction :  enabled
SC :  disabled
Intensity correction :  disabled
DWT denoise :  enabled
savitzky-golay :  disabled
FFT :  disabled
Running average :  disabled
Kalman :  disabled
High pass :  disabled
---------------BEGIN--------------------
Wavelength(nm)             Reflectance(%)
200.29               0
200.75        67.59261
201.21        62.40124
201.67         57.2101
202.13        54.46648
202.58        54.35186
203.04        56.74551
203.50         61.5642
203.96        67.20797
204.42        72.19486
204.88        76.44228
205.34         80.0531
205.80        83.89599
206.26         87.4829
206.72        89.19769
207.18        89.20342
207.64        87.87936
208.10        85.37575
208.55        82.62895
209.01        77.77904
209.47         70.4997
209.93        64.64233
210.39        61.71094
210.85        62.67286
211.31        69.10385
211.77        83.71675
212.23        116.7546
212.69        198.0926
213.14        329.5971
213.60        316.9759
214.06        218.5615
214.52        153.4235
214.98        124.0027
215.44        111.1826
215.90        103.8619
216.36         101.645
216.81        106.2637
217.27        118.9234
217.73        144.7994
218.19         181.542
218.65          199.92
219.11        186.8883
219.57        160.5788
220.02        141.5401
220.48         141.558
220.94        159.2944
221.40        195.8576
221.86        251.4449
222.32        293.2565
222.77        288.6155
223.23        258.2192
223.69        224.4988
224.15        200.5742
224.61        186.0917
225.06         175.592
225.52        170.2528
225.98        170.5528
226.44        175.5019
226.90        184.6113
227.36        194.7698
227.81        200.0023
228.27        199.4241
228.73        194.8498
229.19        189.9445
229.65        189.1533
230.10        192.6871
230.56        199.1127
231.02        205.6437
231.48         208.021
231.93        205.4472
232.39        200.6133
232.85        195.6841
233.31        193.5236
233.77        194.4679
234.22        197.2528
234.68        200.9733
235.14         204.311
235.60        206.6295
236.05        208.5656
236.51        209.1167
236.97         207.088
237.43        202.2686
237.88        195.0863
238.34        186.9482
238.80        180.7043
239.26         177.211
239.71        177.0612
240.17        178.9643
240.63         181.017
241.08        182.3112
241.54        182.1615
242.00         182.814
242.46        188.4719
242.91        202.9699
243.37        227.9429
243.83        263.3578
244.28        291.2688
244.74        285.0398
245.20        245.6726
245.66        200.5969
246.11        172.3712
246.57        160.7544
247.03        159.3392
247.48        159.1626
247.94        147.9367
248.40        129.2324
248.85        111.1547
249.31        98.89901
249.77        94.23437
250.22        95.84099
250.68        102.2717
251.14        112.5762
251.59        121.3001
252.05        124.4209
252.51        124.6077
252.96        122.3197
253.42         119.264
253.88        116.3143
254.33        112.6256
254.79         112.314
255.25        118.8078
255.70        131.2316
256.16        148.2948
256.62        163.2931
257.07        165.6888
257.53        158.4014
257.99        147.9909
258.44        139.8048
258.90        138.9611
259.35        143.2306
259.81        150.5493
260.27        157.9139
260.72        161.6155
261.18        161.8722
261.63        159.6486
262.09        157.1777
262.55        155.4776
263.00        154.4617
263.46        154.1247
263.91        153.4245
264.37        152.0717
264.83        149.9573
265.28         147.327
265.74        145.2421
266.19        144.1976
266.65        144.3882
267.11        145.2788
267.56        146.2003
268.02        146.1647
268.47        144.8989
268.93        142.8821
269.38        140.4332
269.84        138.2208
270.30        136.4277
270.75        134.8053
271.21         133.548
271.66        132.7841
272.12        132.4583
272.57        132.4072
273.03        132.1719
273.48        130.9094
273.94         128.657
274.39        125.6622
274.85         122.577
275.31        119.9194
275.76        117.7853
276.22         116.135
276.67        114.8056
277.13        113.9207
277.58        113.2068
278.04        112.6765
278.49        111.9323
278.95        110.7166
279.40        108.8545
279.86        106.7011
280.31        104.2424
280.77        101.8275
281.22        99.46197
281.68        97.30915
282.13        95.44272
282.59        94.25993
283.04        93.62431
283.50        93.47404
283.95        93.43053
284.41        92.98779
284.86        91.98721
285.32        90.64944
285.77        89.15678
286.22        87.95958
286.68        87.13177
287.13         86.4352
287.59        85.74585
288.04        84.75039
288.50        83.47627
288.95        81.99596
289.41        80.49179
289.86        79.01943
290.32        77.71751
290.77        76.50112
291.22        75.44288
291.68        74.60915
292.13        73.94781
292.59        73.45946
293.04        73.05611
293.50        72.65511
293.95        72.20287
294.40        71.72626
294.86        71.23641
295.31        70.72898
295.77        70.24253
296.22         69.7672
296.68        69.36273
297.13        69.07252
297.58        68.91929
298.04        68.88744
298.49        68.93392
298.95        69.02856
299.40        69.12051
299.85        69.20033
300.31        69.25144
300.76         69.2131
301.21        69.08743
301.67         68.9148
302.12        68.65923
302.58        68.38012
303.03        68.05717
303.48        67.72798
303.94        67.46951
304.39        67.31182
304.84        67.27853
305.30        67.35661
305.75        67.43608
306.20        67.44187
306.66        67.36624
307.11        67.20112
307.57        66.99852
308.02        66.74534
308.47        66.47823
308.93        66.21156
309.38        65.94812
309.83        65.77683
310.29        65.70819
310.74        65.71056
311.19        65.72398
311.65        65.63969
312.10        65.42161
312.55        65.09635
313.00        64.74133
313.46        64.47095
313.91         64.2879
314.36        64.17716
314.82        64.05367
315.27        63.80446
315.72         63.4052
316.18        62.91474
316.63        62.42813
317.08        62.11602
317.53        62.00951
317.99        62.04782
318.44        62.12411
318.89         62.0463
319.35        61.76402
319.80        61.33275
320.25        60.85685
320.70        60.50611
321.16        60.32055
321.61         60.2684
322.06         60.2486
322.51        60.10394
322.97        59.78753
323.42        59.35458
323.87        58.91983
324.32         58.6763
324.78        58.64291
325.23        58.79462
325.68        58.94594
326.13         58.8037
326.59        58.30381
327.04        57.56314
327.49        56.78769
327.94        56.30727
328.39        56.19773
328.85        56.33883
329.30        56.62124
329.75        56.72293
330.20        56.54811
330.66         56.1909
331.11        55.79744
331.56        55.55483
332.01        55.52326
332.46         55.6174
332.92        55.76268
333.37        55.92919
333.82        56.04758
334.27        56.14992
334.72        56.19264
335.17        56.09448
335.63        55.85036
336.08         55.5154
336.53        55.18884
336.98        55.06329
337.43         55.1837
337.88        55.48278
338.34        55.86634
338.79        56.22464
339.24        56.47006
339.69        56.63625
340.14         56.6721
340.59        56.50545
341.05        56.16703
341.50        55.68462
341.95        55.21437
342.40        54.99598
342.85         55.0853
343.30        55.42284
343.75        55.88263
344.20        56.24608
344.66        56.44085
345.11        56.51096
345.56        56.51741
346.01        56.56472
346.46          56.684
346.91        56.83852
347.36        56.96756
347.81        56.99297
348.26        56.89713
348.72        56.70089
349.17         56.4908
349.62        56.41935
350.07        56.50959
350.52        56.72739
350.97        56.90329
351.42        56.76436
351.87         56.2797
352.32        55.56038
352.77         54.8555
353.22        54.52588
353.67        54.63956
354.13        55.07801
354.58        55.62766
355.03        55.92038
355.48        55.84081
355.93        55.48844
356.38        55.03008
356.83        54.71969
357.28        54.61442
357.73         54.6231
358.18        54.61032
358.63         54.3709
359.08        53.86765
359.53        53.19525
359.98        52.49667
360.43        51.96562
360.88        51.64578
361.33        51.47652
361.78        51.35984
362.23        51.14207
362.68        50.78875
363.13        50.35842
363.58        49.92558
364.03        49.60006
364.48        49.40298
364.93        49.28093
365.38        49.18581
365.83        49.04939
366.28        48.84467
366.73        48.59502
367.18         48.2971
367.63        47.94324
368.08        47.54211
368.53        47.09822
368.98        46.65195
369.43        46.26678
369.88        45.96112
370.33        45.72931
370.78         45.5348
371.23        45.31348
371.68        45.04778
372.13        44.74837
372.58         44.4628
373.03        44.26606
373.48        44.16575
373.93        44.13267
374.38        44.08277
374.83        43.88845
375.28        43.52859
375.72         43.0386
376.17        42.54832
376.62        42.19962
377.07        42.02902
377.52         41.9997
377.97         42.0217
378.42        41.95272
378.87         41.7555
379.32        41.46193
379.77        41.17099
380.22        41.02715
380.67        41.04523
381.11        41.18637
381.56        41.28061
382.01         41.0937
382.46        40.59745
382.91        39.90963
383.36        39.22711
383.81        38.81076
384.26        38.70633
384.71         38.8264
385.15         39.0575
385.60        39.20491
386.05        39.19837
386.50        39.08788
386.95        38.90925
387.40        38.72127
387.85        38.54771
388.29        38.34224
388.74        38.14777
389.19        37.93354
389.64        37.69835
390.09        37.45317
390.54        37.22009
390.98        37.02399
391.43        36.89442
391.88        36.81585
392.33         36.7642
392.78        36.70232
393.23        36.62194
393.67        36.51883
394.12        36.43726
394.57         36.3726
395.02        36.32357
395.47        36.26831
395.91        36.22083
396.36        36.19007
396.81        36.19195
397.26        36.22974
397.71        36.24501
398.15        36.17487
398.60        36.05862
399.05        35.77126
399.50          35.437
399.95        35.49388
400.39        35.84763
400.84        35.82713
401.29        35.41836
401.74         35.1593
402.18        35.07341
402.63        34.81734
403.08        34.48066
403.53        34.35568
403.97        34.46416
404.42        34.72053
404.87        34.98993
405.32        35.05495
405.76        34.86349
406.21        34.50545
406.66         34.1085
407.11        33.87164
407.55        33.85669
408.00        33.99148
408.45        34.19236
408.90        34.29407
409.34        34.23948
409.79        34.08598
410.24         33.9104
410.68        33.80975
411.13        33.81365
411.58        33.88548
412.03        33.95472
412.47        33.91108
412.92        33.72363
413.37         33.4518
413.81        33.18354
414.26        33.07028
414.71        33.12427
415.15        33.31042
415.60        33.53285
416.05        33.65734
416.49        33.64152
416.94        33.52332
417.39        33.36345
417.83        33.25206
418.28        33.21622
418.73        33.21984
419.17        33.24948
419.62        33.28755
420.07        33.32284
420.51        33.35843
420.96        33.38166
421.41         33.3601
421.85         33.2809
422.30        33.14002
422.74        32.96132
423.19        32.92888
423.64        33.00166
424.08        32.95934
424.53        32.79583
424.98        32.75338
425.42        32.85666
425.87        32.88639
426.31        32.83871
426.76        32.94482
427.21        33.11247
427.65        32.88621
428.10        32.39954
428.54        32.23597
428.99        32.44601
429.44        32.74224
429.88        32.99457
430.33        33.08508
430.77        32.98684
431.22        32.89074
431.66        32.82676
432.11         32.7322
432.56        32.65478
433.00        32.61174
433.45        32.54413
433.89        32.60128
434.34        32.79734
434.78        32.35273
435.23        32.50635
435.67        32.51438
436.12        32.66014
436.57        32.55759
437.01        32.25554
437.46        32.10057
437.90         32.1147
438.35        32.11874
438.79        32.08208
439.24        32.06604
439.68        32.05834
440.13        32.04718
440.57        32.05577
441.02        32.10741
441.46        32.18864
441.91        32.31602
442.35        32.41988
442.80        32.47312
443.24         32.4558
443.69        32.43526
444.13        32.41329
444.58        32.37664
445.02          32.326
445.47        32.28691
445.91        32.25432
446.36        32.21791
446.80        32.17052
447.24        32.12089
447.69        32.07895
448.13        32.04446
448.58        32.02592
449.02        32.01737
449.47         32.0127
449.91        31.98601
450.36        31.94459
450.80        31.88607
451.25        31.84378
451.69        31.84711
452.13        31.90342
452.58        31.99157
453.02        32.07986
453.47        32.12254
453.91        32.10802
454.36          32.061
454.80        31.98319
455.24        31.87873
455.69        31.76789
456.13        31.62811
456.58        31.52939
457.02        31.52786
457.46        31.63882
457.91        31.84228
458.35         32.0275
458.79        32.03079
459.24         31.8533
459.68        31.53522
460.13        31.23084
460.57         31.0957
461.01        31.18481
461.46        31.41963
461.90        31.72559
462.34        31.95325
462.79        32.04042
463.23        32.04176
463.68        31.96279
464.12        31.83536
464.56        31.67873
465.01        31.52041
465.45        31.35575
465.89        31.26751
466.34        31.26136
466.78        31.31393
467.22        31.40024
467.67        31.44032
468.11        31.43035
468.55        31.37887
468.99        31.30946
469.44        31.25768
469.88         31.2391
470.32        31.23821
470.77        31.25377
471.21        31.28924
471.65        31.33697
472.10        31.39911
472.54        31.45436
472.98        31.47825
473.42        31.46564
473.87        31.43258
474.31        31.37665
474.75        31.32511
475.20        31.29398
475.64        31.26745
476.08        31.25375
476.52        31.24804
476.97        31.24778
477.41        31.26828
477.85        31.31358
478.29        31.34286
478.74        31.37615
479.18        31.49193
479.62        31.64906
480.06        31.72169
480.50        31.70535
480.95        31.63957
481.39        31.53263
481.83        31.63704
482.27        31.58616
482.72        31.68513
483.16        31.82074
483.60        31.90976
484.04        31.93416
484.48        32.06966
484.93        32.30865
485.37        32.05981
485.81        32.17424
486.25         32.1559
486.69        33.02784
487.14        33.25142
487.58         32.6972
488.02         32.7087
488.46        32.56012
488.90        32.44829
489.34        32.81143
489.79        32.98988
490.23        33.11256
490.67        33.00615
491.11        32.78775
491.55        32.80199
491.99        33.03896
492.43        33.15886
492.88        33.15581
493.32        33.27394
493.76        33.48664
494.20        33.63874
494.64        33.72155
495.08        33.73215
495.52        33.71012
495.96        33.85586
496.41         34.1262
496.85        34.18726
497.29        34.03596
497.73          34.175
498.17        34.17115
498.61        34.34066
499.05        34.49473
499.49        34.53401
499.93        34.38698
500.37        34.48678
500.82        34.77995
501.26        34.96569
501.70         35.0183
502.14        35.09697
502.58         35.2168
503.02        35.32931
503.46        35.43354
503.90        35.53663
504.34        35.61697
504.78          35.643
505.22        35.61234
505.66        35.54276
506.10         35.4729
506.54        35.45028
506.98        35.48695
507.42        35.62259
507.86        35.73632
508.30         35.8657
508.74        35.96569
509.18        36.04821
509.62        36.11437
510.06        36.16975
510.50        36.21772
510.94        36.25125
511.38          36.277
511.82        36.30793
512.26        36.34772
512.70        36.39796
513.14        36.44904
513.58        36.48304
514.02        36.49754
514.46        36.49718
514.90        36.49992
515.34        36.53486
515.78        36.60469
516.22        36.69608
516.66        36.78234
517.10        36.82169
517.54        36.80438
517.98        36.74523
518.42         36.6641
518.86        36.59282
519.30        36.54416
519.74        36.51106
520.18        36.49184
520.62        36.48282
521.06        36.48086
521.50        36.48817
521.93        36.50297
522.37        36.50768
522.81        36.50382
523.25         36.4937
523.69        36.47705
524.13        36.45655
524.57        36.43122
525.01        36.39344
525.45        36.35311
525.89        36.32614
526.32        36.31045
526.76        36.31569
527.20        36.30711
527.64        36.23399
528.08        36.09373
528.52        35.90275
528.96        35.72585
529.40        35.66361
529.83        35.72976
530.27        35.89351
530.71         36.0695
531.15        36.12423
531.59        36.02795
532.03         35.8233
532.46        35.58116
532.90        35.43858
533.34        35.42252
533.78        35.47038
534.22         35.5336
534.66        35.58237
535.09        35.57116
535.53        35.44522
535.97        35.24683
536.41         35.1319
536.85        35.12143
537.28        35.13527
537.72        35.16769
538.16        35.23772
538.60         35.3358
539.04        35.46013
539.47        35.57246
539.91         35.6352
540.35        35.63664
540.79        35.59014
541.22        35.54112
541.66         35.5762
542.10         35.7059
542.54        35.90162
542.97        36.10669
543.41        36.24746
543.85        36.30169
544.29        36.30295
544.72        36.27931
545.16        36.29672
545.60        36.36678
546.04        36.47282
546.47        36.61699
546.91        36.79688
547.35        36.99973
547.79        37.22755
548.22        37.44583
548.66        37.59144
549.10        37.69979
549.53        37.76915
549.97        37.83505
550.41        37.87422
550.84        37.94048
551.28        38.12033
551.72        38.35801
552.15        38.59362
552.59        38.85739
553.03        38.60225
553.46        38.99977
553.90        39.05325
554.34        39.11047
554.77        39.16634
555.21        39.25883
555.65        39.41705
556.08        39.62531
556.52        39.84933
556.96        40.04123
557.39        40.23551
557.83        40.38901
558.27        40.29019
558.70        40.01722
559.14        39.93853
559.57        40.05592
560.01        40.14658
560.45        40.19345
560.88        40.28123
561.32        40.41895
561.75        40.58402
562.19        40.75098
562.63        40.78479
563.06        40.71914
563.50        40.75492
563.93        40.86784
564.37        40.99808
564.80        41.13795
565.24        41.17473
565.68        41.02446
566.11         41.5054
566.55         41.1353
566.98        41.06698
567.42        40.97602
567.85        41.14288
568.29        41.53462
568.72        41.86967
569.16        42.18325
569.60        42.41938
570.03        42.68834
570.47        43.02309
570.90        43.49492
571.34        43.02571
571.77        43.42787
572.21        43.73127
572.64        43.57186
573.08        43.76021
573.51        43.58845
573.95        43.83738
574.38        44.37374
574.82        44.46467
575.25        44.21169
575.69        44.26822
576.12        44.68205
576.56        44.01611
576.99        44.33601
577.42        44.54401
577.86        44.63159
578.29        45.02413
578.73        45.00676
579.16        44.76829
579.60        44.15789
580.03        44.12079
580.47        44.13943
580.90        44.57649
581.33        44.64658
581.77        44.95346
582.20        44.70266
582.64        44.73594
583.07        44.49581
583.51        44.11547
583.94        43.65914
584.37        43.59837
584.81        43.79731
585.24        43.79549
585.68        43.55047
586.11        43.48341
586.54        43.56997
586.98        43.25588
587.41         42.7881
587.85        42.90732
588.28        42.99793
588.71        42.57833
589.15        42.49468
589.58        42.74631
590.01        42.41182
590.45        42.51597
590.88         42.9964
591.31        42.90224
591.75        42.43721
592.18        42.19026
592.61        42.31983
593.05        42.82099
593.48        43.46482
593.91        43.51652
594.35        43.36175
594.78        42.91943
595.21        42.92755
595.65        43.29323
596.08        44.09714
596.51        44.27255
596.94        43.74907
597.38        43.66716
597.81        44.03222
598.24        44.56087
598.68         44.5464
599.11         44.6409
599.54        45.79743
599.97        45.32541
600.41        45.83049
600.84        45.69202
601.27        46.24767
601.70        46.59906
602.14         47.0551
602.57        47.25347
603.00        47.40268
603.43         47.3599
603.87        48.52043
604.30         48.9349
604.73        49.14163
605.16        48.89363
605.60        49.33946
606.03        49.59848
606.46        49.97166
606.89        50.08333
607.32        50.90608
607.76        51.14275
608.19        51.59788
608.62        51.87506
609.05        52.21031
609.48        52.45886
609.92        53.32513
610.35        53.29086
610.78        53.23574
611.21        53.47813
611.64        53.75037
612.07        54.18457
612.50        54.34199
612.94        54.55547
613.37        54.68584
613.80        55.01714
614.23        54.71663
614.66        54.87299
615.09        55.70369
615.52        56.10143
615.96        56.10654
616.39        56.59501
616.82        56.83667
617.25        56.72046
617.68        56.72048
618.11        57.07951
618.54        57.84568
618.97        58.11808
619.40        57.90268
619.84        57.95807
620.27        58.12151
620.70        58.22091
621.13        58.18554
621.56        57.97528
621.99        57.64899
622.42        57.69099
622.85        58.17083
623.28        58.06903
623.71        58.29937
624.14        58.97717
624.57        58.62819
625.00        58.60208
625.43        58.70185
625.86        58.60382
626.29        58.44202
626.72        58.08796
627.15        58.25188
627.58        58.23823
628.01        58.09896
628.44        58.18196
628.87        57.66966
629.30        56.98486
629.73        56.98311
630.16        56.70206
630.59        56.46655
631.02         56.3733
631.45        56.37382
631.88        56.26694
632.31        56.00414
632.74        55.64381
633.17        55.22848
633.60        54.83261
634.03         54.4818
634.46        54.14745
634.89        53.79647
635.32        53.39274
635.75        52.93507
636.18        52.39137
636.61        51.83291
637.04        51.39781
637.47        51.10537
637.89        50.90593
638.32        50.72215
638.75         50.4778
639.18         50.1518
639.61         49.7794
640.04        49.40281
640.47        49.08397
640.90        48.84195
641.33        48.65474
641.76        48.51733
642.18        48.43111
642.61         48.3719
643.04        48.34383
643.47          48.325
643.90        48.27789
644.33        48.19429
644.76        48.08727
645.18        47.97227
645.61        47.86448
646.04        47.78423
646.47          47.736
646.90        47.74767
647.33        47.84749
647.75         48.0218
648.18        48.31856
648.61        48.71896
649.04        48.99741
649.47        49.09445
649.89        49.80804
650.32        49.83805
650.75         50.1982
651.18        50.53231
651.61        51.00337
652.03        51.56036
652.46        52.04122
652.89        52.47863
653.32        52.77098
653.74        52.99827
654.17        53.70403
654.60        54.09085
655.03        54.28069
655.46        54.32316
655.88         54.9261
656.31        57.63034
656.74        61.82887
657.16        61.38505
657.59        60.16594
658.02        58.02794
658.45        58.55779
658.87        58.19426
659.30        58.20567
659.73        58.45607
660.15        59.68389
660.58         59.2468
661.01        59.38644
661.44         59.4033
661.86        59.38453
662.29        59.34411
662.72        60.15538
663.14        60.56031
663.57        60.77225
664.00        60.56997
664.42        60.78414
664.85        61.44765
665.27        62.08335
665.70        62.51921
666.13        62.76648
666.55        62.79884
666.98        62.55677
667.41        62.16507
667.83        62.23837
668.26        62.18435
668.69        62.45783
669.11        62.82077
669.54        63.17239
669.96        63.47536
670.39        63.82684
670.82        64.16767
671.24        64.26212
671.67         64.1737
672.09        64.11913
672.52         64.2013
672.94        64.51382
673.37        64.96841
673.80        65.16866
674.22        65.12489
674.65         65.1964
675.07        65.40495
675.50        65.47997
675.92        65.43945
676.35        65.44352
676.77        65.51411
677.20        65.60637
677.62        65.72474
678.05        65.87709
678.47        66.05369
678.90        66.25942
679.32        66.47792
679.75          66.674
680.17        66.82857
680.60        66.99986
681.02        67.18756
681.45        67.23965
681.87        67.22217
682.30        67.45924
682.72        67.92416
683.15        68.00214
683.57        68.11456
684.00        68.11037
684.42        68.18459
684.85        68.35136
685.27         68.6255
685.70        68.96961
686.12        69.27819
686.54        69.51054
686.97        69.65309
687.39        69.35861
687.82        69.36464
688.24        69.24589
688.66        69.24074
689.09        69.30344
689.51        69.42573
689.94        69.54655
690.36        69.65024
690.78        69.74469
691.21        69.85972
691.63        70.03193
692.06        70.26533
692.48        70.55089
692.90         70.8072
693.33        70.91419
693.75        70.85316
694.17        70.63441
694.60        70.40605
695.02        70.42164
695.44        70.70249
695.87        71.17374
696.29        71.68365
696.71        71.78705
697.14        71.54437
697.56        71.50663
697.98        71.73997
698.41        71.91414
698.83        72.03014
699.25        72.35917
699.68        72.76315
700.10        72.94042
700.52         72.8253
700.94        72.53072
701.37        72.22662
701.79         72.1905
702.21        72.47592
702.64         72.9697
703.06        73.53011
703.48        73.90692
703.90        74.02199
704.33        73.95595
704.75        73.77597
705.17        73.57948
705.59        73.42569
706.01        73.29359
706.44        73.22514
706.86        73.31562
707.28        73.56065
707.70        73.91982
708.12        74.33784
708.55         74.7412
708.97        75.07923
709.39        75.28161
709.81        75.35073
710.23         75.3925
710.66        75.41936
711.08        75.38972
711.50        75.29728
711.92        75.18391
712.34        75.07044
712.76        74.97224
713.19        74.90695
713.61        74.93657
714.03        75.05478
714.45        75.24982
714.87        75.50806
715.29        75.81001
715.71        76.12935
716.13        76.44742
716.56        76.72435
716.98        76.92934
717.40         76.9964
717.82         77.0787
718.24        77.19344
718.66        76.64378
719.08        76.61617
719.50        76.23491
719.92        75.95013
720.34        75.88953
720.76        76.08739
721.19        76.45448
721.61        76.93466
722.03        77.40161
722.45         77.7794
722.87        78.07998
723.29        78.24356
723.71        78.18455
724.13        77.91586
724.55        77.48293
724.97         77.0165
725.39        76.74215
725.81        76.72604
726.23        76.88654
726.65        77.16116
727.07        77.60914
727.49        77.89982
727.91        78.27666
728.33        78.61393
728.75        78.85019
729.17        78.96345
729.59        78.95184
730.01        78.86929
730.43        78.81158
730.85        78.81248
731.27        78.86111
731.69        78.91693
732.10        78.92052
732.52        78.85585
732.94         78.7356
733.36        78.64689
733.78         78.6573
734.20        78.56384
734.62        78.93434
735.04        79.68212
735.46         79.0125
735.88        79.37241
736.30        79.51288
736.72        80.12165
737.13        80.57795
737.55        80.72039
737.97        80.92076
738.39        81.08005
738.81        80.61015
739.23        79.76801
739.65        79.77795
740.06        80.50784
740.48        80.80656
740.90        80.59998
741.32        80.58244
741.74        80.79813
742.16        80.95398
742.57         81.0446
742.99         81.1274
743.41        81.18566
743.83        81.17363
744.25        81.09285
744.67        80.94228
745.08        80.80472
745.50        80.78771
745.92        80.91953
746.34        81.16142
746.75        81.41893
747.17         81.5037
747.59        81.38556
748.01        81.18252
748.42        80.98373
748.84         80.8102
749.26        80.76756
749.68        81.05515
750.09        81.55086
750.51        81.89748
750.93        81.97948
751.35        81.80959
751.76        81.46877
752.18        81.20257
752.60        81.02457
753.01        80.90274
753.43        80.89931
753.85        80.82739
754.27        80.62688
754.68        81.66628
755.10        81.81013
755.52        81.76859
755.93         82.2086
756.35        82.08186
756.77        81.97891
757.18        82.03796
757.60        82.33999
758.02        83.18234
758.43        84.10642
758.85        83.31737
759.26        82.90885
759.68        81.30252
760.10        80.72028
760.51        82.29465
760.93        82.66118
761.34        82.78758
761.76        82.98019
762.18        82.81142
762.59        82.85744
763.01        83.09447
763.42         83.5519
763.84        83.72622
764.26        83.61057
764.67        83.42253
765.09        83.27458
765.50        83.30792
765.92        83.51345
766.33        83.29252
766.75        82.74055
767.16        82.83357
767.58         82.3308
768.00        82.40221
768.41        82.68468
768.83        83.34209
769.24         84.0672
769.66        84.19581
770.07        83.78742
770.49        83.26929
770.90        82.93655
771.32        83.40415
771.73        84.44112
772.15        84.80356
772.56        84.40593
772.97        83.94411
773.39        83.63434
773.80        83.51506
774.22         83.6274
774.63        84.02071
775.05        84.46547
775.46        84.67445
775.88        84.53542
776.29        84.16529
776.70        83.75163
777.12        83.62495
777.53        83.87598
777.95        84.35101
778.36        84.88775
778.77        85.16606
779.19        85.12648
779.60        84.89692
780.02        84.57723
780.43          84.428
780.84        84.56589
781.26        84.48683
781.67        84.27296
782.09        85.05971
782.50        86.54848
782.91        85.85097
783.33        85.15723
783.74         84.5571
784.15        84.76812
784.57        84.76066
784.98        84.56595
785.39        84.58461
785.81        84.82861
786.22        85.32835
786.63        85.93387
787.04         86.2919
787.46        86.34811
787.87        86.20123
788.28        86.01881
788.70        85.94999
789.11        86.01015
789.52        86.35554
789.93        86.80153
790.35        86.65123
790.76        86.02901
791.17        85.86704
791.58        86.23495
792.00        86.34037
792.41        86.17284
792.82        86.51926
793.23        87.13638
793.65        86.73004
794.06        85.69776
794.47        85.73557
794.88        86.52404
795.29        87.79664
795.71        86.55342
796.12        86.25395
796.53         86.2179
796.94         86.2375
797.35        86.36694
797.76         86.8627
798.18         87.5321
798.59         87.8704
799.00        87.76592
799.41        87.39809
799.82        86.94738
800.23        86.68523
800.64        86.69467
801.06        86.85289
801.47        87.09692
801.88        87.21124
802.29        87.12732
802.70        86.91135
803.11        86.63705
803.52        86.41664
803.93        86.32052
804.34        86.33215
804.75        86.41941
805.17        86.64021
805.58        87.04378
805.99        87.20258
806.40        87.20487
806.81        88.13497
807.22        89.54308
807.63        89.24628
808.04         87.5416
808.45        86.81217
808.86        87.25567
809.27        87.59715
809.68        87.64197
810.09        87.67078
810.50        87.63484
810.91        87.46824
811.32        87.34795
811.73        87.53783
812.14         88.0698
812.55        88.90063
812.96        89.77624
813.37        90.07543
813.78        89.72266
814.19        89.20916
814.60        88.66669
815.01        88.00463
815.42          87.293
815.83        86.64085
816.24        86.17281
816.65        86.04134
817.05        86.30315
817.46        86.89804
817.87        87.61351
818.28        88.04568
818.69        88.09433
819.10        87.82109
819.51        87.44078
819.92        87.36698
820.33        87.70354
820.74        88.30758
821.14        88.92843
821.55        89.16306
821.96        88.92397
822.37        88.35713
822.78         87.6852
823.19        87.27306
823.60        87.24445
824.00        87.52599
824.41        87.92923
824.82        88.27113
825.23        88.45731
825.64        88.54458
826.04        88.57997
826.45        88.58441
826.86        88.59409
827.27        88.59409
827.68        88.55768
828.08        88.48698
828.49        88.32993
828.90        88.12557
829.31        87.97406
829.72        88.03086
830.12        88.34813
830.53         88.8059
830.94        89.24732
831.35        89.34359
831.75        89.03867
832.16        88.41537
832.57        87.70118
832.97        87.23006
833.38        87.10504
833.79        87.20898
834.20        87.47996
834.60        87.81268
835.01         88.1565
835.42        88.59878
835.82        89.05048
836.23        89.24671
836.64        89.17769
837.04        88.85079
837.45        88.55392
837.86        88.85182
838.26        89.86386
838.67        91.36891
839.08        92.83523
839.48        93.25956
839.89        92.39632
840.29        90.62491
840.70        88.73934
841.11        87.64466
841.51        87.57942
841.92        88.25593
842.33        89.35061
842.73        90.28121
843.14        90.68121
843.54        90.77497
843.95         90.7166
844.35        90.82214
844.76        91.14308
845.17        91.54942
845.57         91.8551
845.98        91.75299
846.38        91.22162
846.79        90.37531
847.19        89.49564
847.60        88.98486
848.00        88.95824
848.41         89.2681
848.81        89.72047
849.22        89.87464
849.62        89.67126
850.03        89.24606
850.43        88.77829
850.84        88.46494
851.24        88.44193
851.65        88.53522
852.05        88.87505
852.46        89.52824
852.86        90.42075
853.27        91.47992
853.67        92.31134
854.07        92.53614
854.48        92.08138
854.88        91.10005
855.29        89.84296
855.69        88.98206
856.10        88.66482
856.50        88.81055
856.90        89.24469
857.31        89.52749
857.71        89.60925
858.12        89.52181
858.52        89.42201
858.92        89.41689
859.33        89.51511
859.73        89.69932
860.13        89.82008
860.54        89.68771
860.94        89.32693
861.34        88.80035
861.75        88.27303
862.15        88.06171
862.55        88.21172
862.96        88.57797
863.36        89.07365
863.76        89.42782
864.17        89.52853
864.57        89.49053
864.97        89.25884
865.38        88.75871
865.78        88.05717
866.18        87.17839
866.58        86.37079
866.99        86.08058
867.39        86.44183
867.79        87.29617
868.19        88.35315
868.60        89.13013
869.00        89.52042
869.40        89.61025
869.80        89.48866
870.21        89.34688
870.61        89.34943
871.01        89.37598
871.41        89.34958
871.81        89.17142
872.22        88.81863
872.62        88.33255
873.02        87.88786
873.42        87.75098
873.82        87.96603
874.22        88.44062
874.63        88.89037
875.03        88.88257
875.43        88.32588
875.83        87.38739
876.23        86.37726
876.63        85.76302
877.03        85.67633
877.44        85.96702
877.84        86.48879
878.24        86.94328
878.64        87.17667
879.04        87.17838
879.44        87.08282
879.84        87.13955
880.24        87.36542
880.64        87.65553
881.04        87.76039
881.44        87.30187
881.84        86.26101
882.24        84.84206
882.65        83.45482
883.05        82.70473
883.45        82.74947
883.85        83.41232
884.25        84.43728
884.65        85.36134
885.05         85.9864
885.45         86.4142
885.85         86.6628
886.25        86.78043
886.65        86.80953
887.05        86.70312
887.45        86.53293
887.85        86.45769
888.25        86.50329
888.65        86.62722
889.04         86.7504
889.44        86.76414
889.84        86.62115
890.24        86.37965
890.64        86.04031
891.04        85.60516
891.44        85.12986
891.84        84.65793
892.24        84.30933
892.64        84.25281
893.04        84.51956
893.44          85.061
893.83        85.80351
894.23        86.54736
894.63        87.22252
895.03        87.81713
895.43        88.31159
895.83        88.70659
896.23        88.97453
896.63        89.06349
897.02        88.93265
897.42        88.56548
897.82        87.99778
898.22        87.33098
898.62        86.62296
899.01        85.91674
899.41        85.29336
899.81        84.74989
900.21        84.43376
900.61        84.56915
901.00        85.15786
901.40          86.087
901.80        87.07529
902.20        87.67024
902.59        87.76456
902.99        87.46696
903.39        86.96378
903.79        86.58029
904.18        86.41468
904.58         86.3671
904.98        86.43639
905.38        86.63317
905.77        86.93271
906.17         87.3807
906.57        87.78275
906.96            87.8
907.36        87.36507
907.76         86.5936
908.15        85.86138
908.55        85.74633
908.95        86.37344
909.34        87.56755
909.74        88.87074
910.14        89.63297
910.53        89.62243
910.93        89.04362
911.33        88.14393
911.72        87.29465
912.12        86.71578
912.52        86.32241
912.91        86.03906
913.31        85.78705
913.70        85.54641
914.10        85.33137
914.49        85.33978
914.89        85.76312
915.29         86.6328
915.68        87.85759
916.08         88.9937
916.47        89.41576
916.87        89.00158
917.26        87.91487
917.66        86.70576
918.05        86.02419
918.45        86.03861
918.84        86.62311
919.24        87.37981
919.64        87.76459
920.03        87.63428
920.42        87.13129
920.82        86.64185
921.21        86.69482
921.61        87.37028
922.00        88.52315
922.40        89.71742
922.79        90.38004
923.19        90.30026
923.58        89.71792
923.98        88.96208
924.37        88.42305
924.77        88.24253
925.16         88.2229
925.55        88.34479
925.95         88.5573
926.34        88.80984
926.74        89.10638
927.13        89.20437
927.52         88.6249
927.92        87.41412
928.31        85.77733
928.70        84.18552
929.10        83.32104
929.49        83.32938
929.89        83.92114
930.28        85.00992
930.67        86.27159
931.07        87.46693
931.46        88.76328
931.85        89.69688
932.24        89.59469
932.64        88.46647
933.03        86.48115
933.42        84.54752
933.82        84.02879
934.21        85.18198
934.60        87.68024
934.99         90.6059
935.39        92.25235
935.78        92.14291
936.17        90.64361
936.56        88.58005
936.96        87.27435
937.35        87.10342
937.74        87.67273
938.13        88.38999
938.53         88.3614
938.92        87.39458
939.31         85.8922
939.70        84.40781
940.09        83.67713
940.49        83.83133
940.88        84.66164
941.27          85.798
941.66        86.58272
942.05        86.79163
942.44        86.63444
942.84        86.37553
943.23        86.42518
943.62        86.88787
944.01        87.54579
944.40        88.26228
944.79        88.86014
945.18        89.23009
945.57        89.42907
945.97        89.29823
946.36        88.69921
946.75         87.6418
947.14        86.30009
947.53        84.98907
947.92        84.13898
948.31        83.85281
948.70        84.00876
949.09         84.5353
949.48        85.27554
949.87        86.10872
950.26        87.04566
950.65        87.86893
951.04        88.24225
951.43        88.08964
951.82        87.45477
952.21        86.63371
952.60        86.14212
952.99        86.13401
953.38        86.52225
953.77        87.03947
954.16        87.24695
954.55        87.02571
954.94        86.45787
955.33        85.87238
955.72        85.82773
956.11        86.45757
956.50        87.62663
956.89        88.74934
957.28        88.85615
957.66        87.75216
958.05        85.81895
958.44         83.8952
958.83        83.18219
959.22        83.89774
959.61        85.69958
960.00        87.80795
960.39        88.77621
960.78        88.16572
961.16          86.434
961.55        84.44827
961.94        83.32619
962.33        83.36952
962.72        84.31496
963.11        85.66674
963.49        86.52316
963.88        86.45547
964.27        85.73875
964.66        85.04656
965.04        85.40809
965.43        86.94946
965.82         89.4166
966.21        91.82446
966.60        92.30627
966.98        90.38973
967.37        86.91746
967.76        83.32255
968.15        81.37424
968.53        81.41071
968.92        82.96381
969.31        85.24461
969.69        86.66372
970.08        86.52114
970.47        85.32185
970.86        83.93229
971.24        83.56606
971.63        84.49635
972.02        86.36919
972.40        88.42829
972.79        88.91238
973.17        87.45933
973.56        84.75294
973.95        82.01354
974.33        80.79294
974.72        81.37832
975.11        83.29212
975.49        85.76122
975.88        87.14751
976.26        86.94518
976.65        85.59127
977.04        83.78233
977.42        82.55845
977.81        82.19866
978.19          82.347
978.58        82.82092
978.96        83.32745
979.35        83.68676
979.74        84.07293
980.12        84.47523
980.51        84.55552
980.89         84.4101
981.28        84.06453
981.66        83.73782
982.05        83.78238
982.43        84.27596
982.82        85.07722
983.20        86.21304
983.59        87.51174
983.97        88.94471
984.35        90.47228
984.74        91.64603
985.12        92.01206
985.51        91.42745
985.89        90.06648
986.28        88.59219
986.66         87.9318
987.04        88.36661
987.43        89.61504
987.81        91.20051
988.20        91.94433
988.58        91.52821
988.96        90.22758
989.35        88.61501
989.73        87.46055
990.12        86.94227
990.50        86.85076
990.88        86.83481
991.27        86.33593
991.65        85.26897
992.03        83.90591
992.42        82.68697
992.80        82.08929
993.18        82.24449
993.56        82.98935
993.95        83.93819
994.33        84.64552
994.71        84.79768
995.10        84.66132
995.48        84.44194
995.86        84.58385
996.24        85.20216
996.63         85.9238
997.01        86.91961
997.39        88.04973
997.77        89.10932
998.15        90.20277
998.54        90.76738
998.92        89.82663
999.30         87.4932
999.68        84.15523
1000.06        81.10121
1000.45        80.11794
1000.83        81.66751
1001.21         85.4491
1001.59        90.25632
1001.97        93.12743
1002.35        92.89639
1002.73        90.43297
1003.12        87.47107
1003.50        86.21632
1003.88        87.26704
1004.26        89.81062
1004.64        93.03841
1005.02        95.24209
1005.40        95.61478
1005.78        94.90484
1006.16        93.16943
1006.54        90.42652
1006.92        87.11465
1007.30        83.37168
1007.69        80.40462
1008.07        79.79173
1008.45        81.93208
1008.83        86.49778
1009.21        92.30374
1009.59        96.19278
1009.97        96.53082
1010.35         94.1288
1010.73        89.97147
1011.11        85.60648
1011.49        81.85939
1011.86        78.51666
1012.24        76.16695
1012.62        75.49667
1013.00        76.51791
1013.38        79.15912
1013.76        82.92183
1014.14        86.15285
1014.52        87.79285
1014.90        87.96577
1015.28        86.89938
1015.66        85.15261
1016.04         83.0359
1016.41        80.44795
1016.79        77.77178
1017.17        75.95456
1017.55        75.28881
1017.93        75.54845
1018.31        76.40061
1018.69        77.25002
1019.06        77.94231
1019.44          78.723
1019.82        79.17653
1020.20        78.47931
1020.58        76.56808
1020.95        73.63918
1021.33        71.19812
1021.71        70.88431
1022.09        72.91313
1022.46         77.3259
1022.84        82.60387
1023.22        84.86778
1023.60        82.64622
1023.97        77.07769
1024.35          71.631
1024.73        70.36314
