SpectraSmart Spectrum 2.9.0.0
--------- Device Information -----------
Spectrum Name :  反射率_0
Saving Time :  2024/04/27 00:12:56
Spectro-Module Model Name : SE2030-DUVN
Spectro-Module Serial Number : OS361AC55029948
Wavelength Start : 200
Wavelength End : 1025
Wavelength Unit : Wavelength(nm)
Spectrum Unit : Reflectance(%)
-----------Spectrum Setting ------------
Integration Time : 20ms
Average : 10
Boxcar : 0
Background removal :  enabled
linearity correction :  enabled
SC :  disabled
Intensity correction :  disabled
DWT denoise :  enabled
savitzky-golay :  disabled
FFT :  disabled
Running average :  disabled
Kalman :  disabled
High pass :  disabled
---------------BEGIN--------------------
Wavelength(nm)             Reflectance(%)
200.29               0
200.75        24.85595
201.21        27.56521
201.67        30.35149
202.13         32.0205
202.58        32.41744
203.04        32.38362
203.50        31.94892
203.96        30.97588
204.42        29.53904
204.88         27.3217
205.34        25.10607
205.80        24.44545
206.26        25.43501
206.72        27.50269
207.18        29.15617
207.64        28.88796
208.10        26.48245
208.55        21.79067
209.01        15.06128
209.47        11.62725
209.93        14.36377
210.39        19.82044
210.85        24.54348
211.31        27.43677
211.77        29.30082
212.23        31.13319
212.69        35.06486
213.14        47.61012
213.60         56.0736
214.06        53.91434
214.52        49.16812
214.98        44.54037
215.44        39.46133
215.90        33.35497
216.36        27.00008
216.81        21.62028
217.27        17.97534
217.73        15.82005
218.19        15.44936
218.65        17.25568
219.11        20.47556
219.57        23.74833
220.02        27.54561
220.48        34.08507
220.94        44.87827
221.40        62.08961
221.86        85.91772
222.32        102.7524
222.77        99.30142
223.23        84.22726
223.69        68.34663
224.15        58.00254
224.61        52.59792
225.06        49.68559
225.52        48.53415
225.98        48.26693
226.44        48.62103
226.90        49.86376
227.36        51.88093
227.81        54.20111
228.27        56.47873
228.73        58.25191
229.19         59.6312
229.65        60.97217
230.10        62.29768
230.56        63.64662
231.02        64.29848
231.48        63.20974
231.93        60.46848
232.39        56.96281
232.85        53.91898
233.31        52.93706
233.77        54.05834
234.22        56.70912
234.68         59.7377
235.14        61.38677
235.60        61.11594
236.05        59.37646
236.51         56.7025
236.97        54.46177
237.43        53.31163
237.88        52.94288
238.34        53.04726
238.80        53.26415
239.26        53.45041
239.71         54.2352
240.17        55.26837
240.63        56.01464
241.08        56.30314
241.54        55.52062
242.00        55.12558
242.46        58.35135
242.91        67.52266
243.37        84.43057
243.83        108.9974
244.28        127.7333
244.74        122.9481
245.20        96.75994
245.66        66.29422
246.11        45.18441
246.57        33.66192
247.03         27.2201
247.48        25.32595
247.94        27.34711
248.40        31.16993
248.85        35.55204
249.31        38.83712
249.77        39.57192
250.22         37.7674
250.68        33.46546
251.14        27.18387
251.59        22.53411
252.05        22.54282
252.51        26.12705
252.96        30.77666
253.42        34.15604
253.88         36.0698
254.33        36.98581
254.79        38.43982
255.25        41.61843
255.70        46.42482
256.16        52.43812
256.62        57.36578
257.07        57.75684
257.53        54.72934
257.99        50.49722
258.44        47.10513
258.90        46.49448
259.35        47.76218
259.81        50.16886
260.27        52.32661
260.72        52.55193
261.18        51.10084
261.63        48.67609
262.09        46.52822
262.55        45.52885
263.00         45.5655
263.46         46.2726
263.91        46.93361
264.37         46.9036
264.83         46.1068
265.28        44.85032
265.74        43.70036
266.19        43.08112
266.65        43.10277
267.11        43.47507
267.56         43.9311
268.02        44.05837
268.47        43.73979
268.93        43.16627
269.38        42.40843
269.84        41.62212
270.30        40.86786
270.75        40.08111
271.21        39.41367
271.66        39.04667
272.12        38.99115
272.57        39.17402
273.03        39.34375
273.48        39.07296
273.94        38.33606
274.39        37.24768
274.85        36.14291
275.31        35.35336
275.76        34.92053
276.22        34.75758
276.67        34.66476
277.13        34.45311
277.58         34.0213
278.04        33.46898
278.49        32.83796
278.95        32.30027
279.40        31.84058
279.86        31.48159
280.31        31.08387
280.77        30.56322
281.22        29.88578
281.68         29.1639
282.13          28.513
282.59        28.17201
283.04        28.12394
283.50        28.29676
283.95        28.50293
284.41        28.46476
284.86         28.1105
285.32        27.55183
285.77        26.92387
286.22        26.47494
286.68        26.25096
287.13        26.14682
287.59        26.06059
288.04         25.7949
288.50         25.3454
288.95        24.77326
289.41        24.21091
289.86        23.78334
290.32        23.54514
290.77        23.42336
291.22        23.36907
291.68        23.29922
292.13        23.18019
292.59        23.05976
293.04        22.94887
293.50        22.88437
293.95        22.87112
294.40        22.89216
294.86        22.96636
295.31         23.1192
295.77        23.35316
296.22        23.65726
296.68        23.97675
297.13        24.21131
297.58        24.34895
298.04        24.41505
298.49        24.48624
298.95        24.70267
299.40        25.07681
299.85         25.5549
300.31        26.03417
300.76        26.35222
301.21        26.47598
301.67        26.47573
302.12        26.40969
302.58        26.41403
303.03        26.50555
303.48        26.65908
303.94        26.85495
304.39        27.04024
304.84        27.20698
305.30        27.38363
305.75        27.54766
306.20        27.70593
306.66        27.86404
307.11        28.00178
307.57        28.13272
308.02        28.24561
308.47         28.3468
308.93        28.44364
309.38        28.52303
309.83        28.60612
310.29        28.69202
310.74        28.76404
311.19        28.81064
311.65        28.80814
312.10        28.74787
312.55        28.64333
313.00        28.50257
313.46        28.33512
313.91        28.14089
314.36        27.92778
314.82        27.71994
315.27        27.56561
315.72        27.47127
316.18        27.43094
316.63        27.40035
317.08        27.32099
317.53        27.17866
317.99        26.98653
318.44        26.77913
318.89        26.60558
319.35         26.4794
319.80        26.37925
320.25        26.28714
320.70        26.17654
321.16        26.03525
321.61        25.88326
322.06        25.71135
322.51        25.50581
322.97        25.26622
323.42        24.99856
323.87        24.74163
324.32        24.56372
324.78        24.46847
325.23        24.45306
325.68        24.44051
326.13         24.3056
326.59        24.02227
327.04        23.64004
327.49        23.24942
327.94         22.9951
328.39        22.90693
328.85        22.93003
329.30        23.00863
329.75         22.9975
330.20        22.85319
330.66        22.61935
331.11        22.35675
331.56        22.14327
332.01        22.00603
332.46         21.9114
332.92        21.84017
333.37        21.80043
333.82        21.77034
334.27        21.75893
334.72        21.73788
335.17        21.65405
335.63        21.49942
336.08        21.30247
336.53        21.10621
336.98         20.9931
337.43         20.9852
337.88        21.05358
338.34        21.16886
338.79        21.29931
339.24        21.41143
339.69         21.5108
340.14        21.56163
340.59        21.51146
341.05        21.36368
341.50        21.13102
341.95        20.87781
342.40        20.70461
342.85        20.63871
343.30        20.65906
343.75         20.7208
344.20        20.74662
344.66        20.71837
345.11        20.65749
345.56         20.5981
346.01        20.59326
346.46        20.65564
346.91        20.76434
347.36        20.88235
347.81        20.95869
348.26        20.97934
348.72        20.95636
349.17        20.92094
349.62        20.93438
350.07        21.00584
350.52        21.11603
350.97        21.20617
351.42        21.18351
351.87        21.03542
352.32        20.80061
352.77        20.55566
353.22        20.41032
353.67        20.38791
354.13        20.45606
354.58         20.5554
355.03        20.59159
355.48        20.53533
355.93        20.41531
356.38        20.27248
356.83        20.16745
357.28        20.11303
357.73        20.08452
358.18        20.04986
358.63        19.96239
359.08        19.81305
359.53        19.62357
359.98        19.42325
360.43        19.25051
360.88        19.11407
361.33        19.00142
361.78        18.89627
362.23        18.77417
362.68        18.63095
363.13        18.47868
363.58        18.32714
364.03        18.18953
364.48        18.06733
364.93        17.95039
365.38        17.83948
365.83        17.73782
366.28        17.64425
366.73        17.56142
367.18        17.47009
367.63         17.3392
368.08        17.16671
368.53        16.96278
368.98        16.76581
369.43         16.6365
369.88        16.58722
370.33        16.60165
370.78         16.6358
371.23         16.6148
371.68        16.52015
372.13        16.37441
372.58        16.21929
373.03         16.1235
373.48        16.09962
373.93        16.11529
374.38        16.13769
374.83        16.11657
375.28        16.03641
375.72        15.91684
376.17        15.76859
376.62        15.58424
377.07        15.37518
377.52        15.14518
377.97        14.94069
378.42        14.84004
378.87        14.85285
379.32        14.94845
379.77        15.06344
380.22        15.10173
380.67        15.03794
381.11        14.90147
381.56        14.71496
382.01        14.54148
382.46        14.41279
382.91        14.31884
383.36        14.25585
383.81        14.21574
384.26        14.19167
384.71        14.18562
385.15        14.19782
385.60        14.22902
386.05        14.27044
386.50        14.31416
386.95        14.33578
387.40        14.30344
387.85        14.21617
388.29        14.08033
388.74        13.94395
389.19        13.84061
389.64        13.77678
390.09        13.73943
390.54        13.71128
390.98        13.66001
391.43        13.58844
391.88        13.50945
392.33        13.43279
392.78        13.37021
393.23        13.32496
393.67        13.28397
394.12        13.26229
394.57        13.25697
395.02        13.26421
395.47        13.27805
395.91        13.28973
396.36        13.27507
396.81        13.23822
397.26        13.18966
397.71        13.13343
398.15        13.08425
398.60        13.06194
399.05        13.00631
399.50        12.94106
399.95        12.99568
400.39        13.12953
400.84        13.10668
401.29        12.93176
401.74        12.81737
402.18        12.77697
402.63        12.68008
403.08        12.56083
403.53         12.5297
403.97         12.5943
404.42        12.72346
404.87         12.8555
405.32        12.88897
405.76        12.80147
406.21        12.63241
406.66        12.44812
407.11        12.35405
407.55        12.37733
408.00        12.47788
408.45        12.60337
408.90        12.65322
409.34        12.59747
409.79        12.47795
410.24         12.3354
410.68        12.21972
411.13        12.15052
411.58        12.10679
412.03         12.0896
412.47        12.10492
412.92        12.14326
413.37        12.20753
413.81        12.27036
414.26        12.30134
414.71        12.29074
415.15        12.24502
415.60        12.18523
416.05        12.16202
416.49        12.18996
416.94         12.2552
417.39        12.32527
417.83         12.3479
418.28         12.3125
418.73         12.2358
419.17         12.1584
419.62        12.14441
420.07        12.20684
420.51        12.31883
420.96         12.4379
421.41        12.49755
421.85        12.47762
422.30        12.39624
422.74        12.28351
423.19        12.23999
423.64        12.25754
424.08        12.24476
424.53        12.18631
424.98        12.15413
425.42        12.15562
425.87        12.12369
426.31        12.06743
426.76        12.08633
427.21         12.1483
427.65        12.07816
428.10        11.93202
428.54        11.92195
428.99        12.06233
429.44        12.28321
429.88        12.49535
430.33        12.51311
430.77        12.35988
431.22        12.29442
431.66        12.34469
432.11        12.34234
432.56        12.30383
433.00        12.38366
433.45        12.50685
433.89        12.44583
434.34        12.27667
434.78        11.96049
435.23        12.19607
435.67        12.22597
436.12        12.22615
436.57        12.21562
437.01        12.20404
437.46        12.21517
437.90        12.24072
438.35        12.24033
438.79        12.20801
439.24         12.1751
439.68        12.14562
440.13        12.11195
440.57        12.08141
441.02        12.08055
441.46        12.11091
441.91        12.13013
442.35        12.13361
442.80        12.23615
443.24        12.38209
443.69        12.36422
444.13        12.20757
444.58         12.1483
445.02        12.19759
445.47        12.23068
445.91        12.23459
446.36        12.25023
446.80        12.27021
447.24        12.28263
447.69        12.29043
448.13        12.29113
448.58        12.28734
449.02        12.28137
449.47        12.26631
449.91        12.22522
450.36        12.16323
450.80        12.08567
451.25        12.02245
451.69        12.01262
452.13        12.06123
452.58        12.14994
453.02        12.24473
453.47        12.29235
453.91        12.27923
454.36        12.22652
454.80        12.14808
455.24        12.06585
455.69         11.9971
456.13        11.92752
456.58        11.88738
457.02        11.90241
457.46        11.97698
457.91        12.10019
458.35        12.22023
458.79        12.25473
459.24        12.20036
459.68        12.07668
460.13        11.95042
460.57           11.89
461.01         11.9213
461.46        12.00908
461.90        12.12796
462.34         12.2231
462.79        12.26972
463.23        12.28928
463.68        12.27501
464.12        12.22456
464.56        12.14405
465.01        12.05118
465.45        11.95493
465.89        11.90209
466.34         11.8972
466.78        11.92615
467.22        11.97462
467.67        12.00357
468.11        12.00761
468.55        11.99267
468.99        11.96775
469.44        11.94614
469.88        11.93423
470.32        11.92704
470.77         11.9276
471.21        11.94419
471.65        11.97541
472.10        12.02141
472.54        12.07046
472.98        12.10868
473.42        12.13149
473.87        12.14438
474.31        12.14641
474.75        12.14957
475.20        12.15968
475.64        12.16953
476.08        12.17911
476.52         12.1813
476.97        12.17653
477.41        12.17539
477.85        12.18681
478.29        12.20601
478.74        12.24388
479.18        12.32618
479.62        12.43365
480.06        12.51655
480.50        12.56623
480.95         12.5851
481.39        12.57089
481.83        12.64134
482.27        12.61737
482.72        12.65745
483.16        12.70261
483.60        12.71887
484.04        12.69452
484.48        12.71431
484.93        12.86325
485.37        12.84172
485.81        13.00503
486.25        13.40241
486.69        13.37583
487.14        13.13541
487.58        13.74048
488.02        13.82365
488.46          13.488
488.90        13.55092
489.34        13.18234
489.79        13.29952
490.23         13.5776
490.67        13.81044
491.11        13.91773
491.55        13.86024
491.99        13.71921
492.43           13.73
492.88        13.92105
493.32        14.13185
493.76        14.30984
494.20        14.46199
494.64         14.5769
495.08        14.62249
495.52        14.62732
495.96        14.73725
496.41        14.93415
496.85        14.97705
497.29        14.89101
497.73        15.06593
498.17        15.27853
498.61        15.43421
499.05          15.452
499.49        15.49038
499.93        15.52339
500.37        15.62747
500.82         15.7743
501.26        15.87625
501.70        15.92468
502.14        15.98149
502.58        16.05899
503.02        16.14296
503.46        16.23441
503.90        16.33588
504.34         16.4343
504.78        16.50766
505.22        16.55078
505.66        16.57009
506.10        16.57831
506.54        16.59648
506.98        16.63219
507.42        16.68143
507.86        16.73995
508.30        16.80018
508.74        16.85826
509.18        16.91447
509.62        16.97117
510.06        17.03205
510.50        17.09627
510.94        17.16161
511.38        17.21752
511.82        17.24767
512.26        17.25144
512.70        17.23643
513.14        17.22085
513.58        17.23402
514.02        17.28229
514.46        17.35458
514.90         17.4365
515.34        17.50464
515.78        17.54953
516.22        17.57691
516.66        17.58562
517.10        17.57449
517.54        17.54702
517.98        17.50498
518.42        17.45998
518.86        17.43097
519.30        17.42346
519.74        17.43428
520.18        17.45615
520.62        17.47536
521.06        17.48752
521.50        17.49596
521.93         17.5035
522.37         17.5086
522.81        17.51291
523.25        17.51204
523.69        17.50542
524.13        17.49385
524.57        17.47643
525.01        17.45321
525.45        17.42014
525.89        17.37065
526.32        17.30397
526.76        17.22847
527.20        17.15224
527.64        17.08887
528.08        17.04166
528.52         17.0063
528.96        16.97803
529.40        16.94883
529.83        16.91495
530.27        16.87948
530.71        16.83972
531.15        16.79284
531.59         16.7409
532.03        16.68613
532.46        16.63213
532.90        16.59679
533.34        16.58005
533.78        16.56696
534.22        16.55565
534.66        16.56335
535.09        16.57494
535.53        16.55172
535.97        16.49457
536.41        16.44872
536.85        16.41912
537.28        16.38088
537.72         16.3472
538.16        16.35136
538.60        16.39595
539.04        16.46999
539.47        16.55156
539.91        16.61674
540.35        16.65585
540.79         16.6791
541.22        16.69538
541.66        16.72565
542.10        16.77361
542.54        16.83159
542.97         16.8988
543.41        16.98142
543.85        17.07611
544.29        17.18531
544.72        17.29256
545.16        17.38388
545.60        17.45504
546.04        17.51351
546.47        17.58336
546.91        17.70066
547.35        17.86794
547.79        18.07007
548.22         18.2761
548.66        18.43577
549.10        18.56032
549.53        18.65688
549.97        18.74297
550.41        18.80384
550.84        18.86886
551.28        18.98377
551.72        19.13133
552.15        19.29939
552.59        19.50589
553.03        19.46745
553.46        19.76611
553.90        19.88694
554.34        19.99942
554.77        20.10291
555.21        20.21012
555.65          20.325
556.08        20.44004
556.52        20.54338
556.96        20.62472
557.39        20.72487
557.83        20.82781
558.27        20.81808
558.70        20.72983
559.14        20.74237
559.57        20.85283
560.01        20.94857
560.45        21.01435
560.88         21.0926
561.32        21.18853
561.75        21.26883
562.19        21.33502
562.63        21.38515
563.06        21.41764
563.50        21.43815
563.93        21.44373
564.37        21.48595
564.80        21.57724
565.24        21.65085
565.68        21.65503
566.11        21.97907
566.55        21.83137
566.98        21.87863
567.42        21.92662
567.85        22.01371
568.29        22.15234
568.72        22.34167
569.16        22.59495
569.60        22.79795
570.03        23.02166
570.47        23.25931
570.90        23.51376
571.34        23.52108
571.77        23.70539
572.21        23.74877
572.64        23.78023
573.08        23.82379
573.51        23.89833
573.95        24.03762
574.38         24.2313
574.82        24.49101
575.25        24.16987
575.69        24.33131
576.12        24.32009
576.56        24.13935
576.99        24.40105
577.42        24.55042
577.86        24.59682
578.29        24.93919
578.73        24.79611
579.16        24.70367
579.60         24.4395
580.03        24.41912
580.47        24.35069
580.90        24.42128
581.33        24.48997
581.77        24.44773
582.20        24.30548
582.64         24.1864
583.07        24.02866
583.51        23.91084
583.94        23.88244
584.37        23.75395
584.81         23.5476
585.24         23.4963
585.68        23.60548
586.11        23.37372
586.54        23.37556
586.98        23.20971
587.41        23.09629
587.85        23.06945
588.28        22.97709
588.71        23.10732
589.15        22.96116
589.58        22.74433
590.01        22.77609
590.45        22.75029
590.88        22.77523
591.31        22.71467
591.75         22.6413
592.18        22.57904
592.61        22.53171
593.05        22.99411
593.48        23.44133
593.91        23.06122
594.35        23.14693
594.78        22.98066
595.21        23.02727
595.65        23.21795
596.08        23.57308
596.51        23.76991
596.94        23.70268
597.38        23.79961
597.81        24.05338
598.24        24.16034
598.68        24.20806
599.11         24.3452
599.54        25.20423
599.97        24.88552
600.41        25.52118
600.84        25.51302
601.27        25.91763
601.70        26.13162
602.14        26.30179
602.57        26.65821
603.00         27.2059
603.43        27.25385
603.87         27.8419
604.30         28.1152
604.73        28.45493
605.16        28.54322
605.60        28.84728
606.03         29.1125
606.46        29.45716
606.89        29.57444
607.32        30.15301
607.76        30.43728
608.19        30.71165
608.62        30.97663
609.05        31.32568
609.48        31.52412
609.92        31.97579
610.35        32.25417
610.78        32.39871
611.21        32.40551
611.64        32.86303
612.07        33.18201
612.50        33.35458
612.94        33.53785
613.37         33.6582
613.80        33.93698
614.23        33.71134
614.66        33.94612
615.09        34.41347
615.52        34.75589
615.96         34.9165
616.39         35.1771
616.82        35.56528
617.25        35.51411
617.68         35.7461
618.11        35.91275
618.54        36.20136
618.97        36.33809
619.40        36.33765
619.84        36.54847
620.27        36.62852
620.70        36.85352
621.13        37.05602
621.56        36.96353
621.99        36.63514
622.42        36.66135
622.85        36.91759
623.28        37.00057
623.71        36.83168
624.14         37.2333
624.57         37.3511
625.00        37.31776
625.43        37.36038
625.86        37.27778
626.29        37.28053
626.72        36.80562
627.15        36.93909
627.58        36.80141
628.01        36.68069
628.44        36.52422
628.87         36.3318
629.30        36.10836
629.73        35.87175
630.16        35.67424
630.59        35.51979
631.02        35.38803
631.45        35.24995
631.88        35.06129
632.31        34.80737
632.74        34.49893
633.17        34.15093
633.60        33.78979
634.03        33.42846
634.46        33.06133
634.89        32.68845
635.32        32.31663
635.75        31.95053
636.18        31.56017
636.61        31.16864
637.04        30.82605
637.47        30.53578
637.89        30.28032
638.32        30.02406
638.75          29.741
639.18        29.42698
639.61        29.09365
640.04        28.77521
640.47        28.52178
640.90        28.34227
641.33        28.22293
641.76        28.12771
642.18        28.00143
642.61        27.82367
643.04        27.61607
643.47        27.42015
643.90        27.30135
644.33        27.27483
644.76        27.32176
645.18        27.40107
645.61         27.4399
646.04         27.4249
646.47        27.38091
646.90        27.35451
647.33        27.41471
647.75        27.57007
648.18        27.82362
648.61        28.14554
649.04        28.39797
649.47        28.53183
649.89        28.97736
650.32        29.00727
650.75        29.30449
651.18        29.66096
651.61         30.1076
652.03        30.60272
652.46        31.03168
652.89        31.40883
653.32        31.75307
653.74        32.10749
654.17        32.55943
654.60        32.78558
655.03        33.06954
655.46        33.49187
655.88        33.93747
656.31        36.09439
656.74        38.19973
657.16        37.66696
657.59        37.64328
658.02        36.52826
658.45        36.71538
658.87        36.38134
659.30        37.01194
659.73        36.81559
660.15        37.57545
660.58        37.45725
661.01        37.70389
661.44        37.91757
661.86        37.96632
662.29        37.88738
662.72        38.29531
663.14        38.46585
663.57        38.72414
664.00        38.87096
664.42        39.13271
664.85        39.51386
665.27         39.8961
665.70        40.20269
666.13        40.40219
666.55        40.48383
666.98         40.4147
667.41        40.25679
667.83         40.3742
668.26        40.37969
668.69        40.58862
669.11        40.83736
669.54        41.06017
669.96        41.23475
670.39        41.37684
670.82         41.5124
671.24        41.66251
671.67        41.82929
672.09        41.99185
672.52        42.13815
672.94        42.22879
673.37        42.26681
673.80        42.26453
674.22        42.26743
674.65        42.32341
675.07        42.45698
675.50        42.64468
675.92        42.84927
676.35        43.00169
676.77        43.08762
677.20        43.12774
677.62        43.16007
678.05        43.24046
678.47        43.38015
678.90        43.56669
679.32        43.77403
679.75        43.92579
680.17        44.07972
680.60        44.19246
681.02        44.29024
681.45        44.38141
681.87        44.48214
682.30        44.55909
682.72        44.63379
683.15        44.77406
683.57        44.96505
684.00        45.06277
684.42        45.09326
684.85        45.21674
685.27        45.42953
685.70        45.65238
686.12        45.84051
686.54        45.95034
686.97        45.98079
687.39        46.00128
687.82        46.01425
688.24        45.99492
688.66        45.95223
689.09         45.9022
689.51        45.89493
689.94        45.98246
690.36        46.17558
690.78        46.43815
691.21         46.7195
691.63         46.9353
692.06        47.06204
692.48        47.12698
692.90        47.13891
693.33        47.12267
693.75        47.09406
694.17        47.02446
694.60        46.97533
695.02         47.0524
695.44         47.2483
695.87        47.54784
696.29        47.86023
696.71        47.86677
697.14        47.63478
697.56        47.60962
697.98        47.81329
698.41        47.92803
698.83        47.95003
699.25        48.10787
699.68        48.33433
700.10        48.48178
700.52        48.45402
700.94        48.36514
701.37        48.27662
701.79        48.32357
702.21        48.52793
702.64        48.82965
703.06        49.16084
703.48          49.399
703.90        49.50452
704.33        49.51482
704.75        49.45969
705.17        49.38114
705.59        49.31041
706.01        49.24195
706.44        49.20267
706.86        49.25724
707.28        49.40496
707.70        49.60795
708.12        49.84201
708.55        50.09923
708.97        50.34017
709.39        50.46879
709.81        50.48276
710.23        50.49023
710.66        50.50127
711.08        50.46112
711.50        50.38202
711.92        50.33125
712.34        50.32483
712.76         50.3593
713.19        50.41548
713.61        50.48375
714.03        50.54819
714.45        50.61914
714.87        50.71891
715.29        50.88409
715.71        51.11222
716.13        51.37219
716.56        51.61193
716.98        51.81557
717.40        51.93613
717.82        51.98837
718.24        51.95893
718.66        51.82801
719.08        51.62121
719.50        51.37177
719.92        51.15965
720.34        51.10276
720.76        51.22421
721.19        51.47094
721.61        51.81353
722.03         52.1576
722.45        52.45089
722.87        52.70063
723.29        52.85813
723.71        52.85376
724.13        52.69001
724.55         52.3952
724.97        52.06314
725.39        51.85599
725.81         51.8237
726.23        51.91661
726.65        52.08261
727.07        52.34416
727.49        52.47987
727.91         52.6602
728.33        52.83831
728.75        53.03409
729.17        53.24011
729.59        53.43095
730.01        53.57925
730.43        53.64881
730.85        53.63604
731.27        53.55917
731.69        53.44491
732.10        53.34238
732.52        53.27777
732.94        53.20461
733.36         53.1311
733.78        53.12585
734.20        53.21636
734.62        53.02787
735.04         53.5424
735.46        53.22081
735.88        53.42432
736.30        53.47111
736.72        53.70364
737.13        54.10709
737.55        54.50698
737.97        54.68322
738.39        54.58701
738.81        54.23166
739.23         53.7945
739.65        53.81824
740.06        54.21922
740.48        54.38959
740.90        54.28467
741.32        54.30587
741.74        54.48368
742.16        54.63947
742.57        54.76329
742.99        54.89013
743.41        54.98334
743.83         54.9706
744.25        54.84998
744.67         54.6366
745.08        54.42374
745.50        54.34951
745.92        54.44935
746.34        54.67152
746.75        54.92945
747.17        55.06881
747.59        55.06308
748.01        54.97307
748.42        54.84303
748.84        54.78361
749.26        54.83841
749.68        54.83838
750.09        54.80162
750.51        55.14324
750.93        55.66736
751.35        55.55902
751.76        54.91904
752.18          54.613
752.60        54.68304
753.01         54.6912
753.43         54.6087
753.85        54.53254
754.27        54.44795
754.68        54.74632
755.10        54.70258
755.52        54.89283
755.93        55.07474
756.35        55.25291
756.77        55.46151
757.18        55.59886
757.60        55.65298
758.02        55.97531
758.43        56.46948
758.85        55.66893
759.26        55.55357
759.68        54.98885
760.10         55.6134
760.51        55.80352
760.93        55.88553
761.34        55.76099
761.76        56.35169
762.18        56.29168
762.59        56.05932
763.01        55.76228
763.42        56.59052
763.84        56.78473
764.26        56.62718
764.67        56.42223
765.09        56.28292
765.50        56.16471
765.92        56.11893
766.33        56.13537
766.75          56.117
767.16        56.08638
767.58        55.99952
768.00        55.74729
768.41        55.48686
768.83        55.70747
769.24        56.26935
769.66        56.54128
770.07        56.45502
770.49        56.16014
770.90        55.85727
771.32        56.15551
771.73        56.91504
772.15        57.18964
772.56        56.93227
772.97        56.63839
773.39        56.40939
773.80         56.4786
774.22        56.34703
774.63            56.5
775.05        56.67956
775.46        56.78801
775.88        56.76563
776.29        56.66672
776.70        56.56642
777.12        56.59605
777.53        56.78545
777.95        57.04502
778.36        57.30115
778.77        57.40661
779.19        57.34986
779.60        57.20984
780.02        57.00787
780.43        56.88703
780.84        56.91132
781.26        56.67572
781.67        56.35223
782.09        57.05579
782.50        58.39061
782.91        58.35913
783.33        57.11708
783.74        56.65145
784.15        57.06167
784.57        57.28288
784.98        57.25846
785.39        57.16577
785.81        57.09707
786.22        57.54484
786.63        58.33827
787.04        58.54748
787.46        58.20757
787.87        58.09352
788.28        58.27553
788.70        58.32187
789.11        58.22611
789.52        58.32731
789.93         58.5371
790.35        58.40743
790.76        58.00398
791.17        57.80849
791.58        57.86293
792.00        57.81708
792.41         57.6879
792.82        57.78702
793.23        58.02757
793.65         57.9804
794.06        57.75594
794.47         57.8347
794.88        58.11838
795.29        58.70634
795.71        58.19665
796.12        58.24526
796.53        58.51108
796.94        58.09781
797.35        58.02717
797.76         58.2664
798.18        58.96169
798.59        59.26706
799.00        59.09396
799.41        58.86624
799.82        58.67835
800.23        58.53124
800.64        58.46546
801.06        58.45388
801.47        58.49287
801.88        58.49781
802.29        58.44244
802.70        58.34708
803.11        58.23498
803.52        58.14167
803.93        58.09805
804.34        58.10484
804.75        58.14772
805.17        58.27019
805.58        58.50934
805.99        58.59407
806.40        58.58756
806.81        59.16533
807.22        60.05496
807.63        59.93091
808.04        58.94221
808.45        58.48124
808.86        58.65993
809.27        58.72145
809.68         58.5917
810.09        58.52118
810.50        58.50311
810.91        58.47028
811.32        58.49036
811.73        58.66713
812.14        59.00362
812.55        59.46855
812.96        59.91305
813.37        60.05598
813.78        59.83202
814.19        59.35204
814.60        58.79295
815.01        58.39458
815.42        58.21521
815.83        58.18528
816.24        58.26927
816.65        58.39183
817.05        58.51521
817.46        58.64774
817.87        58.76105
818.28         58.7625
818.69        58.64468
819.10        58.41382
819.51         58.1844
819.92        58.17482
820.33        58.43185
820.74        58.88251
821.14        59.37685
821.55        59.66844
821.96        59.69336
822.37        59.52544
822.78        59.25972
823.19        59.06199
823.60        58.99364
824.00        59.02152
824.41        59.08228
824.82        59.15998
825.23        59.22796
825.64        59.30485
826.04        59.37348
826.45         59.3621
826.86        59.27541
827.27        59.13855
827.68        58.98391
828.08        58.89494
828.49        58.85476
828.90        58.85695
829.31        58.92894
829.72        59.11507
830.12        59.42551
830.53        59.79044
830.94         60.1046
831.35        60.14897
831.75        59.89299
832.16        59.39174
832.57        58.81628
832.97        58.42162
833.38        58.28778
833.79        58.33422
834.20        58.51403
834.60        58.74302
835.01         58.9801
835.42        59.28417
835.82        59.58935
836.23        59.71169
836.64        59.63945
837.04        59.37604
837.45        59.11586
837.86         59.2401
838.26         59.8357
838.67        60.76591
839.08        61.68086
839.48        61.91747
839.89        61.32013
840.29         60.1349
840.70        58.91449
841.11        58.29526
841.51        58.43028
841.92        59.10814
842.33        60.05028
842.73        60.75336
843.14        60.93824
843.54        60.79696
843.95        60.49182
844.35        60.33212
844.76        60.38976
845.17         60.5528
845.57        60.71366
845.98        60.68694
846.38         60.4493
846.79        60.07838
847.19        59.68869
847.60        59.42704
848.00        59.34941
848.41        59.39015
848.81        59.51057
849.22          59.577
849.62        59.58565
850.03        59.56371
850.43        59.55775
850.84        59.58175
851.24        59.68429
851.65         59.7995
852.05        59.99262
852.46        60.28588
852.86        60.65194
853.27        61.04754
853.67        61.33656
854.07        61.43409
854.48        61.30794
854.88          61.024
855.29        60.58674
855.69        60.12641
856.10        59.66054
856.50         59.2464
856.90        58.93805
857.31        58.83067
857.71        58.97881
858.12        59.29105
858.52        59.70094
858.92        59.98999
859.33        60.06338
859.73         60.0001
860.13        59.77283
860.54        59.37532
860.94        58.88487
861.34         58.3122
861.75        57.78885
862.15        57.56149
862.55        57.67259
862.96        58.04319
863.36        58.58961
863.76        59.07683
864.17         59.3923
864.57         59.5934
864.97        59.64951
865.38        59.54211
865.78        59.31295
866.18        58.95816
866.58        58.56163
866.99        58.28579
867.39         58.2096
867.79        58.30603
868.19        58.52903
868.60        58.76755
869.00          59.002
869.40        59.22692
869.80        59.43222
870.21        59.59182
870.61        59.73602
871.01        59.82175
871.41         59.7738
871.81        59.49527
872.22        58.98691
872.62        58.27637
873.02         57.5744
873.42        57.23598
873.82        57.34942
874.22        57.82355
874.63        58.37268
875.03        58.55119
875.43        58.24279
875.83        57.58282
876.23        56.85615
876.63        56.50774
877.03        56.64694
877.44        57.11246
877.84        57.67424
878.24        57.97953
878.64        57.87591
879.04        57.32886
879.44        56.66249
879.84         56.4939
880.24        56.90214
880.64        57.64135
881.04        58.35484
881.44        58.50023
881.84        57.95249
882.24        56.91224
882.65        55.77628
883.05        55.14702
883.45        55.18919
883.85        55.73808
884.25        56.50875
884.65          57.014
885.05         57.0979
885.45        56.90018
885.85        56.63365
886.25        56.61994
886.65        56.92795
887.05        57.43076
887.45        57.91993
887.85        58.07335
888.25        57.80894
888.65        57.24203
889.04        56.58606
889.44        56.18393
889.84        56.11438
890.24        56.29144
890.64        56.54018
891.04        56.57568
891.44        56.33352
891.84        55.91838
892.24        55.51702
892.64        55.39373
893.04        55.61067
893.44        56.09809
893.83        56.69219
894.23        57.07859
894.63         57.1918
895.03        57.09051
895.43        56.98406
895.83        57.22535
896.23        57.85779
896.63        58.72236
897.02        59.49605
897.42        59.69909
897.82         59.2386
898.22        58.33595
898.62        57.26244
899.01        56.40954
899.41        55.91891
899.81        55.66037
900.21        55.63027
900.61        55.81725
901.00        56.16631
901.40        56.68758
901.80        57.18611
902.20        57.32916
902.59        57.07237
902.99        56.50126
903.39        55.86417
903.79        55.58939
904.18        55.77076
904.58        56.25509
904.98        56.89025
905.38        57.45248
905.77        57.85552
906.17        58.18817
906.57        58.36249
906.96        58.23172
907.36        57.79581
907.76        57.11378
908.15        56.46772
908.55        56.29539
908.95        56.69016
909.34        57.52973
909.74        58.48661
910.14        59.07883
910.53        59.12734
910.93        58.79028
911.33        58.20012
911.72        57.55877
912.12        57.02687
912.52        56.56803
912.91        56.21858
913.31        56.05021
913.70        56.07137
914.10        56.23873
914.49        56.60238
914.89        57.15025
915.29        57.84545
915.68        58.66451
916.08        59.31955
916.47        59.41047
916.87        58.89533
917.26        57.89338
917.66        56.84687
918.05        56.29822
918.45        56.36772
918.84        56.94579
919.24        57.69526
919.64        58.12808
920.03        58.09948
920.42        57.73034
920.82        57.30136
921.21        57.19549
921.61         57.4864
922.00        58.05822
922.40         58.6526
922.79        58.95314
923.19        58.83675
923.58        58.46376
923.98        58.00372
924.37        57.63949
924.77        57.45517
925.16         57.3548
925.55        57.37006
925.95        57.54461
926.34         57.8582
926.74        58.26061
927.13        58.58546
927.52        58.50004
927.92        58.00275
928.31        57.21112
928.70        56.34869
929.10        55.73238
929.49        55.44415
929.89        55.34815
930.28         55.5126
930.67        55.94646
931.07        56.57083
931.46         57.4428
931.85        58.20612
932.24        58.31848
932.64        57.73321
933.03        56.58135
933.42        55.40906
933.82        55.02882
934.21        55.60473
934.60        56.94714
934.99        58.54164
935.39        59.44436
935.78        59.40801
936.17        58.63427
936.56        57.60848
936.96        57.09636
937.35         57.2854
937.74         57.9119
938.13        58.57923
938.53        58.69299
938.92        58.13045
939.31        57.16693
939.70        56.10877
940.09        55.35769
940.49        55.00397
940.88        54.92863
941.27        55.09496
941.66        55.43113
942.05        55.87027
942.44        56.45446
942.84        57.02578
943.23        57.31313
943.62        57.26848
944.01        56.89992
944.40        56.45187
944.79         56.3664
945.18        56.72224
945.57        57.38681
945.97        57.97464
946.36        57.91792
946.75        57.07522
947.14        55.73276
947.53        54.30124
947.92        53.34471
948.31        53.00689
948.70        53.11073
949.09        53.52735
949.48        54.02868
949.87        54.49707
950.26        55.00356
950.65        55.45993
951.04         55.7154
951.43        55.74513
951.82        55.54553
952.21        55.27523
952.60        55.22792
952.99        55.47335
953.38        55.94035
953.77        56.46354
954.16        56.77783
954.55        56.80114
954.94        56.57708
955.33        56.25008
955.72        56.07093
956.11        56.11287
956.50        56.33288
956.89        56.49227
957.28          56.196
957.66        55.39276
958.05        54.28166
958.44        53.26972
958.83        52.93106
959.22        53.34999
959.61        54.33975
960.00        55.50394
960.39         56.1002
960.78        55.89418
961.16        55.12851
961.55         54.1713
961.94        53.49507
962.33        53.25011
962.72        53.31073
963.11        53.60903
963.49        54.04063
963.88        54.45742
964.27        54.87644
964.66        55.31661
965.04         55.8384
965.43          56.394
965.82        56.98576
966.21         57.3614
966.60        57.09427
966.98        56.13254
967.37        54.73107
967.76        53.40905
968.15        52.80392
968.53        53.02575
968.92        53.93096
969.31        55.13103
969.69        55.82467
970.08        55.66506
970.47        54.89192
970.86        54.01007
971.24        53.74677
971.63        54.24988
972.02         55.3128
972.40        56.49545
972.79        56.74221
973.17         55.8524
973.56        54.25431
973.95        52.60831
974.33        51.73363
974.72        51.79306
975.11        52.49333
975.49        53.56426
975.88          54.436
976.26        54.87745
976.65        55.01064
977.04        54.84765
977.42        54.37973
977.81        53.64379
978.19        52.63171
978.58        51.69502
978.96         51.3674
979.35        51.75789
979.74        52.77428
980.12        54.11237
980.51         54.9705
980.89        55.20192
981.28        54.95802
981.66        54.58028
982.05        54.55247
982.43         55.0046
982.82        55.75616
983.20        56.68263
983.59        57.48074
983.97        58.07422
984.35         58.5396
984.74        58.76662
985.12         58.8026
985.51        58.62036
985.89        58.22601
986.28        57.83878
986.66        57.72553
987.04        57.98245
987.43         58.5028
987.81        59.07413
988.20        59.18906
988.58        58.72883
988.96        57.81684
989.35        56.70171
989.73        55.72709
990.12        54.97974
990.50        54.41863
990.88        53.95249
991.27        53.45583
991.65         52.9313
992.03        52.46263
992.42        52.22941
992.80        52.45269
993.18        53.16293
993.56        54.26888
993.95        55.43594
994.33        56.19977
994.71         56.2826
995.10        55.88894
995.48        55.26632
995.86        54.88575
996.24        54.87407
996.63        54.97495
997.01        55.27176
997.39        55.63377
997.77        55.95554
998.15        56.35979
998.54        56.56884
998.92        56.04989
999.30        54.85703
999.68        53.17114
1000.06        51.68541
1000.45        51.35606
1000.83        52.45723
1001.21        54.84601
1001.59        57.82812
1001.97        59.66602
1002.35          59.699
1002.73         58.4453
1003.12        56.97845
1003.50        56.66225
1003.88        57.86048
1004.26        59.97781
1004.64        62.52144
1005.02        64.39969
1005.40        65.03954
1005.78        64.99564
1006.16         63.9048
1006.54        61.17155
1006.92        57.15075
1007.30        52.22683
1007.69        48.14217
1008.07        47.24189
1008.45        50.10714
1008.83        56.31367
1009.21        64.17604
1009.59        69.30116
1009.97        69.51396
1010.35        65.92929
1010.73        60.35313
1011.11        55.54407
1011.49        52.46955
1011.86        50.43732
1012.24        49.33496
1012.62        49.03991
1013.00        49.40438
1013.38        50.64639
1013.76        52.59317
1014.14        54.44209
1014.52        55.65137
1014.90        56.11203
1015.28        55.89432
1015.66        55.34078
1016.04        54.59354
1016.41        53.57589
1016.79        52.34594
1017.17        51.14024
1017.55        50.10636
1017.93        49.28209
1018.31        48.76459
1018.69          48.575
1019.06        48.70856
1019.44        49.30626
1019.82        50.07066
1020.20        50.33416
1020.58        49.85963
1020.95         48.6707
1021.33        47.70887
1021.71        48.10797
1022.09        50.05959
1022.46        53.62615
1022.84        57.54979
1023.22        58.61803
1023.60        55.76068
1023.97        49.99421
1024.35        44.54116
1024.73        43.05981
