SpectraSmart Spectrum 2.9.0.0
--------- Device Information -----------
Spectrum Name :  反射率_0
Saving Time :  2024/04/27 00:18:35
Spectro-Module Model Name : SE2030-DUVN
Spectro-Module Serial Number : OS361AC55029948
Wavelength Start : 200
Wavelength End : 1025
Wavelength Unit : Wavelength(nm)
Spectrum Unit : Reflectance(%)
-----------Spectrum Setting ------------
Integration Time : 20ms
Average : 10
Boxcar : 0
Background removal :  enabled
linearity correction :  enabled
SC :  disabled
Intensity correction :  disabled
DWT denoise :  enabled
savitzky-golay :  disabled
FFT :  disabled
Running average :  disabled
Kalman :  disabled
High pass :  disabled
---------------BEGIN--------------------
Wavelength(nm)             Reflectance(%)
200.29               0
200.75        19.01566
201.21        19.01111
201.67        19.03324
202.13        18.33334
202.58        16.64573
203.04        14.27123
203.50        11.58327
203.96        10.05931
204.42        10.83678
204.88        13.65736
205.34        17.64867
205.80        20.87998
206.26        22.38433
206.72        22.50903
207.18        21.68591
207.64        20.27053
208.10        18.23885
208.55        15.14432
209.01        10.72524
209.47        7.560038
209.93        7.735136
210.39        10.03604
210.85         12.4446
211.31        14.05992
211.77        15.33086
212.23        17.13167
212.69        22.07557
213.14        37.33229
213.60        47.80254
214.06        45.34911
214.52        40.53692
214.98        37.17555
215.44        34.48963
215.90        31.44814
216.36        28.27021
216.81        25.32967
217.27        22.98043
217.73        21.10147
218.19        19.60467
218.65        18.75546
219.11        18.94575
219.57        19.74893
220.02        21.03703
220.48        23.36802
220.94        27.11966
221.40        33.06548
221.86        40.95701
222.32        45.46335
222.77        42.37717
223.23        35.71693
223.69        29.67291
224.15        26.53038
224.61        25.71074
225.06        25.96557
225.52        26.93212
225.98        28.28042
226.44        29.90178
226.90        32.01014
227.36        34.13764
227.81        35.30325
228.27        35.41619
228.73        34.67385
229.19        33.96313
229.65         34.4103
230.10        36.03922
230.56        38.45283
231.02        40.68877
231.48        41.20321
231.93        39.78637
232.39         37.3991
232.85        34.98312
233.31        33.74553
233.77        33.83651
234.22        34.84802
234.68        36.27048
235.14         37.4641
235.60        38.17736
236.05         38.6059
236.51        38.77966
236.97        38.72132
237.43        38.47074
237.88        37.99972
238.34        37.34369
238.80        36.79197
239.26        36.45456
239.71        36.52459
240.17         36.9299
240.63        37.77085
241.08        39.15787
241.54        40.87599
242.00        43.16811
242.46         46.6573
242.91        52.19024
243.37        60.20965
243.83          70.743
244.28         78.7103
244.74        77.09335
245.20        66.83984
245.66        54.42438
246.11         44.7776
246.57        38.33797
247.03        32.98884
247.48        30.03984
247.94         31.5462
248.40        35.97811
248.85        41.18639
249.31        44.60539
249.77        43.86698
250.22        38.79144
250.68        29.18202
251.14        16.65754
251.59        9.285757
252.05         12.2993
252.51          22.311
252.96        32.76839
253.42        37.67699
253.88        37.37304
254.33        34.29543
254.79        31.85891
255.25        32.88989
255.70        37.23523
256.16         43.6105
256.62        49.21127
257.07        49.87513
257.53        46.65923
257.99        42.28641
258.44          38.818
258.90        38.08916
259.35        39.26318
259.81        41.47233
260.27        43.61877
260.72        44.38233
261.18        43.83595
261.63        42.47044
262.09        41.03439
262.55        39.91917
263.00        39.12572
263.46        38.56725
263.91        38.01297
264.37        37.39936
264.83        36.70496
265.28        35.98658
265.74        35.44305
266.19        35.07946
266.65        34.93675
267.11        34.89613
267.56        34.90771
268.02        34.89244
268.47        34.80841
268.93        34.69191
269.38        34.44361
269.84        33.96974
270.30         33.2614
270.75         32.3415
271.21         31.4322
271.66         30.8208
272.12        30.56438
272.57        30.57738
273.03         30.6083
273.48        30.24404
273.94        29.45812
274.39        28.37543
274.85        27.34447
275.31        26.73073
275.76        26.56179
276.22        26.71009
276.67        26.89931
277.13        26.80939
277.58        26.33992
278.04         25.6342
278.49        24.83773
278.95        24.25527
279.40        23.90909
279.86        23.76019
280.31         23.6217
280.77        23.31591
281.22        22.79582
281.68        22.18832
282.13        21.63502
282.59        21.38825
283.04          21.445
283.50        21.71616
283.95        22.01894
284.41          22.072
284.86        21.81402
285.32        21.37475
285.77        20.88436
286.22        20.57129
286.68        20.48426
287.13        20.51512
287.59        20.61913
288.04        20.69427
288.50        20.71991
288.95        20.71263
289.41        20.66233
289.86        20.49657
290.32         20.2475
290.77        19.92556
291.22        19.62862
291.68        19.49687
292.13        19.54781
292.59        19.75215
293.04        20.03023
293.50          20.269
293.95        20.42607
294.40        20.53644
294.86        20.64216
295.31         20.8041
295.77        21.04362
296.22         21.3309
296.68        21.63882
297.13        21.91881
297.58        22.16479
298.04        22.39598
298.49        22.64096
298.95        22.95409
299.40         23.3358
299.85        23.76378
300.31        24.19015
300.76          24.541
301.21        24.79687
301.67        24.98429
302.12        25.12311
302.58         25.2916
303.03        25.48351
303.48        25.69073
303.94         25.8801
304.39        25.97983
304.84        25.99051
305.30        25.95087
305.75        25.88948
306.20        25.89169
306.66        25.97785
307.11        26.10716
307.57        26.24683
308.02        26.31382
308.47        26.29751
308.93        26.23093
309.38        26.13359
309.83        26.07023
310.29        26.05657
310.74        26.06877
311.19        26.08197
311.65        26.05383
312.10        25.96978
312.55        25.84241
313.00         25.7028
313.46        25.59506
313.91        25.51633
314.36        25.45687
314.82        25.37795
315.27        25.22664
315.72        24.99496
316.18         24.7157
316.63        24.42752
317.08        24.19872
317.53        24.04605
317.99         23.9449
318.44        23.87833
318.89        23.80775
319.35        23.71765
319.80        23.61668
320.25        23.50057
320.70        23.36346
321.16        23.20437
321.61        23.02855
322.06         22.8427
322.51        22.66505
322.97        22.49689
323.42        22.33522
323.87        22.18475
324.32         22.0541
324.78        21.93589
325.23        21.84672
325.68        21.74102
326.13        21.54984
326.59        21.26772
327.04        20.92478
327.49         20.6072
327.94         20.4524
328.39         20.4818
328.85        20.64586
329.30        20.85566
329.75        20.90878
330.20        20.74617
330.66        20.42239
331.11        20.04293
331.56        19.76487
332.01        19.63612
332.46        19.60425
332.92        19.61389
333.37          19.603
333.82        19.53124
334.27        19.43261
334.72        19.30818
335.17          19.152
335.63        18.97132
336.08         18.7742
336.53        18.59363
336.98        18.49674
337.43        18.49632
337.88        18.57072
338.34        18.67925
338.79        18.76588
339.24         18.7995
339.69        18.79749
340.14        18.75466
340.59        18.66805
341.05        18.55393
341.50        18.41035
341.95        18.28188
342.40        18.23858
342.85        18.29237
343.30        18.42275
343.75        18.57718
344.20        18.66792
344.66        18.67127
345.11        18.60588
345.56        18.50655
346.01        18.43183
346.46        18.40201
346.91        18.40378
347.36        18.41329
347.81        18.39591
348.26        18.34529
348.72        18.27519
349.17        18.21603
349.62        18.22335
350.07         18.3036
350.52        18.43703
350.97        18.56326
351.42        18.58742
351.87        18.49163
352.32        18.30815
352.77         18.1074
353.22        17.99305
353.67        17.98805
354.13        18.06435
354.58        18.16274
355.03        18.19052
355.48        18.12239
355.93        17.98829
356.38        17.84135
356.83        17.75995
357.28        17.75815
357.73        17.80535
358.18        17.85044
358.63        17.81377
359.08        17.67845
359.53        17.47717
359.98        17.25603
360.43        17.08014
360.88        16.96576
361.33        16.89118
361.78        16.83535
362.23        16.76567
362.68        16.67342
363.13        16.57451
363.58        16.47311
364.03        16.37279
364.48        16.27526
364.93         16.1731
365.38        16.07903
365.83        16.01599
366.28        15.98687
366.73        15.98798
367.18        15.98662
367.63        15.93166
368.08        15.81328
368.53        15.64219
368.98        15.46571
369.43        15.35978
369.88        15.33939
370.33        15.38489
370.78        15.43292
371.23        15.37789
371.68        15.19831
372.13        14.92953
372.58         14.6522
373.03        14.49363
373.48        14.48213
373.93         14.5746
374.38        14.69672
374.83        14.72996
375.28        14.64186
375.72        14.46759
376.17        14.26659
376.62        14.10782
377.07        14.01322
377.52        13.96039
377.97        13.92799
378.42        13.88578
378.87        13.82459
379.32        13.75519
379.77        13.69419
380.22        13.66241
380.67        13.65949
381.11        13.67754
381.56        13.68037
382.01        13.62415
382.46        13.50522
382.91        13.34864
383.36        13.19115
383.81        13.08073
384.26         13.0261
384.71        13.00988
385.15        13.01904
385.60        13.03615
386.05        13.04823
386.50        13.06016
386.95         13.0575
387.40        13.01903
387.85        12.94566
388.29         12.8377
388.74        12.73497
389.19        12.66483
389.64        12.63154
390.09         12.6237
390.54        12.62279
390.98        12.59469
391.43        12.53975
391.88        12.46836
392.33        12.39351
392.78        12.33251
393.23        12.28969
393.67        12.25324
394.12           12.23
394.57        12.20582
395.02        12.17711
395.47        12.14302
395.91        12.11104
396.36        12.08477
396.81        12.07268
397.26        12.07361
397.71        12.07219
398.15        12.05406
398.60        12.03145
399.05        11.95837
399.50         11.8666
399.95        11.88877
400.39        11.99131
400.84        11.95358
401.29         11.7798
401.74         11.6636
402.18        11.61674
402.63        11.52341
403.08        11.41188
403.53        11.37648
403.97         11.4236
404.42        11.52596
404.87        11.63348
405.32        11.66398
405.76        11.59796
406.21        11.46669
406.66        11.32271
407.11        11.25025
407.55         11.2714
408.00         11.3539
408.45        11.45386
408.90        11.48676
409.34        11.42905
409.79        11.31624
410.24        11.18738
410.68        11.09132
411.13        11.04425
411.58        11.02406
412.03        11.02421
412.47        11.03659
412.92        11.04951
413.37        11.07233
413.81        11.08439
414.26        11.06238
414.71        11.00067
415.15        10.90447
415.60        10.80353
416.05        10.76206
416.49        10.79675
416.94        10.88861
417.39        10.99093
417.83        11.02966
418.28        10.98609
418.73        10.87943
419.17        10.75615
419.62        10.69148
420.07        10.70452
420.51        10.77046
420.96        10.84362
421.41        10.85263
421.85        10.78084
422.30        10.65225
422.74        10.51309
423.19        10.47771
423.64        10.54313
424.08        10.62288
424.53         10.6748
424.98         10.7144
425.42        10.73251
425.87        10.67546
426.31        10.58101
426.76        10.58725
427.21        10.67611
427.65        10.67874
428.10        10.60115
428.54        10.56598
428.99        10.57953
429.44        10.60871
429.88        10.62857
430.33        10.55872
430.77        10.43462
431.22         10.4473
431.66        10.58356
432.11        10.63777
432.56        10.60434
433.00        10.63343
433.45         10.6809
433.89        10.59195
434.34        10.44567
434.78        10.19008
435.23        10.40869
435.67        10.44092
436.12         10.4327
436.57        10.41146
437.01         10.3841
437.46        10.36598
437.90        10.35452
438.35         10.3176
438.79        10.26883
439.24        10.26327
439.68        10.30502
440.13         10.3731
440.57        10.44679
441.02        10.50197
441.46          10.526
441.91         10.4996
442.35        10.43221
442.80        10.43834
443.24        10.47762
443.69        10.37194
444.13        10.16293
444.58        10.07878
445.02        10.13289
445.47        10.21505
445.91        10.28844
446.36        10.34369
446.80        10.36427
447.24        10.35179
447.69        10.32806
448.13        10.32299
448.58        10.34643
449.02        10.38704
449.47        10.42612
449.91        10.43131
450.36        10.39932
450.80        10.33976
451.25        10.28076
451.69        10.25896
452.13        10.28183
452.58        10.33579
453.02        10.39119
453.47        10.40207
453.91        10.35935
454.36          10.282
454.80        10.19459
455.24        10.13466
455.69        10.11584
456.13        10.11518
456.58        10.13402
457.02        10.15833
457.46        10.18539
457.91         10.2183
458.35        10.23166
458.79        10.18561
459.24        10.08911
459.68        9.951838
460.13        9.826197
460.57        9.762766
461.01        9.779959
461.46        9.850475
461.90        9.951781
462.34        10.03345
462.79        10.07336
463.23        10.08981
463.68        10.07609
464.12        10.03021
464.56        9.958529
465.01        9.875899
465.45         9.79462
465.89         9.76075
466.34        9.777939
466.78        9.831152
467.22        9.901926
467.67        9.945543
468.11         9.95335
468.55        9.934507
468.99        9.899435
469.44        9.864109
469.88        9.837391
470.32         9.81501
470.77        9.804836
471.21        9.822634
471.65        9.867041
472.10        9.933439
472.54        10.00421
472.98        10.05533
473.42        10.07893
473.87        10.08403
474.31        10.06889
474.75        10.04267
475.20        10.01377
475.64        9.978323
476.08        9.948567
476.52        9.937219
476.97        9.947724
477.41        9.983237
477.85        10.03756
478.29        10.08358
478.74        10.12274
479.18        10.18165
479.62        10.25334
480.06        10.31125
480.50        10.35357
480.95        10.37931
481.39        10.37939
481.83        10.44248
482.27        10.41742
482.72        10.43322
483.16        10.45689
483.60        10.48348
484.04        10.50229
484.48        10.59392
484.93        10.79263
485.37        10.77202
485.81        10.81055
486.25        11.14035
486.69        10.83842
487.14        10.74531
487.58        11.43558
488.02        11.39799
488.46        11.19555
488.90        11.23712
489.34        11.03857
489.79        11.19746
490.23        11.43823
490.67        11.64647
491.11        11.75236
491.55        11.72039
491.99        11.61401
492.43        11.61881
492.88        11.75947
493.32        11.91142
493.76        12.04455
494.20         12.1818
494.64        12.31617
495.08        12.41408
495.52        12.48067
495.96        12.60942
496.41        12.77639
496.85        12.78429
497.29        12.66972
497.73          12.787
498.17        12.95338
498.61        13.08408
499.05          13.106
499.49        13.14561
499.93        13.17863
500.37        13.27323
500.82        13.41029
501.26        13.52159
501.70        13.59939
502.14        13.69183
502.58        13.79986
503.02        13.89719
503.46        13.98161
503.90        14.05955
504.34        14.12869
504.78        14.18529
505.22        14.22935
505.66         14.2615
506.10        14.28689
506.54        14.31483
506.98        14.34793
507.42        14.38445
507.86        14.42294
508.30         14.4593
508.74        14.49345
509.18        14.52994
509.62        14.56691
510.06        14.60154
510.50        14.63385
510.94        14.66118
511.38        14.69543
511.82        14.75587
512.26        14.84292
512.70        14.95024
513.14        15.04928
513.58        15.09427
514.02        15.07729
514.46        15.01279
514.90        14.93808
515.34        14.91362
515.78        14.95412
516.22        15.04146
516.66        15.14273
517.10        15.20443
517.54        15.21155
517.98        15.18059
518.42        15.13368
518.86        15.10588
519.30        15.10686
519.74        15.12364
520.18        15.14195
520.62        15.14076
521.06        15.11521
521.50        15.07527
521.93        15.03222
522.37        14.99671
522.81        14.97575
523.25        14.96375
523.69        14.95679
524.13        14.95016
524.57        14.93906
525.01        14.92135
525.45        14.89522
525.89         14.8572
526.32        14.80691
526.76          14.754
527.20        14.69275
527.64        14.61602
528.08        14.52705
528.52        14.42781
528.96        14.34657
529.40        14.32658
529.83        14.37044
530.27         14.4629
530.71        14.55424
531.15        14.56588
531.59        14.48173
532.03        14.32658
532.46        14.14875
532.90        14.03573
533.34        14.00684
533.78        14.02873
534.22        14.06737
534.66        14.08728
535.09        14.06445
535.53        13.98506
535.97        13.87693
536.41        13.81765
536.85        13.81976
537.28        13.84659
537.72        13.88581
538.16        13.92969
538.60        13.97041
539.04        14.01067
539.47        14.04862
539.91        14.08918
540.35        14.13143
540.79        14.17599
541.22        14.22106
541.66        14.27036
542.10         14.3232
542.54         14.3788
542.97        14.44343
543.41        14.53172
543.85        14.64295
544.29        14.77504
544.72        14.90694
545.16        15.01791
545.60        15.10116
546.04        15.16374
546.47         15.2326
546.91        15.34827
547.35        15.51499
547.79        15.71893
548.22        15.92142
548.66         16.0609
549.10        16.14628
549.53        16.18957
549.97        16.22887
550.41        16.28816
550.84        16.39764
551.28        16.58265
551.72        16.79791
552.15        16.98473
552.59        17.14811
553.03        17.05685
553.46        17.24496
553.90        17.29723
554.34        17.37392
554.77        17.46398
555.21        17.57319
555.65        17.69672
556.08        17.82226
556.52        17.94114
556.96        18.03963
557.39         18.1453
557.83        18.24219
558.27        18.23038
558.70        18.14097
559.14        18.13423
559.57        18.21143
560.01        18.27639
560.45        18.32225
560.88        18.39481
561.32        18.49988
561.75        18.60453
562.19        18.70487
562.63        18.79109
563.06        18.85633
563.50         18.9043
563.93         18.9297
564.37        18.97363
564.80        19.04941
565.24        19.10501
565.68        19.09543
566.11        19.36557
566.55        19.22008
566.98        19.24212
567.42        19.28019
567.85        19.39792
568.29        19.60567
568.72        19.89052
569.16        20.21177
569.60        20.40738
570.03        20.53733
570.47        20.58746
570.90        20.61567
571.34        20.65107
571.77        20.77824
572.21        20.95359
572.64        21.12841
573.08        21.26614
573.51        21.36208
573.95        21.48315
574.38        21.64738
574.82        21.79945
575.25         21.6848
575.69        21.73209
576.12        21.85538
576.56         21.8582
576.99        21.92649
577.42        21.86859
577.86         22.0016
578.29        22.23969
578.73        21.82977
579.16        21.73456
579.60        21.66872
580.03        21.68516
580.47        21.64057
580.90        21.71597
581.33        21.57565
581.77        21.92909
582.20          21.498
582.64        21.25496
583.07        21.13752
583.51        21.06973
583.94        21.17246
584.37        21.15082
584.81         20.9785
585.24        20.82836
585.68        20.76592
586.11        20.50423
586.54        20.55264
586.98        20.41841
587.41        20.25256
587.85        20.27006
588.28        20.20062
588.71        20.09997
589.15         20.1625
589.58        20.00599
590.01        20.15522
590.45        20.00698
590.88         20.0992
591.31         20.0251
591.75        19.99357
592.18        19.96565
592.61        19.87004
593.05        20.51453
593.48        20.49367
593.91        20.16801
594.35        20.33406
594.78        20.28157
595.21        20.36786
595.65        20.52544
596.08        20.80434
596.51        20.94828
596.94        20.96848
597.38        21.10313
597.81        21.38091
598.24        21.49653
598.68        21.49049
599.11        21.96048
599.54        22.42942
599.97        22.33607
600.41         22.7548
600.84        22.83737
601.27         23.2772
601.70         23.5655
602.14        23.92649
602.57        24.26753
603.00         24.6781
603.43        24.76676
603.87        25.46367
604.30        25.79517
604.73        26.12566
605.16        26.14974
605.60        26.66776
606.03        26.96858
606.46        27.26399
606.89        27.47631
607.32        28.18224
607.76        28.36621
608.19        28.80393
608.62         29.0319
609.05        29.33376
609.48        29.71633
609.92        30.51367
610.35        30.87843
610.78        30.81852
611.21        31.00746
611.64        31.31528
612.07        31.71683
612.50        31.97261
612.94        32.24592
613.37        32.46949
613.80        32.70211
614.23        32.67879
614.66        32.97794
615.09        33.48272
615.52        33.83375
615.96        33.99262
616.39        34.26974
616.82        34.69336
617.25        34.72711
617.68        35.00089
618.11        35.26009
618.54        35.64318
618.97        35.88216
619.40        35.99134
619.84        36.09465
620.27        36.29038
620.70        36.44799
621.13        36.58809
621.56        36.54111
621.99        36.35612
622.42        36.47563
622.85        36.92713
623.28        36.64174
623.71        36.94341
624.14        36.95994
624.57        37.23944
625.00        37.05146
625.43        37.14033
625.86        37.07817
626.29         37.1143
626.72        36.65408
627.15        36.77426
627.58        36.60586
628.01        36.44047
628.44        36.23873
628.87        36.00659
629.30        35.72958
629.73        35.42827
630.16        35.23748
630.59        35.02167
631.02        34.88947
631.45        34.76825
631.88        34.51868
632.31        34.09974
632.74        33.89647
633.17        33.30398
633.60        32.87688
634.03        32.44683
634.46        32.02125
634.89        31.58915
635.32        31.15098
635.75        30.71586
636.18        30.25357
636.61        29.79644
637.04        29.40642
637.47         29.0867
637.89        28.81126
638.32        28.53642
638.75         28.2226
639.18        27.86178
639.61         27.4731
640.04        27.08814
640.47        26.75178
640.90        26.47691
641.33         26.2532
641.76        26.06808
642.18        25.90486
642.61        25.75042
643.04        25.61304
643.47        25.50347
643.90        25.43656
644.33        25.41309
644.76        25.42795
645.18        25.45808
645.61        25.46225
646.04        25.43829
646.47        25.40192
646.90        25.39693
647.33         25.4867
647.75        25.67821
648.18        25.98216
648.61        26.36469
649.04        26.67662
649.47        26.87667
649.89        27.38635
650.32         27.5138
650.75        27.91467
651.18        28.37923
651.61        28.83695
652.03        29.25582
652.46         29.7588
652.89        30.33042
653.32        30.56195
653.74        30.58736
654.17        31.25606
654.60        31.99553
655.03        32.43427
655.46        32.48919
655.88        32.78932
656.31        34.75959
656.74        36.15083
657.16        35.95723
657.59        35.82984
658.02         35.5428
658.45        36.06824
658.87        36.11422
659.30        36.56816
659.73        36.80512
660.15         37.2105
660.58        37.39084
661.01        37.69935
661.44        38.08134
661.86         38.3235
662.29        38.42299
662.72         38.9721
663.14        39.20016
663.57        39.41216
664.00          39.453
664.42        39.67548
664.85        40.10965
665.27        40.59459
665.70          41.029
666.13        41.34407
666.55         41.5146
666.98        41.52649
667.41        41.43818
667.83        41.61325
668.26        41.65044
668.69        41.86615
669.11        42.12075
669.54        42.38974
669.96        42.65862
670.39        42.95982
670.82        43.25401
671.24        43.41653
671.67        43.46345
672.09        43.47644
672.52        43.52224
672.94        43.69041
673.37        43.95387
673.80         44.1014
674.22         44.1439
674.65        44.28216
675.07        44.51459
675.50         44.6444
675.92        44.69109
676.35        44.80135
676.77        44.98447
677.20        45.17648
677.62        45.36004
678.05        45.51488
678.47        45.63003
678.90        45.76577
679.32        45.84596
679.75        45.96188
680.17         46.0911
680.60        46.23228
681.02        46.38051
681.45        46.52592
681.87        46.67422
682.30        46.81835
682.72        46.96601
683.15        47.10456
683.57        47.23858
684.00        47.34638
684.42        47.44247
684.85        47.56781
685.27        47.72307
685.70         47.9019
686.12        48.06548
686.54        48.18866
686.97        48.26994
687.39        48.26359
687.82        48.21165
688.24        48.36261
688.66        48.64943
689.09        48.65535
689.51        48.44375
689.94        48.46041
690.36        48.73906
690.78        48.98956
691.21        49.17902
691.63        49.42937
692.06        49.69156
692.48        49.79866
692.90         49.7728
693.33        49.79405
693.75        49.88291
694.17         49.9253
694.60        49.94699
695.02        50.06132
695.44        50.25947
695.87         50.4537
696.29         50.6147
696.71         50.6967
697.14         50.7072
697.56        50.68267
697.98        50.68383
698.41        50.76917
698.83        50.94411
699.25        51.23259
699.68        51.53846
700.10        51.73352
700.52        51.76875
700.94        51.68872
701.37        51.59272
701.79        51.64952
702.21        51.88941
702.64        52.24924
703.06        52.63336
703.48        52.87025
703.90        52.91633
704.33        52.83141
704.75        52.69332
705.17        52.61744
705.59        52.64641
706.01        52.74555
706.44        52.89534
706.86        53.07038
707.28        53.24192
707.70        53.44052
708.12        53.65497
708.55        53.80135
708.97        53.89827
709.39        54.05954
709.81        54.25748
710.23        54.35366
710.66        54.33451
711.08        54.28923
711.50        54.23528
711.92        54.18346
712.34        54.15421
712.76        54.16102
713.19        54.19555
713.61        54.27115
714.03        54.37486
714.45        54.50311
714.87        54.67478
715.29        54.92179
715.71        55.23391
716.13        55.58678
716.56        55.91312
716.98        56.11489
717.40        56.12489
717.82        56.09209
718.24        56.08601
718.66        55.60291
719.08        55.66135
719.50        55.49283
719.92        55.41458
720.34        55.42091
720.76        55.52644
721.19        55.72866
721.61        56.01339
722.03        56.30314
722.45        56.55931
722.87         56.7981
723.29        56.96616
723.71        56.97471
724.13         56.8229
724.55        56.55181
724.97        56.26504
725.39        56.10797
725.81        56.12114
726.23        56.30094
726.65        56.60437
727.07        56.77503
727.49        57.05903
727.91        57.25175
728.33        57.42885
728.75        57.56993
729.17         57.6741
729.59        57.72069
730.01        57.72109
730.43        57.75239
730.85        57.83073
731.27        57.87402
731.69        57.83783
732.10        58.00928
732.52          57.805
732.94        57.72048
733.36        57.64098
733.78        57.55802
734.20        57.48084
734.62         57.6232
735.04        58.02071
735.46        57.66736
735.88        58.26056
736.30        58.26342
736.72        58.47985
737.13        58.67421
737.55        58.87059
737.97        59.30339
738.39        59.76963
738.81        59.40679
739.23         58.4505
739.65        58.37313
740.06        59.09793
740.48        59.37454
740.90        59.15315
741.32        59.18563
741.74        59.49849
742.16        59.73187
742.57        59.86135
742.99        59.96647
743.41        60.03552
743.83        60.03642
744.25        59.97496
744.67        59.84404
745.08        59.71008
745.50        59.66969
745.92        59.74774
746.34        59.91034
746.75        60.09348
747.17        60.16401
747.59        60.10352
748.01        60.00355
748.42         59.9071
748.84        59.81179
749.26        59.79581
749.68         59.9502
750.09        60.23115
750.51        60.59901
750.93        60.90176
751.35        60.78377
751.76        60.32349
752.18        60.03679
752.60        59.96943
753.01        59.84422
753.43        59.65991
753.85         59.5808
754.27        59.62452
754.68        59.76589
755.10        59.96569
755.52         60.1484
755.93        60.26556
756.35        60.32528
756.77        60.41525
757.18        60.45064
757.60        60.45066
758.02        60.89828
758.43        61.60681
758.85        60.73863
759.26         60.5848
759.68        59.83978
760.10        60.24603
760.51        60.91213
760.93        61.18762
761.34        61.33233
761.76        61.18066
762.18        61.10831
762.59        61.20682
763.01         61.4103
763.42        61.69869
763.84        61.82389
764.26        61.77706
764.67        61.66069
765.09        61.56782
765.50        61.51144
765.92        61.51097
766.33        61.47336
766.75        61.34103
767.16         61.1913
767.58        61.05495
768.00        61.04099
768.41        61.22454
768.83        61.50621
769.24        62.11571
769.66         62.1531
770.07        61.79177
770.49        61.38079
770.90        61.15072
771.32        61.56381
771.73        62.41775
772.15        62.75821
772.56        62.51559
772.97        62.14297
773.39        61.83919
773.80        61.88289
774.22        62.22727
774.63        62.45661
775.05        62.45287
775.46        62.48939
775.88        62.52134
776.29        62.37312
776.70         62.1235
777.12        62.04432
777.53         62.1765
777.95        62.38775
778.36        62.62943
778.77        62.75325
779.19        62.73692
779.60        62.76409
780.02        62.77716
780.43        62.54561
780.84        62.23838
781.26        62.01993
781.67        62.02314
782.09        62.84972
782.50        64.12882
782.91        63.88755
783.33        62.96816
783.74        62.53123
784.15        62.88195
784.57        62.94724
784.98        62.75583
785.39        62.80982
785.81        63.10353
786.22        63.57466
786.63        64.06812
787.04        64.16815
787.46        63.91616
787.87        63.74802
788.28         63.7485
788.70        63.67891
789.11        63.54494
789.52        63.63599
789.93        63.86786
790.35        63.78727
790.76        63.46396
791.17        63.42159
791.58        63.68015
792.00        63.78381
792.41         63.7277
792.82         63.9204
793.23        64.26222
793.65        64.09255
794.06        63.56468
794.47         63.5899
794.88        64.10564
795.29        64.29355
795.71        64.03797
796.12        64.05524
796.53        64.31353
796.94        64.10693
797.35        63.61994
797.76        63.90927
798.18        64.79379
798.59        65.21712
799.00        65.09835
799.41         64.4649
799.82        64.53758
800.23        64.42727
800.64        64.49937
801.06        64.69207
801.47        64.95165
801.88        65.08089
802.29        65.00965
802.70        64.79443
803.11        64.49367
803.52        64.21069
803.93        64.01727
804.34        63.90818
804.75         63.8756
805.17        64.01291
805.58        64.36956
805.99        64.52934
806.40        64.56446
806.81        65.49266
807.22        66.87085
807.63        66.60673
808.04         64.9773
808.45        64.26157
808.86        64.64634
809.27        64.90083
809.68        64.85493
810.09        64.81492
810.50        64.74265
810.91        64.56477
811.32        64.42174
811.73        64.53041
812.14        64.92085
812.55        65.52886
812.96        66.14918
813.37        66.39494
813.78        66.16344
814.19        65.60069
814.60        64.92846
815.01        64.44678
815.42         64.2319
815.83        64.19839
816.24        64.29743
816.65        64.43077
817.05        64.55533
817.46        64.68934
817.87        64.82319
818.28        64.88712
818.69        64.87434
819.10        64.77324
819.51        64.67503
819.92         64.7588
820.33        65.05383
820.74        65.49873
821.14        65.94255
821.55         66.1378
821.96        66.03058
822.37        65.69799
822.78        65.27494
823.19        64.99313
823.60        64.93091
824.00        65.04663
824.41         65.2228
824.82        65.35554
825.23        65.39074
825.64        65.36826
826.04        65.31938
826.45        65.24948
826.86        65.18643
827.27        65.13303
827.68        65.07642
828.08        65.02914
828.49        64.94788
828.90         64.8427
829.31        64.79359
829.72        64.92854
830.12        65.28075
830.53        65.76094
830.94        66.18731
831.35        66.20648
831.75        65.76564
832.16        64.96487
832.57        64.10597
832.97        63.64629
833.38         63.7034
833.79        64.12432
834.20        64.72697
834.60        65.21602
835.01        65.49657
835.42        65.69588
835.82        65.83456
836.23         65.8718
836.64        65.84902
837.04        65.71487
837.45        65.63199
837.86        65.94379
838.26        66.71219
838.67        67.80533
839.08        68.83617
839.48        69.06705
839.89        68.33273
840.29        66.91405
840.70        65.42596
841.11        64.57567
841.51        64.54129
841.92        65.09662
842.33        65.98354
842.73        66.72966
843.14        67.05022
843.54        67.13554
843.95        67.08918
844.35        67.13191
844.76        67.30595
845.17        67.50308
845.57        67.66003
845.98        67.67339
846.38        67.53583
846.79        67.29356
847.19        66.99983
847.60        66.70163
848.00        66.44154
848.41        66.19731
848.81        66.00628
849.22        65.84838
849.62        65.76485
850.03        65.75484
850.43        65.82928
850.84        65.93509
851.24        66.09391
851.65         66.2393
852.05        66.45109
852.46        66.76284
852.86         67.1481
853.27        67.56094
853.67        67.81741
854.07         67.7799
854.48        67.41498
854.88        66.81007
855.29        66.06006
855.69         65.4734
856.10        65.10625
856.50        64.96854
856.90        64.99059
857.31         65.0552
857.71        65.16047
858.12        65.27769
858.52        65.42185
858.92        65.50565
859.33        65.49123
859.73        65.42236
860.13        65.27815
860.54        65.06733
860.94        64.84803
861.34        64.60892
861.75        64.41312
862.15        64.39967
862.55        64.56808
862.96        64.85059
863.36        65.17972
863.76        65.35191
864.17          65.302
864.57        65.12524
864.97        64.84208
865.38        64.49929
865.78        64.16307
866.18        63.81313
866.58        63.57016
866.99        63.63908
867.39        64.06514
867.79        64.77076
868.19        65.54664
868.60         66.0525
869.00        66.23086
869.40        66.12696
869.80        65.88211
870.21        65.78189
870.61        65.96938
871.01        66.30443
871.41        66.58968
871.81         66.5481
872.22        66.13141
872.62        65.43542
873.02        64.69326
873.42        64.28893
873.82        64.33096
874.22        64.70518
874.63        65.15974
875.03        65.31284
875.43        65.05561
875.83        64.51203
876.23        63.90572
876.63        63.57931
877.03        63.61802
877.44        63.88399
877.84        64.21302
878.24        64.35507
878.64        64.19088
879.04        63.67113
879.44        63.04144
879.84        62.77924
880.24        62.94183
880.64        63.34461
881.04        63.70473
881.44         63.5931
881.84        62.93685
882.24        61.92369
882.65        60.90841
883.05        60.42599
883.45        60.61526
883.85         61.3076
884.25        62.27198
884.65        63.10581
885.05        63.64112
885.45        63.96913
885.85        64.13941
886.25        64.24188
886.65        64.31718
887.05        64.31274
887.45        64.23936
887.85        64.14193
888.25        64.03635
888.65        63.94004
889.04        63.84634
889.44        63.75232
889.84        63.64537
890.24        63.53302
890.64         63.4251
891.04        63.33634
891.44        63.27645
891.84        63.25349
892.24        63.25173
892.64        63.24229
893.04        63.23131
893.44        63.23602
893.83        63.31994
894.23        63.53558
894.63        63.89558
895.03        64.33731
895.43        64.79388
895.83        65.16486
896.23        65.39639
896.63        65.50243
897.02        65.42981
897.42        65.13085
897.82        64.63375
898.22        64.00266
898.62        63.37948
899.01        62.96054
899.41        62.81176
899.81        62.87519
900.21        63.08479
900.61        63.32092
901.00        63.52295
901.40        63.69836
901.80        63.82604
902.20         63.8736
902.59         63.8512
902.99         63.7649
903.39        63.62486
903.79        63.45641
904.18        63.27221
904.58        63.07048
904.98        62.95614
905.38        63.08789
905.77        63.48135
906.17        64.11829
906.57        64.74543
906.96        64.94196
907.36        64.60778
907.76        63.86306
908.15        63.11491
908.55        62.99692
908.95        63.64152
909.34         64.8594
909.74        66.13149
910.14        66.67944
910.53        66.27981
910.93        65.21799
911.33        63.90129
911.72        62.94447
912.12        62.59344
912.52        62.66198
912.91         62.9556
913.31        63.20436
913.70        63.31384
914.10        63.33155
914.49          63.413
914.89        63.71708
915.29        64.28026
915.68        65.03521
916.08        65.64145
916.47        65.62888
916.87        64.95213
917.26        63.77739
917.66        62.63831
918.05        62.18446
918.45         62.5457
918.84        63.56607
919.24        64.78757
919.64        65.52013
920.03        65.55005
920.42        65.04145
920.82        64.38042
921.21        64.11777
921.61        64.37749
922.00        65.01566
922.40        65.70171
922.79         66.0062
923.19        65.77898
923.58        65.22449
923.98         64.6124
924.37        64.25814
924.77        64.25757
925.16        64.45078
925.55        64.74499
925.95        64.97247
926.34        65.06667
926.74        65.06473
927.13        64.90265
927.52        64.40632
927.92        63.64462
928.31        62.69632
928.70        61.81013
929.10        61.33499
929.49        61.33777
929.89        61.66991
930.28        62.30127
930.67        63.05197
931.07        63.77514
931.46        64.55606
931.85        65.11909
932.24          65.081
932.64        64.44913
933.03        63.31771
933.42        62.17895
933.82        61.75598
934.21        62.19798
934.60        63.35513
934.99        64.78167
935.39        65.64714
935.78        65.73489
936.17        65.19261
936.56        64.42187
936.96        64.05602
937.35         64.2517
937.74        64.79941
938.13        65.33504
938.53        65.32451
938.92        64.67211
939.31         63.6209
939.70        62.53748
940.09        61.91637
940.49        61.84877
940.88        62.20972
941.27        62.80524
941.66        63.27497
942.05        63.48586
942.44        63.55965
942.84        63.58356
943.23        63.67926
943.62        63.89054
944.01        64.11792
944.40        64.36517
944.79         64.6777
945.18          65.019
945.57        65.35628
945.97        65.51003
946.36        65.28055
946.75        64.61562
947.14        63.67415
947.53        62.65309
947.92        61.80618
948.31        61.23323
948.70        60.89407
949.09        60.84026
949.48        61.14662
949.87        61.77957
950.26        62.66958
950.65        63.64204
951.04        64.40962
951.43        64.85021
951.82        64.99503
952.21        64.84285
952.60        64.43282
952.99        63.85224
953.38        63.15568
953.77        62.50512
954.16        62.14849
954.55        62.13425
954.94        62.37412
955.33        62.81179
955.72         63.3127
956.11        63.77728
956.50        64.23865
956.89        64.45647
957.28        64.05453
957.66        63.01759
958.05        61.53674
958.44        60.09812
958.83        59.40161
959.22        59.57024
959.61        60.41524
960.00        61.54725
960.39        62.21574
960.78        62.15695
961.16        61.58038
961.55        60.81981
961.94        60.29291
962.33        60.14028
962.72        60.26812
963.11        60.54303
963.49        60.76659
963.88        60.78931
964.27        60.65578
964.66        60.62794
965.04        61.11861
965.43        62.12741
965.82        63.59211
966.21        64.89168
966.60        64.86607
966.98        63.27449
967.37        60.65164
967.76        58.04099
968.15         56.7403
968.53        56.97602
968.92        58.43536
969.31        60.43465
969.69        61.57343
970.08        61.29474
970.47        60.04954
970.86        58.67241
971.24        58.35147
971.63        59.33736
972.02        61.26756
972.40         63.4619
972.79        64.35118
973.17        63.52158
973.56        61.56138
973.95         59.3611
974.33        58.03586
974.72        57.83559
975.11        58.40464
975.49        59.39817
975.88        60.10527
976.26        60.28888
976.65        60.14693
977.04        59.86286
977.42        59.66467
977.81        59.60739
978.19        59.56838
978.58        59.64313
978.96        59.97869
979.35        60.55715
979.74        61.36945
980.12        62.27052
980.51        62.75667
980.89        62.80289
981.28        62.48416
981.66        62.05167
982.05        61.85059
982.43        61.97854
982.82        62.32503
983.20        62.84401
983.59        63.34606
983.97        63.80955
984.35        64.24472
984.74        64.50569
985.12        64.59087
985.51        64.43036
985.89        64.05274
986.28        63.61083
986.66        63.25257
987.04        63.08662
987.43        63.06286
987.81        63.13152
988.20        63.09072
988.58        62.91499
988.96        62.57613
989.35        62.22668
989.73        62.08899
990.12        62.16747
990.50        62.43928
990.88        62.56153
991.27        61.97292
991.65        60.63661
992.03        58.82292
992.42        57.16572
992.80        56.48657
993.18        56.96162
993.56        58.39846
993.95         60.2346
994.33         61.5222
994.71        61.78405
995.10        61.34177
995.48         60.6715
995.86        60.61321
996.24        61.36742
996.63        62.52617
997.01         63.8698
997.39        64.64186
997.77         64.5201
998.15           63.87
998.54        62.80703
998.92        61.33701
999.30        59.69387
999.68        57.94481
1000.06        56.65142
1000.45        56.57255
1000.83        57.91208
1001.21        60.56034
1001.59        63.90129
1001.97        66.29659
1002.35         67.0124
1002.73        66.43105
1003.12        65.35783
1003.50         64.8091
1003.88        65.15142
1004.26        65.94618
1004.64        67.01367
1005.02        67.96698
1005.40        68.53482
1005.78        68.99574
1006.16         68.9347
1006.54        67.63721
1006.92        65.22748
1007.30        62.07092
1007.69        59.27726
1008.07         58.2401
1008.45        59.37852
1008.83        62.35985
1009.21        66.37325
1009.59        69.27335
1009.97        69.87769
1010.35        68.68633
1010.73        66.28544
1011.11        63.61549
1011.49         61.1965
1011.86        58.91892
1012.24        57.09605
1012.62        56.09014
1013.00        55.92412
1013.38        56.60074
1013.76        57.98447
1014.14        59.51523
1014.52        60.75181
1014.90        61.58235
1015.28        61.99973
1015.66        62.16854
1016.04        62.16829
1016.41         61.9921
1016.79        61.45267
1017.17         60.3665
1017.55        58.85642
1017.93        57.12722
1018.31        55.80059
1018.69        55.67937
1019.06        56.93584
1019.44        59.53607
1019.82        62.76641
1020.20        64.77381
1020.58        64.69954
1020.95        62.88189
1021.33        60.72183
1021.71        59.84493
1022.09        60.54455
1022.46        62.65594
1022.84        65.02339
1023.22        65.00229
1023.60        61.84004
1023.97        56.56443
1024.35        51.89008
1024.73        50.70738
