SpectraSmart Spectrum 2.9.0.0
--------- Device Information -----------
Spectrum Name :  反射率_0
Saving Time :  2024/04/20 00:50:24
Spectro-Module Model Name : SE2030-DUVN
Spectro-Module Serial Number : OS361AC55029948
Wavelength Start : 200
Wavelength End : 1025
Wavelength Unit : Wavelength(nm)
Spectrum Unit : Reflectance(%)
-----------Spectrum Setting ------------
Integration Time : 30ms
Average : 10
Boxcar : 0
Background removal :  enabled
linearity correction :  enabled
SC :  disabled
Intensity correction :  disabled
DWT denoise :  enabled
savitzky-golay :  disabled
FFT :  disabled
Running average :  disabled
Kalman :  disabled
High pass :  disabled
---------------BEGIN--------------------
Wavelength(nm)             Reflectance(%)
200.29               0
200.75        61.02634
201.21        63.29083
201.67        68.04276
202.13        75.16952
202.58        84.27679
203.04         95.4762
203.50        105.4584
203.96        106.7422
204.42        99.69884
204.88        89.53442
205.34        80.88255
205.80        75.87862
206.26        73.61544
206.72        72.91172
207.18        73.98975
207.64        76.78403
208.10        80.26514
208.55        84.43555
209.01        86.47998
209.47        85.07486
209.93        81.08269
210.39         75.2788
210.85        70.07301
211.31        68.24158
211.77        70.09557
212.23        75.51865
212.69        83.03819
213.14        86.15248
213.60        82.09082
214.06        75.61894
214.52        70.64606
214.98        69.34779
215.44        71.22935
215.90        75.11932
216.36        80.66096
216.81        86.29103
217.27        90.42276
217.73        93.61367
218.19        95.05016
218.65        93.65469
219.11        89.61738
219.57        82.83127
220.02        75.57419
220.48        74.02812
220.94        80.02811
221.40        92.13691
221.86         106.052
222.32        115.1604
222.77        117.7592
223.23        116.1755
223.69         112.581
224.15        110.2312
224.61        110.0801
225.06        110.8307
225.52         112.459
225.98        115.0048
226.44         118.398
226.90        122.7204
227.36        127.3446
227.81        130.5276
228.27        131.8738
228.73        131.7396
229.19        130.6372
229.65        129.2681
230.10        127.8559
230.56        126.6495
231.02        125.7561
231.48        125.5278
231.93        125.8059
232.39        126.5042
232.85        127.3022
233.31        127.7916
233.77        127.8243
234.22        127.5846
234.68        126.8191
235.14        125.1023
235.60        122.5477
236.05        119.3594
236.51        116.3772
236.97        114.8202
237.43        114.9381
237.88         116.913
238.34        119.6382
238.80        120.9055
239.26         119.156
239.71         114.983
240.17        109.3578
240.63        104.3147
241.08        100.4767
241.54        97.26735
242.00        94.42673
242.46        91.17133
242.91        86.93587
243.37        81.00021
243.83         73.3381
244.28         67.2157
244.74         66.4794
245.20        71.38028
245.66        77.19412
246.11         79.1093
246.57        76.12128
247.03        68.30984
247.48        57.16608
247.94        53.08549
248.40        57.96169
248.85        64.78169
249.31        69.69146
249.77        71.62397
250.22        71.27358
250.68        69.46691
251.14        67.03527
251.59        65.83206
252.05        67.14653
252.51        70.84471
252.96        75.52242
253.42        78.68421
253.88        79.77682
254.33        79.67767
254.79        80.79158
255.25        85.36948
255.70        92.90273
256.16        101.7106
256.62        109.8971
257.07         115.411
257.53        118.4184
257.99        119.7591
258.44        119.1869
258.90        117.5272
259.35        114.9895
259.81        112.9573
260.27        111.6089
260.72        111.1802
261.18        111.9385
261.63        112.9043
262.09        114.2499
262.55        115.3413
263.00        115.7843
263.46        116.0554
263.91         115.571
264.37         114.346
264.83        112.3816
265.28        109.7846
265.74          107.45
266.19        105.8677
266.65        105.3391
267.11        105.4603
267.56        105.7854
268.02        105.7845
268.47        105.2399
268.93        104.3414
269.38        103.2199
269.84        102.2905
270.30        101.6276
270.75        101.1029
271.21        100.5121
271.66        99.48351
272.12        97.99701
272.57        96.15655
273.03        94.34481
273.48        92.99982
273.94        92.29913
274.39        91.98777
274.85        91.79678
275.31         91.1749
275.76        89.96124
276.22        88.39114
276.67        86.65807
277.13        85.29781
277.58        84.29416
278.04         83.5962
278.49        82.82116
278.95        81.65424
279.40        79.96751
279.86         78.0875
280.31        76.21674
280.77         74.9164
281.22        74.13202
281.68        73.75513
282.13        73.45954
282.59        72.92526
283.04        72.01539
283.50        70.92567
283.95        69.73335
284.41        68.68618
284.86        67.77554
285.32        66.98577
285.77        66.23554
286.22        65.53642
286.68        64.90208
287.13        64.29667
287.59        63.73705
288.04        63.11246
288.50        62.44941
288.95        61.70238
289.41        60.95559
289.86        60.23388
290.32        59.61663
290.77        59.07316
291.22         58.6004
291.68        58.15463
292.13        57.71477
292.59        57.33559
293.04        57.07266
293.50        57.06174
293.95        57.29288
294.40        57.71336
294.86        58.21767
295.31        58.64343
295.77        58.95023
296.22         59.1822
296.68        59.38683
297.13        59.62977
297.58        59.94526
298.04        60.31725
298.49        60.74848
298.95        61.30141
299.40        61.94102
299.85        62.64079
300.31        63.34137
300.76         63.9146
301.21        64.34381
301.67        64.70954
302.12        64.97952
302.58         65.2258
303.03        65.43488
303.48        65.62905
303.94        65.92342
304.39         66.4272
304.84        67.15481
305.30        68.04266
305.75        68.88992
306.20        69.43925
306.66        69.66164
307.11        69.60898
307.57        69.43867
308.02        69.27635
308.47        69.20788
308.93        69.18563
309.38        69.19643
309.83        69.30393
310.29        69.49593
310.74        69.75843
311.19        69.95734
311.65        69.86369
312.10         69.4368
312.55        68.75459
313.00        68.03591
313.46        67.62069
313.91        67.55948
314.36        67.76421
314.82        68.02676
315.27           68.04
315.72        67.70569
316.18        67.14772
316.63        66.49963
317.08         65.9901
317.53        65.67886
317.99        65.48206
318.44        65.32864
318.89        65.09196
319.35        64.73449
319.80        64.30719
320.25        63.86115
320.70          63.474
321.16        63.15687
321.61         62.8881
322.06        62.61292
322.51        62.25632
322.97        61.79063
323.42        61.25676
323.87        60.69717
324.32        60.18939
324.78        59.74849
325.23        59.38266
325.68        59.04307
326.13        58.66037
326.59        58.21806
327.04        57.77029
327.49        57.36676
327.94        57.09992
328.39         56.9788
328.85          56.929
329.30        56.93797
329.75        56.89014
330.20        56.74391
330.66        56.51119
331.11        56.20879
331.56        55.79046
332.01        55.26871
332.46        54.65444
332.92        54.04054
333.37        53.63019
333.82        53.46774
334.27        53.53199
334.72        53.70335
335.17        53.76182
335.63         53.6243
336.08        53.36051
336.53        53.08198
336.98        53.01074
337.43        53.19025
337.88         53.5405
338.34        53.86546
338.79        53.90763
339.24         53.5875
339.69        52.99586
340.14        52.34106
340.59        51.97017
341.05         51.9689
341.50        52.23856
341.95        52.59408
342.40        52.74906
342.85        52.63177
343.30        52.34411
343.75        51.99768
344.20        51.77008
344.66        51.71209
345.11        51.73633
345.56        51.80842
346.01        51.87711
346.46        51.91119
346.91        51.94239
347.36        51.91642
347.81        51.73853
348.26        51.41446
348.72        50.99597
349.17        50.58273
349.62        50.41054
350.07        50.52436
350.52        50.83466
350.97        51.21048
351.42        51.45676
351.87        51.50605
352.32        51.40309
352.77        51.16655
353.22        50.83077
353.67        50.43412
354.13        50.00255
354.58        49.55057
355.03        49.15283
355.48        48.83865
355.93        48.60521
356.38        48.47518
356.83        48.47098
357.28        48.57098
357.73         48.7443
358.18        48.89838
358.63        48.88732
359.08         48.6739
359.53        48.29997
359.98        47.83437
360.43        47.38551
360.88         46.9934
361.33        46.63654
361.78        46.31831
362.23         46.0443
362.68        45.80952
363.13        45.61275
363.58        45.42971
364.03        45.21408
364.48        44.94423
364.93        44.62015
365.38        44.23437
365.83        43.78965
366.28        43.30096
366.73        42.77826
367.18        42.25999
367.63        41.80064
368.08        41.41747
368.53        41.10984
368.98        40.84839
369.43        40.57564
369.88        40.27933
370.33        39.97709
370.78         39.6996
371.23         39.5033
371.68        39.39943
372.13         39.3548
372.58        39.34405
373.03        39.33083
373.48        39.28774
373.93        39.21369
374.38          39.079
374.83        38.83881
375.28         38.4924
375.72        38.05152
376.17        37.58569
376.62         37.1698
377.07        36.84043
377.52        36.58597
377.97        36.40462
378.42        36.28569
378.87        36.21204
379.32        36.17817
379.77        36.15181
380.22        36.08132
380.67        35.95393
381.11        35.78592
381.56        35.57609
382.01        35.35695
382.46        35.14341
382.91        34.92287
383.36        34.72539
383.81        34.59231
384.26        34.52516
384.71        34.52367
385.15        34.50828
385.60        34.36954
386.05        34.08908
386.50        33.70017
386.95        33.32502
387.40        33.15956
387.85        33.23208
388.29        33.45874
388.74        33.70515
389.19        33.74352
389.64        33.53125
390.09        33.13438
390.54        32.68126
390.98        32.36848
391.43        32.27441
391.88        32.31873
392.33        32.39289
392.78        32.34154
393.23        32.14133
393.67        31.83405
394.12        31.55533
394.57        31.38494
395.02        31.34455
395.47        31.39906
395.91        31.49416
396.36        31.50577
396.81        31.41714
397.26        31.25658
397.71        31.10405
398.15        31.05539
398.60        31.15678
399.05        31.34717
399.50        31.52391
399.95        31.54216
400.39         31.3759
400.84        31.06182
401.29        30.71009
401.74        30.52411
402.18        30.56701
402.63        30.77172
403.08        31.00069
403.53        31.02905
403.97         30.8116
404.42        30.43746
404.87        30.04971
405.32         29.8822
405.76         29.9832
406.21         30.2674
406.66        30.60201
407.11        30.78261
407.55        30.75567
408.00        30.59208
408.45        30.36029
408.90        30.10319
409.34        29.89762
409.79         29.8712
410.24        29.95498
410.68        29.91562
411.13        29.74211
411.58        29.56279
412.03        29.42257
412.47        29.35377
412.92        29.36761
413.37        29.44208
413.81         29.5655
414.26        29.74101
414.71        29.94692
415.15        30.18768
415.60        30.37905
416.05        30.42259
416.49        30.29702
416.94        30.02969
417.39        29.71911
417.83        29.52596
418.28        29.49772
418.73         29.5872
419.17        29.70615
419.62        29.70742
420.07        29.56377
420.51        29.32956
420.96        29.09192
421.41        28.95377
421.85        28.93307
422.30        29.00793
422.74        29.12429
423.19        29.24961
423.64        29.35091
424.08        29.44921
424.53        29.51132
424.98        29.51265
425.42        29.45444
425.87         29.3825
426.31        29.29802
426.76        29.11952
427.21         28.8883
427.65        28.80883
428.10        28.89297
428.54        28.93829
428.99        28.93854
429.44        29.10408
429.88         29.3113
430.33        29.18628
430.77        28.79987
431.22        28.59623
431.66        28.61653
432.11        28.72559
432.56        28.87048
433.00        29.03946
433.45        29.09905
433.89        28.95718
434.34        28.70956
434.78        28.56115
435.23        28.49384
435.67        28.82391
436.12         28.3992
436.57        28.26202
437.01        28.14173
437.46        28.10817
437.90        28.18059
438.35        28.34571
438.79        28.50963
439.24         28.5652
439.68          28.486
440.13        28.15257
440.57        27.75129
441.02        27.88147
441.46        28.35847
441.91        28.61147
442.35        27.87606
442.80        27.69411
443.24        27.78286
443.69        27.71938
444.13        27.50171
444.58        27.35424
445.02        27.30788
445.47        27.37214
445.91        27.48712
446.36        27.49247
446.80        27.36047
447.24        27.17513
447.69        27.00198
448.13        26.88671
448.58        26.85593
449.02        26.88398
449.47        26.93002
449.91        26.91944
450.36        26.84304
450.80        26.72295
451.25        26.60431
451.69         26.5299
452.13        26.52005
452.58        26.55109
453.02         26.6057
453.47        26.66839
453.91        26.72734
454.36        26.78296
454.80        26.81929
455.24          26.804
455.69        26.74435
456.13        26.62707
456.58        26.50053
457.02         26.4241
457.46        26.40643
457.91        26.36954
458.35        26.31476
458.79        26.31745
459.24        26.36602
459.68        26.44825
460.13        26.59078
460.57        26.58624
461.01        26.39511
461.46         26.7663
461.90        26.70445
462.34        26.32929
462.79        26.53792
463.23        26.41481
463.68        26.34167
464.12         26.2467
464.56        26.33644
465.01        26.44557
465.45        26.53603
465.89        26.57848
466.34         26.5724
466.78        26.43507
467.22        26.24837
467.67        26.33341
468.11        26.62888
468.55        26.61476
468.99        26.32119
469.44        26.22632
469.88        26.34778
470.32        26.41315
470.77        26.39288
471.21         26.3718
471.65        26.34875
472.10        26.30141
472.54        26.24732
472.98        26.26338
473.42        26.35286
473.87         26.4183
474.31        26.44852
474.75        26.59182
475.20        26.78817
475.64        26.75124
476.08        26.54882
476.52        26.52101
476.97        26.68521
477.41        26.87729
477.85        27.03348
478.29        27.13092
478.74        27.15431
479.18         27.0659
479.62        26.95531
480.06        26.96817
480.50        27.09861
480.95        27.18931
481.39        27.20263
481.83        27.20482
482.27        27.19001
482.72        27.13369
483.16        27.08713
483.60        27.08951
484.04        27.14971
484.48        27.42066
484.93        27.86033
485.37        27.78936
485.81        27.75636
486.25        28.10088
486.69        29.84592
487.14        29.35693
487.58        28.27725
488.02        28.88732
488.46        28.46806
488.90        28.68538
489.34        28.46995
489.79         28.5969
490.23        28.94785
490.67        29.05121
491.11        28.93398
491.55        28.81753
491.99        28.76793
492.43        28.77285
492.88        28.86242
493.32        29.05898
493.76         29.3159
494.20        29.53872
494.64        29.70591
495.08        29.84115
495.52        29.96541
495.96        30.12656
496.41        30.33608
496.85        30.53693
497.29        30.71642
497.73        30.94986
498.17        31.20581
498.61        31.30216
499.05        31.27652
499.49        31.39274
499.93        31.67673
500.37        31.91501
500.82        32.09673
501.26        32.43298
501.70        32.83564
502.14        32.88173
502.58         32.6384
503.02         32.5819
503.46        32.74846
503.90        32.88912
504.34        32.95302
504.78        32.96989
505.22         32.9305
505.66        32.84066
506.10        32.75154
506.54        32.73874
506.98        32.82305
507.42        32.98684
507.86        33.19051
508.30        33.36716
508.74        33.49259
509.18        33.57712
509.62        33.64702
510.06        33.74549
510.50        33.88108
510.94        34.04013
511.38        34.17681
511.82        34.22002
512.26        34.15996
512.70        34.02381
513.14        33.88552
513.58        33.85406
514.02        33.94674
514.46        34.13457
514.90        34.34702
515.34        34.39597
515.78        34.31805
516.22        34.18265
516.66        34.07779
517.10        33.83379
517.54        33.47526
517.98         33.9351
518.42        33.81282
518.86        34.00689
519.30         34.0844
519.74        34.18116
520.18        34.26939
520.62        34.28568
521.06        34.23693
521.50        34.12602
521.93        33.98109
522.37        33.85784
522.81        33.77393
523.25        33.72136
523.69        33.68951
524.13        33.65921
524.57        33.62279
525.01        33.58375
525.45        33.54985
525.89        33.53164
526.32        33.52669
526.76        33.53003
527.20        33.51555
527.64        33.44845
528.08        33.32322
528.52        33.15001
528.96        32.96799
529.40         32.8353
529.83        32.76424
530.27        32.75041
530.71        32.74667
531.15        32.68065
531.59        32.54255
532.03        32.35834
532.46        32.18565
532.90        32.13622
533.34         32.2161
533.78        32.37883
534.22        32.55371
534.66        32.63377
535.09        32.58788
535.53        32.46539
535.97        32.29664
536.41        32.12595
536.85        31.97965
537.28        31.86336
537.72        31.81196
538.16        31.78286
538.60         31.9303
539.04        32.10117
539.47        32.27745
539.91         32.4456
540.35        32.60688
540.79         32.4887
541.22        32.54213
541.66        32.58623
542.10        32.78651
542.54        32.60301
542.97        32.88503
543.41        33.00311
543.85         33.1851
544.29        33.34955
544.72        33.47522
545.16        33.62541
545.60        33.79127
546.04        33.85401
546.47        33.88043
546.91        34.20384
547.35        34.73524
547.79        34.99955
548.22        34.99376
548.66        35.05352
549.10        35.20515
549.53        35.42876
549.97        35.74716
550.41        35.75985
550.84        36.12959
551.28        36.35989
551.72        36.64686
552.15        36.91656
552.59        37.16425
553.03        37.40741
553.46        37.60877
553.90        37.70172
554.34        37.76941
554.77        37.75335
555.21        37.74504
555.65        37.83081
556.08        38.01952
556.52        38.27553
556.96        38.53461
557.39        38.74271
557.83        38.86927
558.27         38.8527
558.70        38.74157
559.14        38.69915
559.57        38.73576
560.01        38.80472
560.45        38.89786
560.88        38.95654
561.32        39.02432
561.75        39.22709
562.19        39.63572
562.63         39.6422
563.06        39.37481
563.50        39.42879
563.93        39.77758
564.37        40.04803
564.80        40.04316
565.24        40.19359
565.68        40.40055
566.11        40.53158
566.55        40.61258
566.98        40.58563
567.42        40.47791
567.85        40.91491
568.29        40.81958
568.72        41.25208
569.16         41.8079
569.60        42.22806
570.03        42.42605
570.47        42.68187
570.90        42.79701
571.34        43.15945
571.77        42.57594
572.21        43.40065
572.64        43.55911
573.08        43.87655
573.51        43.94559
573.95        44.63274
574.38        44.71501
574.82        45.13121
575.25        45.41653
575.69        45.17749
576.12        44.94759
576.56        44.69883
576.99        44.62623
577.42        45.24414
577.86        45.09309
578.29        45.27434
578.73        46.08298
579.16        45.72546
579.60        45.10188
580.03        44.80764
580.47         44.6757
580.90        44.38533
581.33        44.45699
581.77        44.61399
582.20        45.54702
582.64         45.2111
583.07         44.4015
583.51        44.25085
583.94        43.44203
584.37        43.36838
584.81        42.76056
585.24        42.86765
585.68        43.21354
586.11        43.14775
586.54        43.02301
586.98        42.47543
587.41        42.50862
587.85        42.52493
588.28        42.68566
588.71        42.57208
589.15        42.21736
589.58         41.8815
590.01        41.69441
590.45        42.15137
590.88        41.96819
591.31        41.97876
591.75        41.54923
592.18        41.72636
592.61        41.58306
593.05        42.01124
593.48        41.93259
593.91         43.1651
594.35        42.75925
594.78        42.35135
595.21        42.89156
595.65        42.96194
596.08        43.30546
596.51        43.30656
596.94        43.18715
597.38        43.20605
597.81        43.42556
598.24         43.7866
598.68        44.50843
599.11        44.52226
599.54        45.79476
599.97         45.8372
600.41        45.67681
600.84        46.21007
601.27        47.06955
601.70        47.60975
602.14        47.80509
602.57        48.21786
603.00        48.91171
603.43        49.42398
603.87         49.7277
604.30        50.33886
604.73        50.85292
605.16        51.00146
605.60        51.38291
606.03        51.99087
606.46        52.75698
606.89        53.85511
607.32        53.91098
607.76        54.19813
608.19        54.62333
608.62        55.42479
609.05        55.30866
609.48        55.58735
609.92        56.13589
610.35        55.86915
610.78        57.17962
611.21        58.01156
611.64        57.60794
612.07        58.14662
612.50         58.5684
612.94        58.39593
613.37        59.08451
613.80        59.29406
614.23        59.53233
614.66        60.14914
615.09        60.54092
615.52        61.14723
615.96        61.62109
616.39        61.98169
616.82        62.29447
617.25        61.82889
617.68        62.04005
618.11          62.494
618.54        63.35828
618.97        63.44992
619.40        62.83887
619.84        62.74191
620.27        62.53779
620.70        63.15931
621.13        64.12012
621.56        64.28764
621.99        63.84613
622.42        63.86734
622.85        64.44839
623.28        64.77383
623.71        64.77998
624.14        64.96928
624.57        64.80103
625.00        64.57109
625.43        64.85377
625.86        63.98408
626.29        64.02686
626.72        63.70816
627.15        63.61063
627.58        63.59537
628.01        63.57789
628.44        63.47203
628.87        63.23545
629.30        62.64463
629.73        62.26855
630.16        61.77095
630.59        61.48135
631.02        61.10536
631.45        60.67499
631.88        60.24093
632.31        59.78755
632.74        59.27479
633.17        58.70959
633.60        58.13486
634.03        57.56186
634.46        56.98475
634.89        56.40598
635.32        55.82652
635.75          55.257
636.18        54.71552
636.61        54.20998
637.04        53.74506
637.47        53.31388
637.89         52.9051
638.32        52.51862
638.75        52.17779
639.18        51.87923
639.61        51.65805
640.04        51.43701
640.47        51.00535
640.90          50.393
641.33        49.83801
641.76        49.42841
642.18        49.13901
642.61        48.99043
643.04        49.04852
643.47        49.22639
643.90         49.3222
644.33        49.29112
644.76        49.19679
645.18          49.091
645.61        49.05653
646.04        49.12659
646.47        49.27074
646.90        49.48706
647.33        49.77906
647.75        50.13291
648.18         50.5379
648.61        50.97216
649.04        51.37703
649.47        51.74534
649.89          52.144
650.32         52.5727
650.75        52.95452
651.18         53.3822
651.61        53.97011
652.03        54.70948
652.46         55.7849
652.89        57.02169
653.32        57.36837
653.74        57.05264
654.17        57.97583
654.60        58.99075
655.03        60.34975
655.46        59.09428
655.88         61.7595
656.31        63.69923
656.74        74.59185
657.16         71.4095
657.59        65.57477
658.02        65.27648
658.45         64.7943
658.87        65.82146
659.30        66.25427
659.73         66.7979
660.15        68.07013
660.58         67.7558
661.01        67.65836
661.44        67.32546
661.86        67.68929
662.29        68.66141
662.72        69.61703
663.14        70.31834
663.57        70.36723
664.00        69.98045
664.42        70.02792
664.85        70.60214
665.27        71.10027
665.70        71.43153
666.13        71.80662
666.55        72.17931
666.98        72.44856
667.41        72.52854
667.83        72.66142
668.26        72.82393
668.69        72.96261
669.11        73.08372
669.54        73.22391
669.96        73.39552
670.39         73.5961
670.82        73.82581
671.24        74.08168
671.67        74.37044
672.09         74.6665
672.52        74.90964
672.94        75.30531
673.37        75.29218
673.80        75.26766
674.22         75.1607
674.65        75.16697
675.07        75.32913
675.50        75.56185
675.92        75.80338
676.35        75.92077
676.77        75.89643
677.20        75.78621
677.62        75.66743
678.05        75.64263
678.47        75.72994
678.90        75.94271
679.32        76.26469
679.75        76.38902
680.17        76.67623
680.60         76.9223
681.02        77.21227
681.45        77.18159
681.87        76.94019
682.30        77.17947
682.72        77.82708
683.15        77.91137
683.57        77.47671
684.00        77.80963
684.42        78.08929
684.85        78.39468
685.27        78.46918
685.70        78.56059
686.12        78.74513
686.54        78.87299
686.97        79.00649
687.39        78.87978
687.82          78.637
688.24        79.16451
688.66        79.22889
689.09        79.35921
689.51        79.23443
689.94        79.30067
690.36        79.54786
690.78        79.64825
691.21        79.62981
691.63        79.69121
692.06        79.95178
692.48        80.16387
692.90        80.18456
693.33        80.60618
693.75        80.39679
694.17        80.36656
694.60        80.27188
695.02        80.16176
695.44        80.03743
695.87        80.15666
696.29        80.43168
696.71        80.18433
697.14        79.71711
697.56        80.20187
697.98        81.32018
698.41        82.54131
698.83        81.85337
699.25        81.64483
699.68        81.51695
700.10        81.42299
700.52        81.42389
700.94        81.56595
701.37        81.78389
701.79         81.9851
702.21        82.10848
702.64          82.179
703.06        82.23531
703.48        82.35926
703.90        82.56932
704.33        82.81369
704.75        83.01952
705.17        83.07141
705.59         82.9306
706.01        82.56784
706.44        82.17417
706.86        82.11471
707.28        82.43765
707.70         83.0263
708.12        83.68179
708.55        84.02735
708.97        84.02159
709.39        83.94631
709.81        83.87191
710.23         83.7576
710.66        83.65608
711.08        83.63903
711.50        83.70149
711.92        83.80753
712.34        83.95126
712.76        84.15779
713.19        84.36938
713.61        84.55266
714.03        84.65732
714.45        84.69142
714.87        84.70631
715.29        84.79055
715.71        84.95887
716.13        85.18452
716.56        85.39915
716.98        85.54748
717.40        85.56769
717.82        85.56252
718.24        85.59368
718.66        85.36491
719.08        85.52273
719.50        85.54797
719.92        85.60652
720.34        85.64829
720.76         85.6681
721.19        85.67056
721.61        85.68057
722.03        85.70239
722.45        85.76328
722.87        85.85573
723.29        85.98072
723.71        86.08113
724.13         86.1694
724.55        86.35654
724.97        86.63945
725.39        86.79952
725.81        86.95974
726.23        87.12913
726.65        87.38156
727.07        87.33511
727.49        87.66405
727.91        87.79678
728.33        87.90342
728.75        88.00973
729.17        88.08124
729.59        87.93182
730.01        87.63446
730.43        87.60255
730.85        87.89005
731.27        88.11479
731.69        88.14414
732.10        88.86445
732.52        88.64672
732.94        88.62024
733.36        88.36016
733.78        88.18435
734.20        88.17146
734.62        88.05666
735.04        87.79362
735.46        88.22952
735.88        88.16689
736.30        87.86812
736.72        88.23443
737.13         88.3711
737.55        88.55293
737.97        89.04714
738.39        89.64698
738.81        89.32346
739.23        88.30737
739.65        88.19953
740.06         88.9313
740.48         89.2788
740.90        89.11497
741.32        88.92837
741.74        88.82372
742.16        88.87608
742.57        89.11853
742.99        89.36914
743.41        89.56306
743.83        89.67191
744.25        89.66993
744.67        89.55262
745.08        89.37077
745.50        89.17719
745.92        89.01543
746.34        88.85857
746.75        88.73679
747.17        88.68674
747.59        88.71938
748.01        88.89614
748.42        89.13388
748.84        89.20998
749.26        89.17603
749.68        89.05354
750.09        88.96539
750.51        89.46733
750.93        90.29317
751.35        90.22607
751.76        89.39915
752.18        89.07236
752.60        89.28457
753.01        89.39956
753.43        89.42175
753.85        89.29956
754.27        89.52811
754.68        90.07429
755.10        90.43674
755.52        90.26204
755.93        90.21416
756.35        90.01804
756.77        89.98961
757.18        89.94339
757.60        90.05371
758.02        90.46896
758.43        90.88588
758.85        91.42918
759.26        91.08186
759.68        90.35439
760.10         90.0683
760.51        90.41927
760.93        91.17091
761.34        89.76396
761.76        90.26565
762.18        89.57669
762.59        89.19061
763.01        89.17239
763.42        89.62688
763.84         90.5187
764.26        91.50549
764.67        91.38641
765.09        90.54656
765.50         90.9014
765.92        92.22517
766.33        92.56857
766.75        91.73005
767.16        90.73547
767.58        89.84806
768.00        89.19194
768.41        89.08618
768.83        89.67126
769.24        90.66412
769.66         92.0041
770.07        92.52898
770.49        92.38531
770.90        91.60468
771.32        91.49246
771.73         92.0204
772.15        91.99348
772.56        91.45676
772.97        91.13358
773.39        90.98151
773.80        91.26103
774.22        90.78684
774.63        90.51199
775.05        90.22458
775.46        90.25778
775.88        90.61246
776.29        91.20414
776.70        91.77898
777.12        91.96567
777.53        91.69623
777.95        91.03738
778.36        90.30231
778.77        90.02512
779.19         90.3362
779.60        91.14322
780.02        92.04002
780.43        92.59649
780.84        92.69372
781.26        91.94951
781.67        90.90019
782.09        91.69202
782.50        93.81427
782.91        94.06934
783.33        92.56622
783.74        92.14008
784.15        92.86795
784.57        93.19515
784.98        92.95936
785.39        92.43578
785.81        91.75451
786.22        91.35041
786.63         91.3153
787.04         91.3428
787.46        91.44054
787.87        91.84459
788.28        92.44461
788.70        92.84171
789.11        92.94733
789.52        92.99475
789.93        93.01381
790.35        92.76476
790.76        92.39625
791.17        92.49022
791.58        92.96165
792.00          92.955
792.41        92.43415
792.82        92.25905
793.23        92.34418
793.65        91.64212
794.06        90.64549
794.47        91.05285
794.88        92.44936
795.29        94.44859
795.71        93.52396
796.12        93.72826
796.53        94.02316
796.94        93.29088
797.35        91.84084
797.76        91.33501
798.18        91.85903
798.59        92.22485
799.00        92.31849
799.41        92.70479
799.82        93.25392
800.23        93.55489
800.64        93.52384
801.06        93.12707
801.47        92.59697
801.88        92.34045
802.29        92.44531
802.70        92.75531
803.11        93.09506
803.52        93.18827
803.93        92.98775
804.34        92.62706
804.75        92.21864
805.17        92.06284
805.58        92.28018
805.99        92.30876
806.40        92.23419
806.81        93.32101
807.22        95.01511
807.63        94.76328
808.04        92.92546
808.45        92.27548
808.86        93.09322
809.27        94.02908
809.68         94.7647
810.09        95.27737
810.50        95.39883
810.91        95.19698
811.32        94.85981
811.73        94.50288
812.14        94.17641
812.55        94.22137
812.96        94.44571
813.37        93.63603
813.78        92.19327
814.19        92.17399
814.60        93.33873
815.01        93.81051
815.42        93.52644
815.83        92.83253
816.24        93.19993
816.65        93.24305
817.05        93.39263
817.46        93.63809
817.87        93.89913
818.28        93.97214
818.69        93.83179
819.10        93.54432
819.51        93.24513
819.92         93.2954
820.33        93.78441
820.74        94.27499
821.14        94.69258
821.55        95.62084
821.96        96.66024
822.37        96.20718
822.78        94.56466
823.19        93.74689
823.60        93.97124
824.00        94.18565
824.41        94.18513
824.82        94.25546
825.23        94.34751
825.64          94.429
826.04        94.50345
826.45        94.54169
826.86        94.56289
827.27        94.46728
827.68        94.34025
828.08        94.60281
828.49        95.10567
828.90        95.29111
829.31        95.12762
829.72        95.07973
830.12        95.17803
830.53        95.08967
830.94        94.84002
831.35        94.58341
831.75        94.37286
832.16        94.13329
832.57        93.95025
832.97        93.94197
833.38        94.09511
833.79         94.3702
834.20        94.68806
834.60        94.91215
835.01        95.01517
835.42        95.04066
835.82        94.97564
836.23         94.7372
836.64        94.36769
837.04        93.89105
837.45        93.46275
837.86        93.38957
838.26         93.7481
838.67        94.42034
839.08        95.17504
839.48        95.54679
839.89        95.40288
840.29          94.914
840.70        94.38763
841.11        94.18888
841.51        94.42974
841.92        94.90901
842.33        95.57408
842.73        96.34474
843.14        97.01849
843.54        97.69878
843.95         98.1219
844.35        97.96253
844.76        97.21374
845.17        96.01949
845.57        94.77418
845.98        94.11433
846.38        94.18288
846.79        94.81174
847.19        95.78256
847.60        96.49457
848.00        96.81135
848.41        96.80905
848.81        96.70082
849.22        96.74044
849.62        97.04131
850.03        97.41241
850.43        97.78602
850.84        97.91132
851.24        97.82548
851.65        97.57548
852.05        97.28089
852.46        97.14342
852.86        97.24607
853.27        97.08279
853.67        96.74229
854.07        97.59076
854.48        99.08668
854.88        98.79113
855.29        96.86227
855.69        96.02372
856.10        96.42448
856.50        96.63606
856.90        96.47369
857.31        96.44733
857.71        96.61308
858.12        96.76221
858.52        96.91725
858.92        96.99457
859.33         96.9454
859.73        96.85479
860.13        96.74432
860.54        96.66319
860.94        96.71767
861.34        96.83021
861.75        96.89749
862.15        96.86121
862.55         96.6533
862.96        96.33086
863.36        95.95947
863.76        95.58789
864.17         95.2647
864.57        95.02316
864.97        94.90807
865.38        94.96303
865.78        95.23584
866.18        95.61635
866.58        96.03977
866.99        96.38239
867.39        96.64719
867.79        96.83251
868.19        96.75055
868.60        96.09216
869.00        94.82473
869.40        93.06581
869.80        91.38864
870.21        90.76094
870.61        91.45384
871.01        93.11684
871.41        94.96817
871.81        95.75143
872.22        95.18395
872.62        93.70667
873.02        91.92773
873.42        90.88044
873.82        90.80718
874.22        91.23759
874.63        92.01509
875.03        92.91634
875.43        93.69037
875.83        94.58255
876.23        95.01876
876.63         95.2882
877.03        95.31078
877.44        94.99204
877.84        104.8286
878.24        94.44234
878.64        94.17789
879.04        94.42479
879.44        93.17434
879.84         92.0844
880.24        92.53315
880.64        92.00799
881.04         90.6917
881.44        89.91762
881.84        89.96429
882.24        90.60943
882.65         91.4036
883.05        91.74443
883.45         91.3698
883.85        90.54276
884.25        89.73345
884.65         89.5717
885.05        90.18498
885.45        91.37012
885.85        92.63203
886.25        93.14256
886.65        92.69849
887.05        91.58588
887.45        90.33425
887.85        89.72842
888.25        89.96793
888.65        90.83036
889.04        91.95818
889.44        92.62545
889.84        92.64912
890.24         92.2277
890.64        91.67744
891.04        91.47086
891.44        91.68759
891.84        92.11742
892.24        92.48875
892.64         92.3642
893.04        91.67944
893.44        90.71289
893.83        89.63268
894.23        88.71067
894.63        88.01584
895.03        87.44778
895.43        87.18992
895.83        87.55433
896.23        88.52854
896.63        90.00478
897.02        91.48476
897.42        92.03101
897.82        91.46057
898.22        90.06443
898.62        88.41383
899.01        87.39506
899.41        87.28497
899.81        87.78332
900.21         88.6335
900.61        89.44289
901.00        90.04424
901.40        90.52924
901.80        90.87766
902.20         91.0223
902.59         90.9806
902.99        90.74715
903.39        90.34715
903.79        89.85037
904.18        89.31287
904.58        88.78216
904.98         88.4599
905.38        88.64453
905.77        89.33006
906.17        90.42208
906.57          91.513
906.96        91.98975
907.36        91.68556
907.76        90.76636
908.15        89.65212
908.55        88.96929
908.95        88.90825
909.34        89.34087
909.74        89.87878
910.14        89.86533
910.53        89.14515
910.93        88.01653
911.33        86.98212
911.72         86.8204
912.12        87.64725
912.52        89.09467
912.91        90.65799
913.31        91.51071
913.70        91.49405
914.10        90.83153
914.49        89.75148
914.89        88.74781
915.29        88.08934
915.68        87.65468
916.08        87.52627
916.47        87.76334
916.87        88.29462
917.26        89.06667
917.66        89.85045
918.05        90.29633
918.45        90.27643
918.84        89.94238
919.24        89.29522
919.64        88.38135
920.03        87.31431
920.42        86.13158
920.82        85.26215
921.21        85.29318
921.61        86.24537
922.00        87.98375
922.40        89.83627
922.79        90.91487
923.19        90.89986
923.58        89.96143
923.98        88.53506
924.37         87.6397
924.77        87.70856
925.16        87.18541
925.55        88.16193
925.95        88.31273
926.34         88.2312
926.74        87.98476
927.13        87.85935
927.52        88.15568
927.92        88.88504
928.31        89.97272
928.70        91.03004
929.10        91.40747
929.49        90.95953
929.89        89.88412
930.28        88.67823
930.67        88.12516
931.07        88.40247
931.46        89.31483
931.85        90.44342
932.24        91.17443
932.64        91.31344
933.03        90.98705
933.42        90.39588
933.82        89.97791
934.21        89.84961
934.60        89.89091
934.99        89.77767
935.39        89.13499
935.78        87.91415
936.17        86.03989
936.56         83.8075
936.96        83.67961
937.35         83.4986
937.74         84.9055
938.13        86.50285
938.53        87.63081
938.92        88.20272
939.31        88.43115
939.70        88.42684
940.09        88.33511
940.49        88.25121
940.88         88.1304
941.27        88.07092
941.66        88.27182
942.05        88.74649
942.44        89.43924
942.84        90.20316
943.23        90.81023
943.62        91.14842
944.01        91.29726
944.40        91.23792
944.79        90.96076
945.18        90.48681
945.57        89.77058
945.97        89.04792
946.36        88.73293
946.75        88.94828
947.14        89.59603
947.53        90.23562
947.92         90.2271
948.31        89.48589
948.70        88.20625
949.09        86.85588
949.48         86.2595
949.87        86.64078
950.26        87.73912
950.65        89.07816
951.04        89.86501
951.43        89.84715
951.82        89.24711
952.21        88.38075
952.60        87.75707
952.99        87.54297
953.38        87.58839
953.77        87.72145
954.16        87.68787
954.55        87.42501
954.94        87.03889
955.33        86.70756
955.72         86.6864
956.11        87.04768
956.50        87.73041
956.89        88.49107
957.28         88.8876
957.66         88.7848
958.05        88.23749
958.44        87.60683
958.83        87.37959
959.22        87.62447
959.61        88.22141
960.00        88.74838
960.39        88.46577
960.78        87.23657
961.16        85.32484
961.55        83.42829
961.94        82.45373
962.33        82.60926
962.72         83.6409
963.11        85.00647
963.49        85.78442
963.88        85.59457
964.27        84.74523
964.66        83.71284
965.04        83.28645
965.43        83.66637
965.82        84.60554
966.21        85.69654
966.60        86.30076
966.98        86.26026
967.37        85.75637
967.76        85.17358
968.15        85.09576
968.53        85.65506
968.92        86.53388
969.31        87.38744
969.69        87.65344
970.08        87.13281
970.47        86.11904
970.86        84.79836
971.24        83.42316
971.63        82.21182
972.02        81.13303
972.40        80.43964
972.79        80.55416
973.17        81.55355
973.56        83.17945
973.95        85.07635
974.33        86.56854
974.72        87.26582
975.11        87.34786
975.49         86.8343
975.88        85.79064
976.26         84.3959
976.65        82.74483
977.04        81.22593
977.42        80.52079
977.81        80.80253
978.19        81.86292
978.58        83.47581
978.96         85.2734
979.35        86.90732
979.74         88.5121
980.12         89.6302
980.51        89.25008
980.89        87.46059
981.28        84.62209
981.66        81.82858
982.05        80.61751
982.43        81.18657
982.82        83.12051
983.20        85.68586
983.59         87.1768
983.97         87.1472
984.35        85.93209
984.74        84.31262
985.12        83.46707
985.51        83.70497
985.89        84.70535
986.28        85.84372
986.66        86.12289
987.04        85.16396
987.43        83.59114
987.81        81.91473
988.20        80.70848
988.58        80.02908
988.96        79.62857
989.35        79.54227
989.73        80.07107
990.12        81.04723
990.50        82.43154
990.88        83.53846
991.27        83.65418
991.65        82.84319
992.03        81.25432
992.42        79.53799
992.80        79.09911
993.18        80.31361
993.56        82.56841
993.95        84.98833
994.33        86.69124
994.71        87.29842
995.10        87.10751
995.48        86.34767
995.86        85.27769
996.24        84.05582
996.63        82.62222
997.01        81.02657
997.39        79.53973
997.77        78.46866
998.15        77.84522
998.54        77.92871
998.92        78.95451
999.30        81.01033
999.68        84.35909
1000.06        88.11576
1000.45        89.07091
1000.83        86.14349
1001.21        80.89525
1001.59        75.96552
1001.97        73.37344
1002.35        72.97681
1002.73        74.13753
1003.12        76.20673
1003.50        77.86429
1003.88        78.20159
1004.26        77.65392
1004.64        76.62315
1005.02        75.65955
1005.40        74.98425
1005.78        74.36543
1006.16        73.87734
1006.54        73.82056
1006.92         74.1778
1007.30        74.75707
1007.69        75.43109
1008.07        76.22514
1008.45        77.19289
1008.83        78.65697
1009.21        80.32001
1009.59        80.68404
1009.97        78.59007
1010.35        74.13743
1010.73         69.9792
1011.11        69.52203
1011.49         72.7742
1011.86        78.55838
1012.24        83.75129
1012.62        85.22586
1013.00        82.79759
1013.38        77.72865
1013.76        71.89521
1014.14         68.5953
1014.52        68.81833
1014.90        71.51579
1015.28         75.0613
1015.66        76.74209
1016.04        75.57641
1016.41        72.25491
1016.79        67.48409
1017.17        63.65847
1017.55        62.13299
1017.93        62.09354
1018.31        62.82119
1018.69        63.62028
1019.06        64.27424
1019.44        64.93425
1019.82        65.39884
1020.20        65.00996
1020.58        63.60681
1020.95        61.34961
1021.33        58.65467
1021.71        55.51701
1022.09        51.41492
1022.46        44.48378
1022.84        35.02462
1023.22        33.17621
1023.60        43.32748
1023.97        54.31478
1024.35        60.22613
1024.73        61.66051
