SpectraSmart Spectrum 2.9.0.0
--------- Device Information -----------
Spectrum Name :  反射率_0
Saving Time :  2024/04/20 00:05:29
Spectro-Module Model Name : SE2030-DUVN
Spectro-Module Serial Number : OS361AC55029948
Wavelength Start : 200
Wavelength End : 1025
Wavelength Unit : Wavelength(nm)
Spectrum Unit : Reflectance(%)
-----------Spectrum Setting ------------
Integration Time : 30ms
Average : 10
Boxcar : 0
Background removal :  enabled
linearity correction :  enabled
SC :  disabled
Intensity correction :  disabled
DWT denoise :  enabled
savitzky-golay :  disabled
FFT :  disabled
Running average :  disabled
Kalman :  disabled
High pass :  disabled
---------------BEGIN--------------------
Wavelength(nm)             Reflectance(%)
200.29               0
200.75        63.56086
201.21        64.36604
201.67        67.68919
202.13        74.75042
202.58        85.82438
203.04        101.1416
203.50        115.6213
203.96         117.472
204.42        106.8458
204.88        91.70995
205.34        78.90594
205.80        71.47814
206.26        68.11023
206.72        67.17164
207.18        68.62854
207.64        71.60498
208.10        74.38992
208.55        77.16075
209.01        78.37661
209.47        77.80443
209.93        75.95467
210.39        73.11057
210.85        69.98185
211.31        67.33302
211.77        65.09436
212.23        62.79476
212.69        61.00023
213.14        61.67459
213.60        64.49377
214.06        68.36417
214.52        71.49867
214.98         73.1859
215.44        73.74522
215.90        73.14801
216.36        72.33556
216.81        73.30515
217.27         76.3262
217.73        80.80445
218.19        84.09463
218.65         82.5584
219.11        75.67063
219.57        63.99121
220.02        50.78355
220.48        44.57625
220.94        48.38429
221.40        60.24357
221.86        74.57644
222.32        82.78893
222.77        82.69807
223.23        77.24178
223.69        69.98869
224.15        66.12003
224.61        66.47464
225.06         68.7452
225.52        71.20161
225.98        72.47338
226.44        72.45866
226.90        71.80482
227.36        71.09267
227.81        71.04148
228.27        72.00146
228.73        73.36207
229.19        74.45433
229.65         74.5748
230.10        73.74438
230.56        72.51141
231.02        71.32301
231.48        70.78296
231.93        70.87157
232.39        71.33324
232.85        71.86124
233.31        72.06284
233.77        71.79941
234.22         71.2172
234.68        70.29128
235.14         68.9065
235.60         67.1928
236.05        65.29037
236.51          63.551
236.97        62.42413
237.43        62.03342
237.88        62.53511
238.34        63.74284
238.80        65.38528
239.26        66.96389
239.71        68.24995
240.17        69.01025
240.63        69.66015
241.08        70.40163
241.54        71.07255
242.00        71.10297
242.46        69.31509
242.91        65.02843
243.37        57.12935
243.83        46.33265
244.28        39.98061
244.74        45.13287
245.20        60.33406
245.66        75.23292
246.11        81.08105
246.57        77.18381
247.03        64.06073
247.48        44.51037
247.94        36.60039
248.40        44.45478
248.85        55.90852
249.31        64.55727
249.77        68.74694
250.22        69.65088
250.68        68.80074
251.14        66.96051
251.59        65.52224
252.05        65.52763
252.51        66.63328
252.96        67.99799
253.42        68.48403
253.88        67.90313
254.33        66.83776
254.79         66.8941
255.25        69.28938
255.70         73.5544
256.16        78.56631
256.62        82.75003
257.07        84.42058
257.53        83.71601
257.99        81.25349
258.44        77.70636
258.90        74.82181
259.35        72.63235
259.81        71.49393
260.27        70.51097
260.72        68.90103
261.18        66.98528
261.63        64.56901
262.09        62.79755
262.55        62.66764
263.00        63.93542
263.46        66.10897
263.91        67.75284
264.37         67.5794
264.83        65.60964
265.28        62.45853
265.74        59.48674
266.19        58.04947
266.65         58.3983
267.11        59.80743
267.56        61.41036
268.02        62.02054
268.47        61.37848
268.93         59.9076
269.38        58.04353
269.84        56.70001
270.30         56.1133
270.75         55.9952
271.21        55.98993
271.66        55.56014
272.12         54.5863
272.57        53.26582
273.03        51.92183
273.48        50.92757
273.94        50.43306
274.39        50.24437
274.85        50.15323
275.31        49.80198
275.76         49.0845
276.22        48.14319
276.67        47.13689
277.13        46.44152
277.58        46.04254
278.04        45.87183
278.49         45.6142
278.95        44.94053
279.40         43.7738
279.86        42.36568
280.31        40.95522
280.77        40.04737
281.22        39.63884
281.68        39.60856
282.13        39.67332
282.59        39.48568
283.04        38.94803
283.50        38.22383
283.95        37.45141
284.41        36.89295
284.86        36.56618
285.32        36.40636
285.77         36.2935
286.22        36.13369
286.68         35.9012
287.13        35.61853
287.59        35.32595
288.04        35.02222
288.50        34.73949
288.95        34.42755
289.41         34.1343
289.86        33.85082
290.32         33.6258
290.77        33.45057
291.22        33.32751
291.68        33.22079
292.13        33.12859
292.59         33.0846
293.04        33.13799
293.50         33.3909
293.95         33.8397
294.40        34.43648
294.86         35.1045
295.31        35.73067
295.77        36.28421
296.22        36.79995
296.68        37.29156
297.13        37.76385
297.58        38.23939
298.04        38.71658
298.49        39.24746
298.95        39.95949
299.40        40.84232
299.85        41.85223
300.31        42.87266
300.76        43.70785
301.21        44.32248
301.67        44.80968
302.12        45.21984
302.58        45.71152
303.03        46.29211
303.48        46.92858
303.94        47.64189
304.39        48.41563
304.84        49.23376
305.30        50.08158
305.75        50.83815
306.20        51.35256
306.66        51.62482
307.11        51.68364
307.57         51.6587
308.02         51.6574
308.47        51.74971
308.93        51.90329
309.38        52.09676
309.83        52.35774
310.29        52.66703
310.74        53.01434
311.19        53.30509
311.65        53.38056
312.10        53.21019
312.55        52.84481
313.00        52.42606
313.46        52.17626
313.91         52.1292
314.36        52.23642
314.82        52.38042
315.27        52.39663
315.72        52.22587
316.18         51.9412
316.63        51.60736
317.08        51.33894
317.53        51.16618
317.99        51.04229
318.44        50.93631
318.89        50.78789
319.35        50.57934
319.80        50.33657
320.25        50.08195
320.70        49.84988
321.16        49.64368
321.61        49.45718
322.06        49.26542
322.51        49.03708
322.97        48.75517
323.42        48.43819
323.87        48.10252
324.32        47.78291
324.78        47.48279
325.23        47.21629
325.68        46.94684
326.13        46.62288
326.59         46.2379
327.04        45.83714
327.49        45.47893
327.94        45.26451
328.39        45.21041
328.85        45.25756
329.30        45.37653
329.75        45.43879
330.20        45.39512
330.66        45.25022
331.11        45.04393
331.56        44.77942
332.01        44.47084
332.46         44.1144
332.92        43.73175
333.37        43.39186
333.82        43.11632
334.27         42.9212
334.72        42.79515
335.17        42.70699
335.63        42.63188
336.08        42.58238
336.53        42.58076
336.98        42.68635
337.43        42.89362
337.88        43.17831
338.34         43.3965
338.79        43.36905
339.24        43.04982
339.69        42.49889
340.14        41.92578
340.59        41.68535
341.05        41.84576
341.50          42.296
341.95        42.81678
342.40        43.06629
342.85        42.96146
343.30        42.62607
343.75        42.17616
344.20        41.80152
344.66         41.5724
345.11        41.40304
345.56        41.31938
346.01        41.36379
346.46        41.51192
346.91        41.76157
347.36        41.96455
347.81        41.87851
348.26        41.48052
348.72        40.87432
349.17        40.22838
349.62        39.90211
350.07        39.98255
350.52        40.33756
350.97        40.81987
351.42        41.21032
351.87        41.42194
352.32        41.50832
352.77        41.44189
353.22         41.1807
353.67        40.74858
354.13        40.18285
354.58        39.56882
355.03        39.09266
355.48        38.80986
355.93        38.69386
356.38        38.69221
356.83        38.70549
357.28        38.69021
357.73        38.65575
358.18        38.60597
358.63        38.55154
359.08        38.48557
359.53        38.38997
359.98        38.22465
360.43         37.9359
360.88        37.52851
361.33         37.0379
361.78        36.54249
362.23        36.16903
362.68        35.94917
363.13        35.83768
363.58         35.7799
364.03        35.68649
364.48        35.51812
364.93        35.29446
365.38        34.99608
365.83        34.59911
366.28        34.11814
366.73        33.56912
367.18        33.02287
367.63        32.58956
368.08        32.29697
368.53        32.12443
368.98        32.01581
369.43        31.87345
369.88        31.66969
370.33         31.4296
370.78        31.18664
371.23        31.00141
371.68        30.89033
372.13        30.82397
372.58        30.77582
373.03        30.70994
373.48        30.60697
373.93        30.47087
374.38        30.30316
374.83        30.10297
375.28        29.87042
375.72        29.59943
376.17        29.30723
376.62        28.98204
377.07        28.64152
377.52        28.30415
377.97        28.01417
378.42        27.83508
378.87        27.76995
379.32        27.78602
379.77        27.83677
380.22        27.84993
380.67         27.8019
381.11        27.71801
381.56        27.57867
382.01        27.37923
382.46        27.13015
382.91        26.82721
383.36        26.54124
383.81        26.37884
384.26        26.35472
384.71        26.45122
385.15        26.54927
385.60        26.47056
386.05        26.18514
386.50        25.74939
386.95        25.32278
387.40        25.15904
387.85        25.29704
388.29        25.63084
388.74        25.98761
389.19        26.10513
389.64        25.93041
390.09        25.54213
390.54        25.07961
390.98        24.75687
391.43        24.65743
391.88        24.70431
392.33        24.78559
392.78        24.74153
393.23        24.54951
393.67        24.25578
394.12        24.00158
394.57        23.89859
395.02        23.96636
395.47        24.15779
395.91        24.37686
396.36        24.43201
396.81        24.28795
397.26        24.00298
397.71        23.70044
398.15        23.54409
398.60        23.59207
399.05        23.76889
399.50        23.96706
399.95        24.03385
400.39         23.9365
400.84        23.72026
401.29        23.47427
401.74        23.36026
402.18        23.42837
402.63         23.6146
403.08         23.8161
403.53        23.86844
403.97         23.7365
404.42        23.48989
404.87        23.22572
405.32        23.10208
405.76        23.15602
406.21        23.33212
406.66        23.55173
407.11        23.69353
407.55        23.72449
408.00         23.6874
408.45        23.61674
408.90        23.50933
409.34        23.40837
409.79        23.42228
410.24        23.50282
410.68        23.47739
411.13        23.34342
411.58        23.19931
412.03        23.08592
412.47        23.03894
412.92        23.07016
413.37        23.16099
413.81        23.29761
414.26        23.47572
414.71        23.67342
415.15        23.89315
415.60        24.06544
416.05        24.11181
416.49        24.01486
416.94        23.80179
417.39        23.54506
417.83        23.36356
418.28         23.3007
418.73        23.32544
419.17        23.39443
419.62        23.42667
420.07        23.40576
420.51        23.35945
420.96        23.32491
421.41        23.33238
421.85        23.38106
422.30        23.46749
422.74         23.5701
423.19        23.69949
423.64        23.84044
424.08        24.00017
424.53        24.13659
424.98         24.2115
425.42        24.21881
425.87        24.17879
426.31        24.10753
426.76        24.02329
427.21        23.93515
427.65        23.86525
428.10        23.84546
428.54         23.8612
428.99        23.91943
429.44        24.14095
429.88        24.39283
430.33        24.29735
430.77        23.93363
431.22         23.7839
431.66        23.90284
432.11        24.09258
432.56        24.30624
433.00         24.6732
433.45        24.98731
433.89        24.84813
434.34        24.41166
434.78        24.19253
435.23        24.00127
435.67        24.83684
436.12        24.24225
436.57        24.22539
437.01        24.12769
437.46        24.10578
437.90        24.17075
438.35        24.25484
438.79        24.31328
439.24        24.34412
439.68        24.34324
440.13        24.11852
440.57        23.83127
441.02        24.12756
441.46        24.78324
441.91        25.01885
442.35        24.20837
442.80        23.98474
443.24        24.11007
443.69         24.0763
444.13        23.87418
444.58        23.74852
445.02        23.72542
445.47        23.80669
445.91        23.93917
446.36        23.97583
446.80        23.88965
447.24        23.75678
447.69        23.63308
448.13        23.55425
448.58        23.54431
449.02        23.58196
449.47        23.63425
449.91        23.64104
450.36        23.59387
450.80        23.50711
451.25        23.41928
451.69        23.36536
452.13        23.36256
452.58        23.39349
453.02        23.43587
453.47        23.46263
453.91        23.46564
454.36        23.45115
454.80        23.42923
455.24        23.41213
455.69        23.41185
456.13        23.39876
456.58        23.38539
457.02        23.38032
457.46        23.38151
457.91        23.33516
458.35        23.25442
458.79        23.22331
459.24        23.24043
459.68        23.28751
460.13        23.39733
460.57        23.40864
461.01        23.28896
461.46        23.68122
461.90         23.6813
462.34        23.42395
462.79         23.5818
463.23         23.4448
463.68        23.34018
464.12        23.26169
464.56        23.40187
465.01        23.56668
465.45        23.69312
465.89        23.83961
466.34        23.79002
466.78        23.65866
467.22        23.46508
467.67        23.50052
468.11         23.7213
468.55         23.6906
468.99        23.44362
469.44        23.38603
469.88        23.53207
470.32        23.65347
470.77        23.70156
471.21        23.70925
471.65        23.66887
472.10        23.57359
472.54        23.46451
472.98        23.45376
473.42        23.55533
473.87        23.66808
474.31        23.76204
474.75        23.93981
475.20        24.13901
475.64        24.11039
476.08        23.92666
476.52        23.90974
476.97          24.079
477.41        24.28539
477.85        24.46204
478.29        24.55071
478.74        24.57217
479.18        24.47076
479.62        24.35187
480.06        24.36654
480.50        24.51254
480.95        24.63614
481.39        24.69367
481.83        24.73415
482.27        24.74716
482.72        24.71347
483.16        24.67516
483.60        24.67227
484.04        24.72971
484.48        24.96026
484.93        25.29865
485.37        25.35204
485.81        25.62321
486.25         25.8839
486.69        26.91008
487.14        27.23515
487.58        26.37167
488.02        26.84961
488.46        26.40317
488.90        26.47468
489.34        26.19772
489.79        26.35061
490.23        26.76021
490.67        26.86991
491.11         26.7116
491.55        26.68167
491.99        26.81011
492.43        26.88508
492.88        26.91416
493.32        27.00559
493.76        27.16697
494.20        27.35457
494.64        27.56425
495.08        27.82209
495.52        28.08644
495.96        28.26719
496.41        28.37918
496.85        28.47818
497.29        28.59325
497.73        28.81953
498.17        29.11742
498.61        29.23702
499.05        29.19855
499.49        29.30315
499.93        29.57075
500.37        29.75567
500.82        29.86442
501.26        30.14869
501.70          30.535
502.14        30.61335
502.58        30.43396
503.02          30.424
503.46        30.61142
503.90        30.76766
504.34        30.85205
504.78        30.90287
505.22        30.91162
505.66         30.8784
506.10        30.83889
506.54        30.83598
506.98        30.88413
507.42        30.99496
507.86        31.15398
508.30        31.23627
508.74        31.38358
509.18        31.47396
509.62        31.56804
510.06        31.68457
510.50        31.82724
510.94        31.98768
511.38        32.12487
511.82        32.17988
512.26        32.14326
512.70          32.033
513.14        31.91826
513.58        31.90228
514.02        32.00054
514.46        32.18945
514.90        32.39261
515.34        32.41386
515.78        32.28767
516.22        32.09564
516.66        31.94996
517.10         31.7134
517.54        31.41521
517.98        32.00072
518.42        31.99455
518.86        32.26921
519.30        32.36594
519.74        32.44156
520.18        32.48318
520.62        32.45212
521.06        32.36764
521.50        32.22482
521.93        32.06373
522.37        31.95938
522.81        31.92958
523.25        31.96206
523.69         32.0197
524.13        32.03999
524.57        32.00674
525.01        31.93535
525.45        31.85993
525.89        31.83464
526.32        31.86854
526.76        31.94363
527.20        32.01263
527.64        32.00703
528.08        31.91096
528.52        31.74308
528.96        31.55801
529.40        31.43815
529.83        31.39939
530.27        31.42615
530.71        31.45311
531.15        31.37999
531.59        31.19335
532.03        30.93401
532.46        30.67856
532.90        30.56649
533.34        30.61382
533.78        30.76611
534.22         30.9501
534.66        31.05409
535.09        31.04169
535.53        30.96184
535.97        30.83263
536.41        30.67915
536.85        30.52321
537.28        30.37229
537.72        30.27428
538.16        30.21437
538.60        30.34529
539.04        30.51545
539.47        30.69402
539.91        30.84494
540.35        30.96694
540.79        30.81343
541.22        30.82623
541.66        30.85416
542.10        31.05846
542.54        30.91561
542.97        31.22746
543.41        31.39324
543.85        31.62239
544.29        31.83788
544.72        32.00046
545.16         32.1417
545.60        32.25327
546.04        32.23399
546.47        32.17972
546.91        32.46154
547.35        33.00627
547.79        33.33575
548.22        33.42128
548.66        33.55957
549.10        33.75525
549.53        33.96787
549.97        34.22533
550.41        34.18296
550.84        34.48524
551.28        34.63964
551.72        34.84298
552.15        35.05647
552.59        35.28034
553.03         35.5144
553.46        35.72513
553.90        35.86992
554.34        35.93386
554.77        35.98721
555.21         36.0877
555.65        36.01656
556.08        36.23275
556.52        36.39407
556.96        36.54026
557.39        36.71483
557.83        36.88055
558.27        36.94997
558.70         36.9462
559.14        37.00549
559.57        37.12753
560.01        37.26632
560.45        37.38586
560.88        37.43846
561.32        37.46162
561.75        37.45267
562.19        37.56998
562.63        37.60773
563.06        37.62334
563.50        37.70501
563.93        37.83712
564.37         38.0513
564.80        38.15748
565.24        38.31876
565.68         38.4547
566.11        38.57108
566.55        38.69281
566.98        38.74575
567.42        38.72067
567.85        39.09955
568.29        38.88408
568.72        39.26048
569.16        39.82961
569.60         40.2309
570.03        40.40397
570.47        40.57529
570.90        40.55486
571.34        41.05283
571.77        40.80441
572.21         41.1754
572.64         41.2481
573.08        41.58679
573.51        41.75706
573.95        42.00418
574.38        42.51353
574.82        42.82276
575.25        43.12283
575.69        42.82884
576.12        42.53819
576.56        42.33055
576.99        42.36953
577.42        42.68162
577.86         42.8814
578.29        42.68129
578.73        43.60241
579.16        43.67736
579.60         42.9567
580.03        42.43347
580.47        42.65928
580.90        42.37555
581.33        42.42999
581.77        42.25433
582.20        42.97393
582.64        43.26664
583.07        42.60522
583.51        42.45245
583.94        41.47313
584.37        41.36334
584.81        40.70281
585.24        40.82413
585.68        41.18917
586.11        41.23672
586.54         41.3195
586.98        40.96002
587.41        40.67191
587.85        40.73541
588.28        41.11333
588.71        41.01284
589.15        40.49145
589.58        40.01114
590.01        39.80364
590.45         40.3971
590.88        40.48618
591.31        40.42977
591.75        39.84927
592.18        39.88443
592.61        39.76513
593.05        40.20753
593.48        40.43107
593.91        41.54763
594.35        40.89767
594.78        40.77615
595.21        41.22161
595.65        41.42986
596.08        41.55966
596.51        41.53946
596.94        41.47079
597.38        41.37679
597.81        41.38284
598.24        41.61071
598.68        42.54958
599.11         42.4724
599.54        43.58117
599.97        43.53132
600.41        43.94921
600.84        44.10272
601.27        45.07247
601.70        45.09571
602.14        45.27378
602.57        45.49496
603.00        46.05816
603.43         46.4543
603.87        46.67323
604.30        47.23948
604.73        48.09193
605.16        47.95924
605.60         48.2896
606.03        48.59461
606.46         49.0906
606.89        50.01796
607.32        50.49835
607.76        50.14888
608.19        50.58975
608.62        51.65874
609.05        51.43196
609.48        51.34422
609.92        51.78354
610.35        51.58424
610.78        52.53967
611.21        53.19844
611.64        52.73207
612.07        53.38929
612.50        53.72332
612.94        53.57764
613.37        54.20837
613.80        54.41697
614.23        54.68821
614.66        54.99007
615.09        55.29893
615.52        55.70528
615.96         55.9861
616.39        56.25846
616.82         56.6092
617.25        55.80313
617.68        56.21016
618.11        56.55703
618.54        57.11694
618.97        57.15847
619.40        56.66958
619.84        56.67746
620.27        56.46565
620.70        56.99158
621.13        57.77324
621.56        57.92214
621.99        57.60404
622.42        57.29872
622.85         57.7523
623.28        57.95016
623.71        58.00201
624.14        58.31247
624.57        58.18566
625.00        58.03897
625.43        58.29469
625.86        57.71264
626.29        57.59266
626.72        57.40625
627.15        57.35894
627.58        57.29715
628.01        57.09988
628.44         57.3535
628.87        57.19597
629.30        56.43806
629.73        56.26713
630.16         56.2225
630.59        55.84441
631.02        55.61996
631.45        55.28751
631.88        55.11362
632.31         54.7623
632.74        54.46203
633.17         54.0835
633.60        53.64853
634.03        53.15404
634.46        52.61305
634.89        52.06584
635.32        51.56808
635.75        51.14243
636.18        50.78342
636.61        50.47205
637.04        50.17057
637.47        49.86127
637.89        49.55121
638.32        49.23733
638.75        48.94672
639.18         48.6842
639.61         48.4453
640.04        48.19785
640.47        47.89028
640.90        47.52134
641.33        47.11674
641.76        46.74061
642.18        46.49964
642.61        46.40897
643.04        46.43531
643.47         46.5227
643.90        46.57784
644.33        46.56892
644.76        46.52365
645.18        46.45779
645.61        46.39724
646.04        46.36514
646.47         46.3597
646.90        46.40221
647.33        46.54895
647.75        46.80578
648.18        47.09139
648.61        47.40116
649.04        47.83403
649.47        48.31532
649.89        48.61196
650.32        48.74648
650.75        48.93214
651.18        49.26296
651.61        49.69411
652.03        50.23916
652.46        51.04108
652.89        51.92555
653.32        52.24982
653.74          52.181
654.17        52.37521
654.60        52.83752
655.03         53.8979
655.46        53.51284
655.88         54.9827
656.31         56.1832
656.74        63.78926
657.16        63.43093
657.59        60.52022
658.02        58.54541
658.45        57.25485
658.87        58.04771
659.30        57.88905
659.73         58.5787
660.15        59.20004
660.58        58.92222
661.01        58.67589
661.44        58.32853
661.86        58.58862
662.29        59.35892
662.72        60.03284
663.14        60.44821
663.57        60.52794
664.00        60.39682
664.42        60.46474
664.85        60.78894
665.27        61.04145
665.70        61.18255
666.13        61.35661
666.55        61.56435
666.98        61.75146
667.41         61.9187
667.83        62.06937
668.26         62.1928
668.69        62.29734
669.11        62.39732
669.54        62.49605
669.96         62.6014
670.39        62.76432
670.82        62.97609
671.24        63.08929
671.67        63.16423
672.09        63.46855
672.52        63.92489
672.94        64.23583
673.37        64.32769
673.80        64.14465
674.22         63.8394
674.65        63.79102
675.07        64.06953
675.50        64.47086
675.92        64.87071
676.35        65.10513
676.77        65.12775
677.20        64.99426
677.62          64.813
678.05        64.75733
678.47        64.86905
678.90        65.12166
679.32        65.44819
679.75        65.67546
680.17        65.82558
680.60        66.01468
681.02        66.24882
681.45        66.39972
681.87        66.47885
682.30        66.53764
682.72         66.5844
683.15        66.62817
683.57        66.69872
684.00        66.67193
684.42        66.67667
684.85        66.99147
685.27        67.11266
685.70        67.44581
686.12        67.76135
686.54         67.9959
686.97        68.12151
687.39        68.13363
687.82        68.07495
688.24         68.1423
688.66          68.313
689.09        68.30379
689.51         68.1638
689.94        68.22932
690.36        68.49866
690.78        68.61336
691.21        68.56551
691.63        68.69527
692.06        69.02234
692.48        68.93555
692.90        69.13529
693.33        69.37538
693.75        69.36565
694.17        69.56292
694.60        69.73855
695.02        69.54043
695.44        69.04214
695.87        68.87907
696.29        69.05377
696.71        69.03142
697.14        68.97472
697.56        69.38696
697.98        69.99183
698.41         71.3078
698.83        70.70056
699.25        70.58272
699.68         70.3476
700.10        70.19559
700.52         70.1876
700.94        70.28681
701.37        70.44266
701.79        70.58562
702.21        70.66404
702.64        70.70512
703.06        70.74397
703.48        70.84226
703.90        71.01006
704.33        71.21506
704.75        71.39458
705.17        71.40144
705.59        71.21596
706.01        70.94203
706.44        70.70792
706.86        70.59846
707.28        70.70556
707.70        71.21236
708.12        71.93614
708.55        72.36016
708.97        72.40292
709.39        72.29855
709.81        72.12438
710.23         71.9464
710.66        71.82518
711.08        71.75206
711.50        71.73373
711.92        71.77802
712.34         71.8795
712.76        72.08325
713.19        72.35403
713.61        72.46185
714.03        72.70694
714.45        72.81165
714.87        72.89501
715.29        72.98037
715.71        73.07906
716.13        73.17698
716.56        73.25251
716.98        73.34756
717.40        73.43017
717.82        73.53678
718.24        73.67206
718.66        73.63435
719.08        73.74685
719.50        73.75197
719.92        73.74418
720.34        73.70982
720.76        73.65564
721.19        73.57973
721.61        73.51553
722.03        73.48682
722.45        73.52376
722.87         73.6087
723.29        73.72626
723.71         73.8374
724.13        73.93398
724.55        74.02464
724.97         74.1342
725.39         74.3057
725.81        74.53858
726.23        74.80273
726.65        75.05965
727.07        75.25499
727.49        75.37331
727.91        75.43361
728.33        75.44239
728.75          75.414
729.17        75.36792
729.59        75.29802
730.01        75.21711
730.43         75.2521
730.85         75.4314
731.27        75.52865
731.69        75.44917
732.10         76.1157
732.52        75.79743
732.94        75.87367
733.36        75.85896
733.78        75.83244
734.20        75.80885
734.62        75.81439
735.04        75.84848
735.46        75.87587
735.88        75.88715
736.30        75.83979
736.72        75.81377
737.13        75.98682
737.55        76.28468
737.97        76.68903
738.39        77.01269
738.81        76.82487
739.23         76.3074
739.65        76.04121
740.06        76.02372
740.48        76.54865
740.90        76.95458
741.32        76.06091
741.74        75.75908
742.16        75.47208
742.57        75.87781
742.99        76.25927
743.41         76.4858
743.83         76.7804
744.25        77.12412
744.67        76.56179
745.08        76.77597
745.50        76.54295
745.92        76.37875
746.34         76.1476
746.75        75.92175
747.17        75.80086
747.59        75.78798
748.01        75.99804
748.42        76.30466
748.84        76.26395
749.26        75.99114
749.68        75.91419
750.09         76.1172
750.51        76.71149
750.93        77.42033
751.35        77.34029
751.76        76.59151
752.18        76.19657
752.60         76.3442
753.01        76.28585
753.43        76.09259
753.85        76.07463
754.27        76.22405
754.68        76.68593
755.10        77.39534
755.52         76.9714
755.93        77.39753
756.35        77.16066
756.77        76.98108
757.18        76.85756
757.60        76.92423
758.02        77.34281
758.43        77.89009
758.85        78.05799
759.26        78.24119
759.68        77.54883
760.10        77.15878
760.51        77.00931
760.93        77.41679
761.34        76.09158
761.76        76.97377
762.18        76.73923
762.59        76.60941
763.01        76.51943
763.42        76.60511
763.84        76.95319
764.26        77.42128
764.67        77.61156
765.09        77.14977
765.50        77.54205
765.92        78.47643
766.33        78.81178
766.75        78.41151
767.16        77.98425
767.58        77.62148
768.00        77.14642
768.41        76.79411
768.83        76.96048
769.24        77.55379
769.66        78.25856
770.07        78.81043
770.49        78.70155
770.90        78.13622
771.32        78.24783
771.73        78.95789
772.15        79.08654
772.56        78.62043
772.97        78.30898
773.39        78.17641
773.80        77.93526
774.22        77.58468
774.63        77.24275
775.05         77.0129
775.46        77.06344
775.88        77.39153
776.29        77.98033
776.70        78.57682
777.12        78.79336
777.53        78.55199
777.95        77.92238
778.36        77.20275
778.77        76.90398
779.19        77.15431
779.60        77.86353
780.02        78.65266
780.43        79.12061
780.84        79.15826
781.26        78.40582
781.67         77.3814
782.09        78.11703
782.50        80.14577
782.91        80.48483
783.33         79.2031
783.74        78.88718
784.15        79.59293
784.57         79.8461
784.98        79.55091
785.39        79.11964
785.81        78.65689
786.22        78.40254
786.63        78.36204
787.04        78.27052
787.46        78.13798
787.87        78.12018
788.28        78.23339
788.70        78.56905
789.11        78.72379
789.52        79.08392
789.93        79.45715
790.35        79.53783
790.76        79.36921
791.17        79.36179
791.58        79.51142
792.00        79.35439
792.41        78.92226
792.82        78.74174
793.23        78.75653
793.65        78.33155
794.06        77.78952
794.47        77.99508
794.88        78.77709
795.29        80.08032
795.71        80.82461
796.12        80.06828
796.53        80.75457
796.94        79.88004
797.35        78.83016
797.76        78.45782
798.18        79.44418
798.59        79.69478
799.00        79.30961
799.41        79.26044
799.82        79.56198
800.23        79.71994
800.64        79.69804
801.06        79.60633
801.47        79.53181
801.88        79.55041
802.29        79.67249
802.70        79.82526
803.11        79.94582
803.52        79.95059
803.93        79.84261
804.34        79.69098
804.75        79.51611
805.17        79.39738
805.58        79.38567
805.99        79.18289
806.40        79.04211
806.81        79.53887
807.22        81.41718
807.63        81.64283
808.04        79.63846
808.45        79.22614
808.86        80.23668
809.27        81.10746
809.68        81.55341
810.09        81.89749
810.50        82.04105
810.91        81.89395
811.32         81.5568
811.73        81.12895
812.14        80.65978
812.55        80.30946
812.96        80.06874
813.37         79.5261
813.78        78.87955
814.19        79.01527
814.60         79.7547
815.01        80.09289
815.42        79.94663
815.83        79.81423
816.24         79.8009
816.65        79.85938
817.05        80.03503
817.46        80.29208
817.87        80.55085
818.28        80.64642
818.69        80.55989
819.10         80.3363
819.51        80.12849
819.92        80.23616
820.33        80.71815
820.74        81.37373
821.14         82.0287
821.55        82.56807
821.96        82.83257
822.37        82.49213
822.78        81.72173
823.19         81.2043
823.60        81.06914
824.00        81.02459
824.41          81.003
824.82        81.12762
825.23        81.36878
825.64        81.70255
826.04        82.06839
826.45        82.31414
826.86        82.41384
827.27        82.39281
827.68        82.27899
828.08         82.1655
828.49        82.02664
828.90        81.87086
829.31        81.73964
829.72        81.70252
830.12        81.78947
830.53        81.95705
830.94        82.13116
831.35        82.15575
831.75        82.02718
832.16        81.74361
832.57        81.43787
832.97        81.31931
833.38        81.41696
833.79         81.6607
834.20        81.94341
834.60        82.09206
835.01        82.07523
835.42         81.9568
835.82        81.77592
836.23        81.53696
836.64        81.29162
837.04        81.03053
837.45        80.82973
837.86         80.8623
838.26        81.16973
838.67        81.68102
839.08        82.22835
839.48        82.47305
839.89         82.3218
840.29        81.88731
840.70        81.43964
841.11        81.30442
841.51        81.57328
841.92        82.08601
842.33        82.72868
842.73        83.30764
843.14        83.63383
843.54        83.83658
843.95        83.84428
844.35        83.63268
844.76        83.24181
845.17         82.7067
845.57         82.1857
845.98        81.95505
846.38        82.07298
846.79         82.4688
847.19        83.06342
847.60        83.54236
848.00        83.85577
848.41        83.99587
848.81        84.07581
849.22        84.20066
849.62        84.43777
850.03        84.67458
850.43        84.87926
850.84        84.88222
851.24        84.73338
851.65        84.45659
852.05        84.17366
852.46        84.05485
852.86        84.16843
853.27         84.1682
853.67        84.07399
854.07        84.78413
854.48        85.91052
854.88        85.80798
855.29        84.57328
855.69        84.06709
856.10        84.36816
856.50        84.53216
856.90        84.39023
857.31        84.22355
857.71        84.09592
858.12        83.88407
858.52        83.71262
858.92        83.64838
859.33        83.68214
859.73         83.8467
860.13        84.07622
860.54        84.24502
860.94        84.37533
861.34        84.44728
861.75        84.41971
862.15        84.33977
862.55        84.18261
862.96          83.962
863.36        83.73439
863.76        83.55766
864.17        83.45119
864.57        83.42923
864.97         83.4849
865.38        83.57728
865.78        83.73841
866.18        83.89996
866.58        84.00386
866.99         83.9617
867.39        83.80381
867.79        83.52567
868.19        83.07874
868.60        82.36377
869.00        81.36931
869.40         80.1868
869.80        79.11607
870.21        78.64423
870.61        78.94152
871.01        79.80842
871.41        80.84804
871.81        81.42196
872.22        81.37155
872.62        80.88841
873.02        80.19721
873.42        79.81499
873.82        79.74804
874.22          79.511
874.63        79.19966
875.03         79.1346
875.43        79.32999
875.83         80.3964
876.23        80.33211
876.63        80.08701
877.03        79.31839
877.44        78.08218
877.84        120.0502
878.24        78.63847
878.64        79.43814
879.04        81.80601
879.44        79.28082
879.84        77.59007
880.24        80.16615
880.64        79.89026
881.04        77.45947
881.44        76.02715
881.84        76.13911
882.24        77.28172
882.65        78.76271
883.05        79.37416
883.45        78.72567
883.85         77.3998
884.25        76.08458
884.65        75.60888
885.05        76.16964
885.45        77.48139
885.85        78.96439
886.25        79.66016
886.65        79.31123
887.05         78.2472
887.45          77.003
887.85        76.37064
888.25        76.55064
888.65        77.28989
889.04        78.25877
889.44         78.8072
889.84        78.76997
890.24        78.35992
890.64        77.81209
891.04        77.46532
891.44        77.38703
891.84        77.39922
892.24        77.40732
892.64        77.27412
893.04        76.97179
893.44        76.65086
893.83        76.21718
894.23        75.54855
894.63        74.65945
895.03         73.5813
895.43        72.70098
895.83        72.67088
896.23        73.58408
896.63         75.2245
897.02         76.9935
897.42         77.7942
897.82        77.36387
898.22        76.05739
898.62        74.42833
899.01        73.33164
899.41        73.05422
899.81        73.30764
900.21        73.92637
900.61        74.66667
901.00         75.3938
901.40        76.16727
901.80        76.88138
902.20        77.31845
902.59        77.43958
902.99        77.26453
903.39        76.88029
903.79        76.47125
904.18        76.11252
904.58         75.8035
904.98        75.63835
905.38         75.7599
905.77        76.15326
906.17        76.78995
906.57        77.41461
906.96        77.64277
907.36        77.35907
907.76        76.66608
908.15        75.85609
908.55        75.35401
908.95        75.29047
909.34        75.57925
909.74        75.93429
910.14        75.85484
910.53        75.22802
910.93        74.29778
911.33        73.45545
911.72        73.32091
912.12        73.97921
912.52        75.13094
912.91        76.40265
913.31        77.14732
913.70         77.2433
914.10        76.87464
914.49        76.14436
914.89        75.34133
915.29        74.65585
915.68         74.0561
916.08        73.72296
916.47        73.87482
916.87        74.46906
917.26        75.39968
917.66        76.41651
918.05        77.13744
918.45         77.4036
918.84        77.36615
919.24          76.976
919.64        76.18606
920.03        75.10002
920.42        73.79137
920.82        72.73524
921.21        72.61149
921.61        73.46098
922.00        75.09811
922.40        76.88066
922.79        77.97062
923.19        78.08006
923.58        77.28972
923.98         75.8542
924.37         74.7922
924.77        74.60031
925.16        72.33537
925.55        73.05423
925.95         72.7833
926.34        73.04538
926.74         73.6503
927.13        74.52183
927.52        75.36076
927.92        76.03883
928.31        76.66279
928.70        77.10641
929.10        77.20766
929.49        76.95765
929.89        76.38055
930.28        75.75843
930.67        75.55506
931.07        75.84493
931.46        76.55655
931.85        77.34937
932.24        77.70561
932.64        77.49383
933.03        76.79615
933.42        75.87785
933.82        75.30832
934.21        75.23959
934.60        75.52272
934.99        75.71276
935.39        75.41119
935.78        74.56512
936.17        72.86206
936.56        70.54032
936.96        71.21446
937.35         70.7104
937.74        72.27617
938.13        73.89008
938.53         74.9153
938.92        75.28424
939.31        75.22057
939.70        74.99226
940.09        74.96767
940.49         75.2942
940.88        75.85453
941.27        76.49438
941.66        77.05078
942.05        77.46148
942.44        77.73486
942.84        77.98011
943.23        78.40266
943.62        78.99776
944.01        79.72958
944.40        80.23701
944.79        79.95058
945.18        78.77046
945.57         76.8217
945.97        74.78864
946.36        73.89513
946.75        74.51386
947.14        76.22744
947.53        78.12829
947.92        78.96156
948.31        78.49975
948.70        77.13474
949.09        75.46716
949.48        74.54308
949.87        74.69434
950.26        75.58203
950.65        76.77122
951.04        77.55527
951.43        77.69347
951.82        77.41528
952.21        76.94788
952.60        76.63381
952.99        76.57766
953.38        76.63328
953.77        76.68478
954.16        76.58017
954.55        76.28394
954.94        75.89166
955.33        75.48221
955.72        75.14947
956.11        74.94471
956.50        74.85229
956.89        74.87523
957.28        75.02077
957.66        75.26674
958.05        75.50674
958.44        75.72937
958.83        75.91978
959.22        76.05618
959.61        76.15255
960.00        76.05056
960.39        75.49533
960.78        74.49857
961.16        73.16937
961.55        71.94421
961.94         71.3491
962.33        71.49741
962.72        72.25202
963.11        73.26508
963.49        73.93565
963.88         73.9805
964.27        73.58428
964.66        73.01949
965.04        72.76241
965.43        72.92727
965.82         73.3603
966.21        73.83781
966.60        74.00311
966.98        73.80208
967.37          73.388
967.76        72.98615
968.15        72.92021
968.53        73.27643
968.92        73.80656
969.31        74.44698
969.69        75.09406
970.08         75.5929
970.47        76.02404
970.86        76.10516
971.24        75.34792
971.63        73.78751
972.02        71.61298
972.40        69.44709
972.79        68.38063
973.17        68.74182
973.56        70.14241
973.95        72.12656
974.33        73.81728
974.72        74.72971
975.11        75.11704
975.49        74.94522
975.88        74.17589
976.26        72.94234
976.65        71.29168
977.04        69.63598
977.42        68.73502
977.81        68.80914
978.19        69.67755
978.58         71.0593
978.96        72.44756
979.35        73.52357
979.74        74.47693
980.12        75.14721
980.51        75.03687
980.89        74.25443
981.28        72.86808
981.66        71.50145
982.05        71.08012
982.43        71.69825
982.82        73.09763
983.20        74.74101
983.59        75.32914
983.97        74.60262
984.35        72.85596
984.74        70.80632
985.12           69.48
985.51        69.16927
985.89        69.60041
986.28        70.37617
986.66        70.80714
987.04        70.54993
987.43        69.95087
987.81        69.16425
988.20        68.34776
988.58         67.4746
988.96        66.35509
989.35        65.09864
989.73        64.31113
990.12        64.29789
990.50        65.07377
990.88        66.03447
991.27        66.42791
991.65        66.29583
992.03        65.80473
992.42        65.47574
992.80        66.25293
993.18        68.28439
993.56        70.99153
993.95        73.60304
994.33        75.47975
994.71        76.31622
995.10        76.33701
995.48        75.77732
995.86        74.91411
996.24        73.90191
996.63        72.70999
997.01        71.33454
997.39        69.96375
997.77        68.85008
998.15        68.05275
998.54         67.8053
998.92        68.28722
999.30         69.5201
999.68         71.7069
1000.06        74.07651
1000.45        74.12419
1000.83        71.19604
1001.21        66.60583
1001.59        62.57543
1001.97        60.80454
1002.35        61.12605
1002.73        63.02584
1003.12        65.71569
1003.50         67.3777
1003.88        66.99379
1004.26        65.20006
1004.64        62.82127
1005.02        60.98387
1005.40        60.06265
1005.78        59.69085
1006.16        59.99154
1006.54         61.1795
1006.92        62.89184
1007.30         64.7395
1007.69        66.28943
1008.07        67.32236
1008.45        67.84341
1008.83        68.07274
1009.21        67.48838
1009.59        64.94633
1009.97        60.16134
1010.35        53.71169
1010.73        48.82985
1011.11        48.92693
1011.49        53.60885
1011.86        61.59646
1012.24        68.80946
1012.62         71.0034
1013.00        67.97802
1013.38         61.3827
1013.76        53.81807
1014.14         49.9207
1014.52        51.05459
1014.90        55.71234
1015.28         61.7549
1015.66         65.6483
1016.04        66.10731
1016.41        64.10099
1016.79        60.06271
1017.17        55.77456
1017.55        52.72415
1017.93        50.51188
1018.31        49.36452
1018.69        49.50993
1019.06        50.64399
1019.44        52.58997
1019.82        54.71101
1020.20         55.1498
1020.58        53.18953
1020.95        49.50097
1021.33        44.68398
1021.71        38.62214
1022.09        30.35531
1022.46        16.14459
1022.84         -3.1751
1023.22       -5.441723
1023.60         17.7507
1023.97        41.59192
1024.35        54.99156
1024.73        60.22257
