SpectraSmart Spectrum 2.9.0.0
--------- Device Information -----------
Spectrum Name :  反射率_0
Saving Time :  2024/04/19 23:50:36
Spectro-Module Model Name : SE2030-DUVN
Spectro-Module Serial Number : OS361AC55029948
Wavelength Start : 200
Wavelength End : 1025
Wavelength Unit : Wavelength(nm)
Spectrum Unit : Reflectance(%)
-----------Spectrum Setting ------------
Integration Time : 30ms
Average : 10
Boxcar : 0
Background removal :  enabled
linearity correction :  enabled
SC :  disabled
Intensity correction :  disabled
DWT denoise :  enabled
savitzky-golay :  disabled
FFT :  disabled
Running average :  disabled
Kalman :  disabled
High pass :  disabled
---------------BEGIN--------------------
Wavelength(nm)             Reflectance(%)
200.29               0
200.75        71.93678
201.21        73.59425
201.67        77.69251
202.13        84.08318
202.58        92.35091
203.04        102.6217
203.50         111.381
203.96        110.9583
204.42        102.2378
204.88        90.85227
205.34         81.4491
205.80        75.97659
206.26        73.35416
206.72        72.27891
207.18        72.94193
207.64        75.50355
208.10        79.11421
208.55        83.59506
209.01        85.90336
209.47        84.52164
209.93        80.34476
210.39         74.3181
210.85        68.77834
211.31        66.35056
211.77        67.29456
212.23        71.32352
212.69        77.41817
213.14        80.67431
213.60         78.5259
214.06        74.50893
214.52        71.34965
214.98        70.66556
215.44        72.18824
215.90        74.97623
216.36        79.04847
216.81        83.83112
217.27        88.17895
217.73        92.29182
218.19        94.78949
218.65        93.85294
219.11        89.47058
219.57        81.68382
220.02        72.99299
220.48        70.11616
220.94        75.20284
221.40        86.76772
221.86        100.1591
222.32        108.2376
222.77        109.1718
223.23        105.3548
223.69        99.75413
224.15         96.7097
224.61        97.04064
225.06        98.93672
225.52        101.1103
225.98        102.3421
226.44        102.5758
226.90        102.2914
227.36        102.1977
227.81        103.1778
228.27        105.4191
228.73        108.1188
229.19        110.0984
229.65        110.0769
230.10        108.1721
230.56        105.4411
231.02        102.7972
231.48        101.4823
231.93        101.4961
232.39        102.3373
232.85        103.4395
233.31        104.0564
233.77        103.9199
234.22        103.3278
234.68        102.1618
235.14        100.1655
235.60        97.51999
236.05        94.41399
236.51        91.49016
236.97        89.64624
237.43        89.05377
237.88        89.80832
238.34        91.36077
238.80        92.76817
239.26         93.1291
239.71        92.58267
240.17        90.94849
240.63        88.61903
241.08        85.89976
241.54        82.67332
242.00        79.11721
242.46        75.29742
242.91        71.00925
243.37        65.31896
243.83        58.94162
244.28        56.77379
244.74         62.7453
245.20        75.27644
245.66        86.29305
246.11        89.49944
246.57        84.23892
247.03        70.10271
247.48        49.57166
247.94        40.61517
248.40        47.76935
248.85         59.1546
249.31        67.81921
249.77        71.62979
250.22        71.72258
250.68        69.52729
251.14        66.19566
251.59        64.24387
252.05        65.24572
252.51        68.72661
252.96        72.61952
253.42        73.52816
253.88        71.05162
254.33        66.96541
254.79        64.63529
255.25        67.05582
255.70        73.58019
256.16        82.00961
256.62        89.78625
257.07        94.14177
257.53        95.16304
257.99        94.03156
258.44        91.31268
258.90        88.67441
259.35        86.30069
259.81        84.76891
260.27        83.69922
260.72        82.81683
261.18        82.35526
261.63        81.78093
262.09        81.64248
262.55        81.99712
263.00        82.57401
263.46        83.43418
263.91        83.73124
264.37        82.96239
264.83        81.14024
265.28        78.53835
265.74        76.17107
266.19        74.85809
266.65        74.82101
267.11        75.53329
267.56        76.36977
268.02        76.48209
268.47        75.66866
268.93        74.27281
269.38        72.56753
269.84         71.2087
270.30        70.37938
270.75        69.86797
271.21        69.55164
271.66        69.21803
272.12        68.77022
272.57        68.23949
273.03          67.627
273.48         66.7971
273.94         65.8349
274.39        64.75865
274.85        63.66661
275.31        62.59931
275.76        61.55113
276.22        60.53512
276.67        59.63074
277.13        59.13159
277.58        58.93411
278.04        58.99633
278.49        58.88595
278.95         58.1335
279.40        56.64581
279.86        54.76517
280.31        52.82098
280.77        51.49626
281.22        50.81288
281.68        50.60174
282.13        50.57133
282.59        50.38556
283.04        49.90656
283.50        49.30215
283.95        48.58801
284.41        47.87012
284.86        47.14095
285.32        46.39735
285.77        45.66048
286.22         45.0752
286.68        44.66999
287.13        44.38549
287.59        44.13563
288.04        43.71028
288.50        43.10467
288.95        42.32687
289.41        41.53368
289.86        40.88006
290.32         40.4566
290.77        40.19094
291.22        39.98808
291.68        39.66991
292.13        39.20131
292.59        38.67313
293.04        38.21727
293.50         38.0654
293.95        38.24158
294.40        38.65305
294.86        39.14961
295.31        39.50734
295.77        39.66094
296.22        39.66944
296.68        39.60436
297.13         39.5661
297.58         39.6036
298.04        39.69354
298.49        39.81553
298.95        39.98445
299.40        40.17634
299.85        40.39244
300.31         40.6285
300.76        40.85874
301.21        41.07235
301.67        41.29654
302.12        41.45955
302.58         41.5299
303.03        41.48438
303.48        41.36222
303.94         41.2807
304.39        41.37609
304.84        41.67553
305.30        42.11384
305.75        42.54134
306.20        42.75665
306.66        42.73491
307.11        42.52803
307.57        42.24621
308.02        41.97467
308.47         41.7771
308.93        41.61982
309.38        41.50658
309.83        41.49947
310.29        41.58368
310.74        41.73902
311.19        41.85727
311.65        41.75969
312.10        41.41467
312.55        40.88451
313.00        40.30436
313.46        39.88377
313.91        39.65984
314.36        39.58531
314.82        39.57737
315.27        39.52547
315.72         39.3798
316.18        39.18835
316.63        38.96799
317.08        38.75188
317.53        38.54945
317.99        38.33443
318.44        38.11092
318.89        37.88268
319.35        37.65208
319.80        37.42595
320.25        37.20008
320.70        36.96487
321.16        36.71537
321.61        36.46073
322.06        36.20501
322.51        35.95978
322.97        35.71944
323.42        35.48212
323.87        35.23851
324.32        34.98083
324.78        34.70197
325.23        34.42274
325.68        34.12601
326.13        33.78842
326.59        33.41819
327.04        33.05278
327.49        32.74543
327.94          32.585
328.39        32.58554
328.85        32.69505
329.30        32.89106
329.75        33.07724
330.20        33.20198
330.66        33.25495
331.11        33.22668
331.56        33.05365
332.01        32.73676
332.46        32.29452
332.92        31.80047
333.37        31.39802
333.82        31.14091
334.27        31.02372
334.72        31.01239
335.17        31.03204
335.63        31.04074
336.08        31.05754
336.53        31.10123
336.98        31.21766
337.43        31.40414
337.88        31.63916
338.34        31.80303
338.79        31.75674
339.24        31.46441
339.69        30.97222
340.14        30.47897
340.59        30.31462
341.05        30.53703
341.50        31.05203
341.95        31.62141
342.40        31.87424
342.85         31.7288
343.30        31.30968
343.75        30.79583
344.20        30.48227
344.66        30.44802
345.11        30.56734
345.56        30.75891
346.01        30.89242
346.46        30.91274
346.91        30.88496
347.36        30.76274
347.81        30.45953
348.26        29.99696
348.72        29.43084
349.17        28.89718
349.62        28.70189
350.07        28.90308
350.52        29.38906
350.97        29.98132
351.42        30.41073
351.87        30.58962
352.32        30.58119
352.77        30.41857
353.22        30.16215
353.67        29.85681
354.13        29.50969
354.58         29.1433
355.03        28.83834
355.48        28.62208
355.93         28.4924
356.38        28.45109
356.83        28.48573
357.28         28.5712
357.73        28.68931
358.18        28.78267
358.63        28.76204
359.08        28.60674
359.53        28.34697
359.98        28.01906
360.43        27.68126
360.88         27.3635
361.33        27.05859
361.78        26.80279
362.23        26.65298
362.68         26.6085
363.13        26.64237
363.58        26.68858
364.03         26.6418
364.48        26.47042
364.93        26.19954
365.38        25.85176
365.83        25.47629
366.28        25.10679
366.73        24.74128
367.18        24.41305
367.63        24.16998
368.08        24.01674
368.53        23.94224
368.98        23.90834
369.43        23.84622
369.88        23.73904
370.33        23.60998
370.78        23.46658
371.23        23.32886
371.68        23.20705
372.13        23.07948
372.58         22.9856
373.03        22.99517
373.48        23.10343
373.93        23.28051
374.38        23.41593
374.83        23.34053
375.28        23.02833
375.72        22.52826
376.17        21.98422
376.62         21.5909
377.07        21.41188
377.52        21.39335
377.97        21.46404
378.42        21.50808
378.87        21.48552
379.32        21.42963
379.77        21.36367
380.22        21.31815
380.67        21.29979
381.11        21.29294
381.56        21.26299
382.01        21.18068
382.46        21.03884
382.91        20.84475
383.36        20.64583
383.81        20.50879
384.26        20.44716
384.71        20.45471
385.15        20.45524
385.60        20.33632
386.05        20.08352
386.50        19.73288
386.95        19.41019
387.40        19.31269
387.85        19.46532
388.29        19.78754
388.74        20.11949
389.19        20.22832
389.64         20.0704
390.09        19.71465
390.54        19.29969
390.98        19.04202
391.43         19.0145
391.88        19.13504
392.33        19.28215
392.78        19.28159
393.23        19.10889
393.67        18.82263
394.12         18.5551
394.57        18.42075
395.02        18.44345
395.47        18.57734
395.91        18.74882
396.36        18.81148
396.81         18.7329
397.26        18.55339
397.71         18.3571
398.15        18.25259
398.60        18.28351
399.05        18.40035
399.50        18.51988
399.95        18.52435
400.39        18.39066
400.84        18.15116
401.29        17.89933
401.74        17.80511
402.18        17.91423
402.63        18.16083
403.08        18.41326
403.53        18.46309
403.97        18.26896
404.42        17.91225
404.87         17.5236
405.32        17.31642
405.76        17.34427
406.21        17.53698
406.66        17.79151
407.11        17.94726
407.55        17.96036
408.00        17.88449
408.45        17.77339
408.90        17.67216
409.34        17.62464
409.79         17.6888
410.24        17.80534
410.68        17.81356
411.13        17.70324
411.58        17.56266
412.03        17.42661
412.47        17.32904
412.92         17.2853
413.37        17.27635
413.81        17.30879
414.26        17.40615
414.71        17.55434
415.15        17.75477
415.60        17.91776
416.05        17.92321
416.49          17.748
416.94        17.43464
417.39        17.09354
417.83        16.90575
418.28        16.92043
418.73        17.07514
419.17        17.27892
419.62        17.37658
420.07        17.33201
420.51         17.1978
420.96        17.02745
421.41        16.88316
421.85        16.78575
422.30         16.7255
422.74        16.69971
423.19        16.73632
423.64        16.82392
424.08        16.96483
424.53        17.10755
424.98        17.18596
425.42        17.18227
425.87        17.11519
426.31         17.0066
426.76        16.90262
427.21        16.81011
427.65        16.71037
428.10        16.63695
428.54        16.62135
428.99        16.67037
429.44        16.84803
429.88        17.04404
430.33        16.97071
430.77        16.68018
431.22         16.5157
431.66        16.52678
432.11        16.59876
432.56        16.70981
433.00         16.9349
433.45         17.1117
433.89        17.01346
434.34        16.75765
434.78        16.50731
435.23        16.24328
435.67        17.04395
436.12        16.52227
436.57        16.45548
437.01        16.21093
437.46        16.10497
437.90        16.15351
438.35        16.21371
438.79        16.24665
439.24        16.26362
439.68        16.25326
440.13        16.08195
440.57        15.84854
441.02         15.9663
441.46        16.28633
441.91        16.30801
442.35        15.65342
442.80        15.41974
443.24        15.44825
443.69        15.39754
444.13        15.25823
444.58        15.18986
445.02        15.20161
445.47        15.29073
445.91        15.40514
446.36        15.42575
446.80        15.32926
447.24        15.16826
447.69        15.00315
448.13        14.89349
448.58        14.86436
449.02        14.89497
449.47        14.93982
449.91        14.91892
450.36        14.82284
450.80        14.67856
451.25        14.54588
451.69        14.49948
452.13        14.55769
452.58         14.6809
453.02        14.82559
453.47        14.92626
453.91        14.96392
454.36        14.95838
454.80        14.91373
455.24        14.83799
455.69        14.74947
456.13        14.63191
456.58        14.53012
457.02         14.5022
457.46        14.55298
457.91        14.63319
458.35        14.70689
458.79        14.75257
459.24        14.75677
459.68        14.72887
460.13        14.73382
460.57         14.7315
461.01        14.71496
461.46         15.0703
461.90        15.19378
462.34        15.06628
462.79        15.18279
463.23        15.04421
463.68        14.90482
464.12        14.78054
464.56        14.81088
465.01        14.88259
465.45        14.95988
465.89        15.00341
466.34         15.0064
466.78        14.93252
467.22        14.83105
467.67        14.88665
468.11        15.06541
468.55        15.06972
468.99         14.9156
469.44        14.87385
469.88        14.95584
470.32        15.00866
470.77        15.01304
471.21        15.01657
471.65        15.01639
472.10        14.99982
472.54        14.98028
472.98        15.01301
473.42        15.10015
473.87        15.18125
474.31        15.23415
474.75        15.31723
475.20        15.39281
475.64        15.30423
476.08        15.11802
476.52        15.06927
476.97        15.17496
477.41        15.33287
477.85         15.4763
478.29        15.54146
478.74        15.50928
479.18        15.37389
479.62        15.22303
480.06        15.19601
480.50        15.29795
480.95        15.41553
481.39        15.49153
481.83        15.51431
482.27        15.46932
482.72        15.35596
483.16        15.23071
483.60        15.18206
484.04        15.22234
484.48        15.40833
484.93        15.72362
485.37        15.79979
485.81        15.75766
486.25        16.18577
486.69         16.3561
487.14        16.09534
487.58        16.08057
488.02         16.6809
488.46        16.16434
488.90        16.11829
489.34        16.02455
489.79        16.18482
490.23        16.50222
490.67        16.61934
491.11        16.52798
491.55        16.42449
491.99        16.35246
492.43        16.28912
492.88        16.25916
493.32        16.26479
493.76        16.31576
494.20        16.42556
494.64        16.59087
495.08        16.80121
495.52        17.01765
495.96        17.19217
496.41        17.31245
496.85        17.35637
497.29        17.35758
497.73        17.45656
498.17        17.64015
498.61        17.71477
499.05        17.69369
499.49        17.77862
499.93        17.97939
500.37        18.14062
500.82        18.25159
501.26        18.44577
501.70        18.67235
502.14        18.68626
502.58        18.52958
503.02        18.48087
503.46        18.56334
503.90        18.63537
504.34        18.67024
504.78        18.68629
505.22        18.67834
505.66        18.65064
506.10        18.62638
506.54        18.63848
506.98        18.69644
507.42        18.79117
507.86        18.90857
508.30        19.02519
508.74        19.12861
509.18        19.21864
509.62         19.2977
510.06        19.37004
510.50        19.43838
510.94        19.50583
511.38        19.55593
511.82        19.56436
512.26         19.5297
512.70        19.45598
513.14        19.39207
513.58        19.41047
514.02        19.51519
514.46        19.68818
514.90        19.85319
515.34        19.83065
515.78        19.62506
516.22        19.35985
516.66        19.15699
517.10        18.85924
517.54        18.50046
517.98        19.20828
518.42        19.21498
518.86        19.53038
519.30        19.60575
519.74        19.63317
520.18        19.62427
520.62        19.57612
521.06        19.51964
521.50        19.43655
521.93        19.33899
522.37        19.25819
522.81        19.20176
523.25        19.17108
523.69        19.16152
524.13        19.16078
524.57        19.16168
525.01        19.16181
525.45        19.16095
525.89        19.15903
526.32        19.15374
526.76        19.14738
527.20        19.12357
527.64        19.06154
528.08         18.9603
528.52        18.82398
528.96        18.69231
529.40        18.62468
529.83         18.6301
530.27        18.69779
530.71        18.76616
531.15        18.73753
531.59         18.5976
532.03        18.38046
532.46        18.16373
532.90        18.08543
533.34        18.16317
533.78        18.34562
534.22        18.55251
534.66        18.66116
535.09        18.63689
535.53        18.52759
535.97        18.37319
536.41        18.23428
536.85        18.13679
537.28        18.07085
537.72         18.0477
538.16        18.02975
538.60        18.10131
539.04        18.18443
539.47        18.27278
539.91        18.36084
540.35        18.45162
540.79        18.38842
541.22        18.42992
541.66        18.47908
542.10         18.6282
542.54        18.56483
542.97        18.76322
543.41        18.85182
543.85        18.95807
544.29        19.04469
544.72        19.10027
545.16        19.16132
545.60        19.22604
546.04         19.2255
546.47        19.21936
546.91        19.42406
547.35        19.78816
547.79          20.054
548.22        20.17467
548.66        20.21351
549.10        20.20737
549.53         20.3009
549.97        20.51399
550.41        20.50622
550.84        20.66282
551.28        20.77331
551.72        20.96164
552.15        21.17221
552.59        21.39764
553.03        21.64016
553.46        21.85376
553.90        21.98965
554.34        22.04005
554.77        22.02174
555.21        21.98425
555.65        21.99641
556.08        22.07385
556.52         22.1953
556.96        22.33561
557.39        22.48356
557.83        22.61811
558.27        22.68865
558.70        22.70635
559.14        22.73351
559.57        22.77012
560.01        22.81262
560.45        22.84272
560.88        22.80471
561.32        22.74791
561.75        22.73953
562.19        22.86957
562.63        22.95117
563.06        23.00223
563.50        23.08203
563.93        23.17963
564.37        23.31994
564.80        23.38996
565.24        23.48628
565.68        23.56201
566.11        23.62667
566.55        23.69897
566.98         23.7329
567.42        23.73232
567.85        24.00288
568.29        23.92988
568.72         24.2384
569.16        24.66127
569.60        24.94787
570.03        25.06024
570.47           25.14
570.90        25.09454
571.34        25.42272
571.77        25.32353
572.21        25.56262
572.64        25.72778
573.08        25.86578
573.51        26.09327
573.95        26.40579
574.38        26.53971
574.82        26.69734
575.25        26.78392
575.69        26.69737
576.12        26.71054
576.56        26.67227
576.99        26.69422
577.42           26.78
577.86        26.77654
578.29        26.82538
578.73        27.24862
579.16        26.97792
579.60        26.91322
580.03        26.61589
580.47        26.61841
580.90        26.43673
581.33        26.25699
581.77        26.43929
582.20        26.46312
582.64        26.33988
583.07        25.96012
583.51        26.02407
583.94        25.75339
584.37        25.68785
584.81        25.37232
585.24        25.25595
585.68        25.26287
586.11        25.13113
586.54        25.12742
586.98        24.93909
587.41        25.05241
587.85        25.00253
588.28        24.89986
588.71        24.79282
589.15        24.73722
589.58        24.39098
590.01        24.65911
590.45         24.7366
590.88        24.64351
591.31        24.63388
591.75        24.38248
592.18        24.50702
592.61        24.35101
593.05        24.67508
593.48         24.4524
593.91        25.05296
594.35        24.70535
594.78        24.89401
595.21        25.23607
595.65        25.46627
596.08        25.43569
596.51        25.44246
596.94        25.53268
597.38        25.57996
597.81        25.62491
598.24         25.9804
598.68        26.47593
599.11        26.46524
599.54        27.26998
599.97        27.11589
600.41        27.36039
600.84         27.9791
601.27        28.27945
601.70        28.72324
602.14        29.00171
602.57        29.40583
603.00        29.91489
603.43        30.32493
603.87        30.64943
604.30        31.07803
604.73        31.62648
605.16        31.98631
605.60        32.35086
606.03        32.94096
606.46        33.70285
606.89        34.15385
607.32        34.56517
607.76        34.98671
608.19         35.2365
608.62        35.68512
609.05        36.02253
609.48        36.13699
609.92        36.52802
610.35        36.82236
610.78        37.54445
611.21          38.328
611.64        38.25445
612.07        38.61677
612.50        39.00459
612.94        39.14487
613.37        39.66488
613.80        40.06084
614.23        40.48167
614.66        40.94105
615.09        41.06268
615.52        41.49736
615.96        42.04174
616.39        42.40564
616.82        42.61619
617.25        42.60657
617.68        42.95822
618.11        43.32593
618.54        43.78382
618.97        43.94048
619.40         43.7907
619.84        44.00632
620.27        43.77124
620.70         44.1895
621.13          44.864
621.56        45.26143
621.99        45.39574
622.42        45.34005
622.85        45.23801
623.28        45.33079
623.71        45.60141
624.14        45.72994
624.57        45.43314
625.00        45.40602
625.43        45.54701
625.86        44.94159
626.29        44.93793
626.72        44.78274
627.15         44.6076
627.58        44.56197
628.01        44.51598
628.44        44.35469
628.87        44.03349
629.30        43.64353
629.73        43.24195
630.16        42.71925
630.59        42.41241
631.02         42.0487
631.45        41.68807
631.88        41.26946
632.31        40.78057
632.74         40.2374
633.17        39.66776
633.60        39.12356
634.03        38.61994
634.46        38.14472
634.89        37.67517
635.32        37.17318
635.75        36.63471
636.18        36.08251
636.61        35.53962
637.04        35.03635
637.47        34.57903
637.89         34.1557
638.32        33.75801
638.75        33.39344
639.18        33.06139
639.61        32.76685
640.04        32.48457
640.47        32.16956
640.90        31.81715
641.33        31.44276
641.76        31.09327
642.18        30.84935
642.61        30.72413
643.04        30.69433
643.47        30.71718
643.90        30.72049
644.33        30.68384
644.76        30.63181
645.18        30.58503
645.61        30.58095
646.04        30.63289
646.47        30.72723
646.90         30.8714
647.33         31.0797
647.75        31.35227
648.18        31.68365
648.61         32.0496
649.04         32.4126
649.47        32.77055
649.89        33.11536
650.32        33.48011
650.75        33.98666
651.18        34.63477
651.61        35.21524
652.03        35.73986
652.46        36.56841
652.89        37.63591
653.32        38.19931
653.74        38.30682
654.17        39.21653
654.60        39.78931
655.03        40.76275
655.46        40.97303
655.88        42.20949
656.31        43.54762
656.74        47.59055
657.16        47.69611
657.59        46.34919
658.02        45.87529
658.45        46.24537
658.87        46.80396
659.30        47.89856
659.73        48.69301
660.15        49.65624
660.58        49.57137
661.01        49.60716
661.44        49.68308
661.86        50.12702
662.29        50.92875
662.72        51.80576
663.14        52.59886
663.57        52.97609
664.00        53.02191
664.42        53.26189
664.85        53.75708
665.27        54.13782
665.70        54.38325
666.13        54.67989
666.55        55.03538
666.98        55.39354
667.41        55.73584
667.83        56.02058
668.26        56.23121
668.69        56.39761
669.11        56.53793
669.54        56.67664
669.96        56.82916
670.39        56.98241
670.82        57.16024
671.24        57.38421
671.67        57.64897
672.09        57.97354
672.52        58.29336
672.94        58.43922
673.37         58.4279
673.80        58.39217
674.22        58.40935
674.65        58.49401
675.07         58.6776
675.50        58.97458
675.92        59.30466
676.35        59.47509
676.77        59.45995
677.20        59.32834
677.62        59.16973
678.05        59.13343
678.47        59.25204
678.90        59.47766
679.32         59.7654
679.75        60.02962
680.17        60.23208
680.60        60.45417
681.02        60.67653
681.45        60.70086
681.87          60.611
682.30        60.75005
682.72        61.08022
683.15         61.2222
683.57        61.17038
684.00        61.07035
684.42        61.11574
684.85        61.21227
685.27        61.40635
685.70        61.68789
686.12        61.98317
686.54        62.19465
686.97        62.29012
687.39        62.30064
687.82        62.25686
688.24        62.24569
688.66         62.2831
689.09        62.33163
689.51         62.3954
689.94        62.46941
690.36        62.56754
690.78        62.66327
691.21        62.74165
691.63        62.90374
692.06        63.16913
692.48        63.12499
692.90        63.22781
693.33        63.65595
693.75        63.46734
694.17        63.65972
694.60        63.86951
695.02        63.81727
695.44        63.53866
695.87         63.5968
696.29        63.93564
696.71        63.84884
697.14        63.53443
697.56        63.83702
697.98        64.52474
698.41        65.52702
698.83        64.94122
699.25         64.7868
699.68        64.66695
700.10        64.64534
700.52        64.77007
700.94        65.04423
701.37        65.36931
701.79        65.59761
702.21        65.66187
702.64        65.60387
703.06        65.51344
703.48        65.54448
703.90        65.73394
704.33        66.02914
704.75        66.32483
705.17        66.41985
705.59        66.27788
706.01        65.97111
706.44        65.66913
706.86        65.64021
707.28        65.92958
707.70        66.43218
708.12        66.98851
708.55        67.34779
708.97        67.44139
709.39        67.35813
709.81        67.16251
710.23        66.97022
710.66        66.84171
711.08        66.75113
711.50        66.71916
711.92        66.79556
712.34         66.9822
712.76        67.27761
713.19        67.60225
713.61        67.86663
714.03        68.00896
714.45        68.05166
714.87        68.05566
715.29        68.12553
715.71        68.28561
716.13        68.50082
716.56        68.70666
716.98        68.87518
717.40        68.95908
717.82        68.98228
718.24        68.97209
718.66        68.96983
719.08        68.98969
719.50        69.01637
719.92        69.04183
720.34        69.05305
720.76         69.0472
721.19        69.03204
721.61        69.02204
722.03        69.00066
722.45        68.99249
722.87        68.98994
723.29         69.0146
723.71        69.09104
724.13        69.22498
724.55         69.4071
724.97        69.62526
725.39        69.85352
725.81        70.06595
726.23        70.28225
726.65        70.49857
727.07        70.62695
727.49        70.64224
727.91        70.91377
728.33         70.8001
728.75        70.82914
729.17         70.8221
729.59         70.8119
730.01        70.79525
730.43        70.79303
730.85         70.8222
731.27        70.81692
731.69        70.81669
732.10        71.04881
732.52        71.43535
732.94        71.62717
733.36        71.58959
733.78        71.58755
734.20        71.65344
734.62        71.55032
735.04        71.27335
735.46        71.29916
735.88        71.35612
736.30        70.89364
736.72        71.11179
737.13        71.29694
737.55        71.69852
737.97        72.04437
738.39        72.22385
738.81        72.11134
739.23        71.80457
739.65         71.6627
740.06        71.68449
740.48        71.82513
740.90        72.03882
741.32        71.63802
741.74        71.65215
742.16        71.71036
742.57        71.74272
742.99        71.84085
743.41        71.89324
743.83        71.97044
744.25        72.05149
744.67        72.12472
745.08        72.16982
745.50        72.11091
745.92        71.95908
746.34         71.7367
746.75        71.52038
747.17        71.42757
747.59        71.48715
748.01        71.68471
748.42        71.94746
748.84        72.12344
749.26        72.20026
749.68        72.15585
750.09        72.06757
750.51        72.23948
750.93        72.56537
751.35        72.52718
751.76        72.19055
752.18        71.93816
752.60        72.05379
753.01        72.20351
753.43        72.10291
753.85        72.16972
754.27        72.29969
754.68        72.49327
755.10        72.68081
755.52        72.70827
755.93        72.59777
756.35        72.53799
756.77        72.57284
757.18        72.63245
757.60        72.76291
758.02        72.96092
758.43        73.13055
758.85        73.31358
759.26        73.60787
759.68        72.99966
760.10        73.18327
760.51        73.02103
760.93        72.99155
761.34         73.0166
761.76        72.94605
762.18        72.72948
762.59        72.45247
763.01        72.34334
763.42         72.5051
763.84        72.99698
764.26        73.63901
764.67        73.57805
765.09        73.05862
765.50        73.20667
765.92        73.96861
766.33        74.43059
766.75        74.38866
767.16        74.06722
767.58        73.55296
768.00         73.1385
768.41        73.02722
768.83        73.22501
769.24        73.65303
769.66        74.21056
770.07        74.68305
770.49        74.64104
770.90         74.2255
771.32        74.23711
771.73        74.63415
772.15        74.66771
772.56        74.35425
772.97        74.04979
773.39        73.82667
773.80        73.93982
774.22         74.2292
774.63        73.96703
775.05        73.29334
775.46        73.14278
775.88        73.55682
776.29        74.06567
776.70        74.45036
777.12        74.60665
777.53        74.48138
777.95        74.07641
778.36        73.60382
778.77        73.43504
779.19        73.66138
779.60        74.22739
780.02        74.84949
780.43        75.25763
780.84         75.3715
781.26        74.85242
781.67        74.08822
782.09        74.74318
782.50        76.38831
782.91        76.46389
783.33        75.09964
783.74        74.65434
784.15        75.21172
784.57        75.51849
784.98        75.42624
785.39        75.05566
785.81        74.53057
786.22        74.37794
786.63        74.60005
787.04        74.69461
787.46        74.65998
787.87        74.81509
788.28        75.12456
788.70        75.34812
789.11        75.44609
789.52        75.47313
789.93         75.4659
790.35        75.49297
790.76        75.53636
791.17        75.56043
791.58        75.57755
792.00        75.40482
792.41        75.02437
792.82        75.46223
793.23        75.09277
793.65        75.00055
794.06        74.90882
794.47        75.07536
794.88        75.32884
795.29        76.39977
795.71        76.71303
796.12         75.8028
796.53        76.32508
796.94        75.63825
797.35        74.91021
797.76        74.83257
798.18        75.36377
798.59          75.613
799.00        75.47805
799.41        75.55213
799.82        75.82307
800.23        75.98479
800.64        76.01458
801.06        75.95754
801.47        75.90691
801.88        75.95377
802.29        76.10909
802.70        76.30945
803.11         76.4762
803.52        76.48642
803.93        76.33823
804.34        76.11514
804.75        75.84521
805.17        75.66943
805.58        75.66303
805.99        75.42352
806.40        75.13311
806.81        75.91146
807.22        77.35144
807.63        77.55714
808.04        76.63424
808.45        76.11962
808.86         76.3111
809.27        77.00189
809.68        77.93864
810.09        78.35058
810.50        78.08978
810.91        77.69252
811.32        77.32877
811.73        76.94456
812.14        76.60109
812.55        76.44421
812.96        76.41489
813.37        76.13042
813.78        75.69523
814.19        75.74056
814.60        76.16964
815.01        76.33776
815.42        76.20384
815.83        76.09033
816.24        76.07484
816.65        76.14707
817.05        76.33321
817.46        76.57449
817.87        76.81549
818.28        76.92844
818.69        76.90808
819.10        76.80795
819.51         76.6814
819.92        76.72953
820.33        77.01215
820.74        77.14794
821.14        77.20276
821.55        77.98493
821.96        79.14223
822.37        78.99814
822.78        77.73179
823.19        77.15336
823.60        77.41884
824.00        77.52941
824.41        77.36851
824.82        77.34946
825.23        77.46136
825.64        77.60766
826.04        77.77246
826.45        77.87807
826.86        77.91557
827.27         77.9066
827.68        77.86908
828.08        77.85535
828.49        77.82597
828.90        77.80391
829.31         77.7888
829.72        77.77801
830.12        77.78878
830.53         77.7886
830.94        77.78751
831.35        77.76673
831.75        77.74593
832.16        77.68774
832.57        77.62102
832.97        77.57278
833.38        77.52969
833.79        77.48423
834.20        77.44113
834.60        77.39835
835.01        77.37161
835.42        77.37727
835.82        77.38496
836.23        77.28443
836.64         77.0891
837.04         76.8251
837.45        76.61384
837.86        76.69827
838.26        77.13338
838.67        77.81381
839.08        78.52588
839.48        78.86096
839.89         78.7027
840.29        78.19064
840.70         77.6195
841.11        77.34938
841.51        77.48891
841.92        77.87917
842.33        78.41637
842.73        78.92339
843.14        79.22431
843.54        79.44466
843.95        79.51858
844.35        79.42056
844.76        79.17477
845.17        78.79797
845.57        78.41088
845.98        78.23994
846.38         78.3294
846.79        78.61527
847.19        79.03892
847.60        79.33641
848.00        79.48653
848.41        79.49684
848.81        79.46653
849.22        79.46836
849.62        79.56538
850.03        79.65709
850.43        79.77077
850.84         79.8459
851.24        79.92876
851.65        79.99872
852.05        80.04004
852.46        79.96178
852.86        79.78138
853.27        79.38344
853.67        78.90659
854.07        79.08179
854.48          79.736
854.88        79.93511
855.29        79.57537
855.69        79.44916
856.10        79.49043
856.50        79.28756
856.90         78.8607
857.31        78.57482
857.71        78.56847
858.12        78.68438
858.52        78.88212
858.92        78.98539
859.33        78.93082
859.73        78.80859
860.13        78.70536
860.54        78.77946
860.94        79.12821
861.34          79.642
861.75        80.10104
862.15        80.26497
862.55        80.03265
862.96         79.5108
863.36         78.8878
863.76        78.44814
864.17         78.2819
864.57        78.32348
864.97         78.5025
865.38        78.68372
865.78        78.86178
866.18        79.01305
866.58        79.06748
866.99        78.90635
867.39        78.56841
867.79         78.0644
868.19        77.41805
868.60        76.65604
869.00        75.78401
869.40        74.84492
869.80        74.07762
870.21        73.85425
870.61        74.29614
871.01        75.25027
871.41        76.28905
871.81        76.72911
872.22        76.44163
872.62        75.63609
873.02        74.67917
873.42        74.35275
873.82        74.65848
874.22         74.9509
874.63        75.21922
875.03        75.52708
875.43        75.77266
875.83         76.7626
876.23        76.25595
876.63        75.53438
877.03        74.23279
877.44        72.36861
877.84        125.5077
878.24        72.69426
878.64         73.7111
879.04        76.83589
879.44        73.81259
879.84        71.89511
880.24        75.30654
880.64        75.14292
881.04        72.29763
881.44        70.63309
881.84        70.79443
882.24         72.1227
882.65        73.89137
883.05        74.76508
883.45        74.31122
883.85        73.20274
884.25        72.03022
884.65        71.44283
885.05        71.63661
885.45        72.37653
885.85        73.29391
886.25        73.80016
886.65        73.71476
887.05        73.24213
887.45        72.67135
887.85        72.41384
888.25        72.58411
888.65        73.05663
889.04        73.63911
889.44        73.93781
889.84        73.87016
890.24        73.53204
890.64        73.14631
891.04        73.04517
891.44        73.26527
891.84        73.66433
892.24        73.97951
892.64        73.77191
893.04         72.9983
893.44        71.93276
893.83        70.80141
894.23        69.94295
894.63        69.43485
895.03        69.13131
895.43        69.15409
895.83        69.71057
896.23        70.74985
896.63        72.19797
897.02         73.5384
897.42        73.83462
897.82        72.92851
898.22        71.13492
898.62        69.14491
899.01         68.0238
899.41        68.06818
899.81        68.94023
900.21        70.25006
900.61        71.39488
901.00        72.15189
901.40        72.65096
901.80         72.9828
902.20        73.27051
902.59        73.56019
902.99        73.77817
903.39        73.78712
903.79        73.40518
904.18        72.64214
904.58        71.64919
904.98         70.7991
905.38         70.6398
905.77        71.23463
906.17        72.39991
906.57        73.65742
906.96        74.27687
907.36        74.03893
907.76        73.15352
908.15        72.03076
908.55        71.27429
908.95         71.0843
909.34        71.33051
909.74        71.68614
910.14        71.58701
910.53        70.89956
910.93        69.88146
911.33        69.00915
911.72        69.01905
912.12        69.99146
912.52        71.58439
912.91        73.23585
913.31        74.01707
913.70        73.76176
914.10        72.72424
914.49        71.25847
914.89        70.16542
915.29        69.76525
915.68        69.83292
916.08        70.23436
916.47        70.75198
916.87        71.25556
917.26        71.81437
917.66         72.2963
918.05        72.51057
918.45        72.39998
918.84        72.04481
919.24        71.50201
919.64        70.90322
920.03         70.3363
920.42        69.80248
920.82        69.51656
921.21        69.75233
921.61        70.47123
922.00        71.61132
922.40        72.73357
922.79        73.35748
923.19        73.33777
923.58        72.62536
923.98        71.41166
924.37        70.70237
924.77        70.93511
925.16        68.80618
925.55         69.9851
925.95        69.88537
926.34        70.18569
926.74        70.67472
927.13        71.32497
927.52        71.90764
927.92        72.32069
928.31        72.68951
928.70        72.87621
929.10         72.6957
929.49        72.16321
929.89        71.34035
930.28        70.61362
930.67         70.5996
931.07        71.36997
931.46        72.76266
931.85        74.26308
932.24        75.10661
932.64        75.08697
933.03        74.33011
933.42        73.15023
933.82        72.24104
934.21         71.8447
934.60        71.82211
934.99        71.74326
935.39        71.23692
935.78        70.26049
936.17        68.43914
936.56        66.03345
936.96        67.11491
937.35        66.81199
937.74        68.80313
938.13        70.77023
938.53        71.99616
938.92        72.40636
939.31        72.26214
939.70        71.82411
940.09        71.45969
940.49        71.36502
940.88        71.44841
941.27        71.69556
941.66        72.12894
942.05        72.70444
942.44        73.38852
942.84        74.11759
943.23        74.78401
943.62        75.29865
944.01        75.70319
944.40        75.80838
944.79        75.33291
945.18        74.26053
945.57        72.64071
945.97        71.02141
946.36        70.35629
946.75        70.93246
947.14        72.42473
947.53        74.06672
947.92        74.78716
948.31        74.39828
948.70        73.23861
949.09         71.8103
949.48        70.99661
949.87        71.08358
950.26         71.7779
950.65        72.76631
951.04        73.54145
951.43        73.90053
951.82        73.99667
952.21        73.89326
952.60        73.68002
952.99        73.40714
953.38        73.01888
953.77        72.54749
954.16        72.06944
954.55        71.62012
954.94        71.23962
955.33        70.92357
955.72        70.62543
956.11        70.35477
956.50        70.14165
956.89        70.06418
957.28        70.25607
957.66        70.71821
958.05        71.26926
958.44         71.7934
958.83        72.15469
959.22        72.30875
959.61        72.30453
960.00        72.03957
960.39        71.36121
960.78        70.31953
961.16        68.99725
961.55        67.78807
961.94        67.15377
962.33        67.18889
962.72        67.77621
963.11        68.60867
963.49        69.14811
963.88        69.13795
964.27        68.75464
964.66        68.21755
965.04        67.91217
965.43        67.94647
965.82        68.20255
966.21         68.5499
966.60        68.78505
966.98        68.86745
967.37        68.86581
967.76        68.90395
968.15        69.14545
968.53        69.62642
968.92        70.16848
969.31        70.68627
969.69         71.0485
970.08        71.13523
970.47         71.0274
970.86        70.64679
971.24        69.83493
971.63        68.68268
972.02        67.30054
972.40        65.98775
972.79        65.26841
973.17        65.31709
973.56        65.89896
973.95        66.89566
974.33        68.04308
974.72        69.03247
975.11        69.89621
975.49        70.34187
975.88        69.93536
976.26        68.67942
976.65        66.76189
977.04        64.63186
977.42        63.09886
977.81         62.4586
978.19        62.52412
978.58        63.16064
978.96        64.09389
979.35        65.09428
979.74        66.33588
980.12        67.56123
980.51        68.05389
980.89        67.79438
981.28        66.83862
981.66        65.83691
982.05        65.78169
982.43         66.7869
982.82        68.55626
983.20        70.47414
983.59        71.11199
983.97        70.18908
984.35        68.08137
984.74        65.63831
985.12        64.07707
985.51         63.7556
985.89        64.33841
986.28        65.42291
986.66        66.22781
987.04        66.33144
987.43        66.07624
987.81        65.51546
988.20         64.6803
988.58        63.52987
988.96        61.83909
989.35        59.88199
989.73        58.74349
990.12        58.98242
990.50        60.44973
990.88        62.14997
991.27        62.88845
991.65        62.66396
992.03        61.74032
992.42        60.85239
992.80        61.35918
993.18        63.54701
993.56        66.68234
993.95        69.70798
994.33        71.61205
994.71        72.02706
995.10        71.31052
995.48        69.95792
995.86        68.61257
996.24        67.52637
996.63        66.61683
997.01        65.65241
997.39        64.35159
997.77        62.83481
998.15        61.37828
998.54        60.56948
998.92        61.00849
999.30        62.80233
999.68        66.15314
1000.06        70.18661
1000.45        71.58196
1000.83        69.02237
1001.21        64.06172
1001.59        59.44252
1001.97        57.38688
1002.35        57.79169
1002.73        59.98852
1003.12         63.0807
1003.50        64.96568
1003.88        64.48192
1004.26        62.38043
1004.64        59.59237
1005.02        57.35384
1005.40        56.05755
1005.78         55.2666
1006.16         55.0879
1006.54         55.7854
1006.92        57.04919
1007.30        58.51781
1007.69         59.6732
1008.07        60.13026
1008.45        59.74328
1008.83        58.58504
1009.21        55.99595
1009.59        51.23264
1009.97        44.85139
1010.35        37.89385
1010.73        33.58912
1011.11        34.81814
1011.49        40.87606
1011.86        50.44068
1012.24        59.27361
1012.62        63.09892
1013.00        61.64462
1013.38        56.49174
1013.76        50.08604
1014.14        46.73742
1014.52         47.7333
1014.90        51.72522
1015.28        56.69902
1015.66        59.32365
1016.04        58.39841
1016.41        54.74681
1016.79        49.31924
1017.17        44.90217
1017.55        43.12867
1017.93        43.11264
1018.31        43.91103
1018.69        44.59529
1019.06        44.88068
1019.44        44.87734
1019.82        44.66705
1020.20         44.2219
1020.58        43.56978
1020.95        42.73227
1021.33        41.27652
1021.71        37.85547
1022.09        31.20452
1022.46        17.87539
1022.84       -2.600068
1023.22       -10.38726
1023.60        6.772408
1023.97        27.57286
1024.35        39.58555
1024.73        43.54729
