SpectraSmart Spectrum 2.9.0.0
--------- Device Information -----------
Spectrum Name :  反射率_0
Saving Time :  2024/04/20 00:59:32
Spectro-Module Model Name : SE2030-DUVN
Spectro-Module Serial Number : OS361AC55029948
Wavelength Start : 200
Wavelength End : 1025
Wavelength Unit : Wavelength(nm)
Spectrum Unit : Reflectance(%)
-----------Spectrum Setting ------------
Integration Time : 30ms
Average : 10
Boxcar : 0
Background removal :  enabled
linearity correction :  enabled
SC :  disabled
Intensity correction :  disabled
DWT denoise :  enabled
savitzky-golay :  disabled
FFT :  disabled
Running average :  disabled
Kalman :  disabled
High pass :  disabled
---------------BEGIN--------------------
Wavelength(nm)             Reflectance(%)
200.29               0
200.75         54.6714
201.21        57.58752
201.67        63.69127
202.13        70.46037
202.58        76.10617
203.04        81.09602
203.50        84.19354
203.96        82.95592
204.42        78.42878
204.88        72.73988
205.34        67.57774
205.80        63.27533
206.26        58.94072
206.72        53.34859
207.18        46.42814
207.64        41.99369
208.10        44.09695
208.55        51.67857
209.01        59.11324
209.47        62.18837
209.93         61.2895
210.39        58.26442
210.85        54.70479
211.31        52.26743
211.77        51.14246
212.23        50.50345
212.69         50.7233
213.14        52.72027
213.60        55.35189
214.06         58.1862
214.52        59.92155
214.98        59.84225
215.44        58.19786
215.90        54.90473
216.36        51.08311
216.81        49.70851
217.27        51.77266
217.73        56.30124
218.19        60.51355
218.65        60.63044
219.11        55.88054
219.57        46.81611
220.02        35.74722
220.48        29.21553
220.94        29.67107
221.40        36.09908
221.86        44.38361
222.32        48.09797
222.77        45.83445
223.23        39.73931
223.69        34.00989
224.15        34.38234
224.61        40.34668
225.06        48.47852
225.52        55.04586
225.98        56.94981
226.44        54.34719
226.90        48.65654
227.36        41.97898
227.81        38.11618
228.27        38.43496
228.73        41.24302
229.19        44.65139
229.65        46.45705
230.10        46.40589
230.56        45.50182
231.02        44.41834
231.48        43.90842
231.93        44.07358
232.39        44.54776
232.85        45.13272
233.31        45.62707
233.77        45.94453
234.22        46.19995
234.68        46.37621
235.14        46.29057
235.60        45.96159
236.05        45.44887
236.51        45.02037
236.97        45.09848
237.43        45.88256
237.88        47.60265
238.34        50.07634
238.80        52.60429
239.26        54.38671
239.71        55.17039
240.17        55.28472
240.63         56.0465
241.08        57.85176
241.54        60.32085
242.00         62.4088
242.46        62.10171
242.91        58.39673
243.37        50.41442
243.83         38.7133
244.28        30.72389
244.74         34.1947
245.20        47.98331
245.66        62.37186
246.11        68.89965
246.57        66.94499
247.03        57.57472
247.48        43.17976
247.94        37.98178
248.40        44.77064
248.85        53.92564
249.31        60.73299
249.77        64.26358
250.22        65.44258
250.68        65.42763
251.14        64.72055
251.59        64.00046
252.05        63.93436
252.51        64.49121
252.96        65.05392
253.42        64.89429
253.88        64.07081
254.33        62.98842
254.79        63.42371
255.25        66.85708
255.70        72.61933
256.16        79.30712
256.62        84.88861
257.07        87.11787
257.53        86.25089
257.99        83.33427
258.44        79.23135
258.90        75.97118
259.35        73.61646
259.81         72.3085
260.27        71.34663
260.72        70.14531
261.18        68.91084
261.63        67.35003
262.09        66.12205
262.55         65.5431
263.00        65.47974
263.46        65.87571
263.91        65.93507
264.37         65.0931
264.83         63.3329
265.28        60.89051
265.74        58.68528
266.19        57.49561
266.65        57.48623
267.11        58.19062
267.56        58.93044
268.02        58.74255
268.47        57.44837
268.93        55.39042
269.38        53.05802
269.84         51.4814
270.30        50.90924
270.75        51.02959
271.21        51.36047
271.66        51.16318
272.12        50.25497
272.57        48.86796
273.03        47.37133
273.48        46.23278
273.94        45.63306
274.39        45.36146
274.85        45.18921
275.31        44.74037
275.76        43.91793
276.22        42.88338
276.67        41.83778
277.13         41.1999
277.58        40.95358
278.04        40.98398
278.49         40.9371
278.95        40.41504
279.40        39.33345
279.86        37.96918
280.31        36.56149
280.77        35.60329
281.22        35.11201
281.68         34.9636
282.13        34.95591
282.59        34.85063
283.04        34.56013
283.50        34.20484
283.95        33.80799
284.41        33.45072
284.86        33.13364
285.32        32.85545
285.77        32.61809
286.22        32.51216
286.68        32.53662
287.13        32.63004
287.59        32.74187
288.04        32.75319
288.50        32.66458
288.95        32.48164
289.41        32.25378
289.86        31.97161
290.32        31.70653
290.77        31.45525
291.22        31.30397
291.68        31.34477
292.13        31.59146
292.59        32.03782
293.04        32.62372
293.50        33.27389
293.95         33.9445
294.40        34.63738
294.86        35.36488
295.31        36.16063
295.77        37.02413
296.22        37.92801
296.68        38.81284
297.13        39.56992
297.58        40.18262
298.04        40.68888
298.49        41.16501
298.95        41.77461
299.40        42.53368
299.85        43.39721
300.31        44.27375
300.76        45.00773
301.21        45.56607
301.67        46.02282
302.12        46.41148
302.58        46.86206
303.03        47.36792
303.48        47.91159
303.94        48.48221
304.39        49.01325
304.84         49.5013
305.30        49.96147
305.75        50.36435
306.20         50.7006
306.66         50.9893
307.11        51.20083
307.57        51.37583
308.02        51.48577
308.47        51.55853
308.93        51.60125
309.38        51.61271
309.83        51.65323
310.29        51.72723
310.74          51.819
311.19        51.86736
311.65        51.77002
312.10        51.50784
312.55        51.11988
313.00        50.71565
313.46         50.4591
313.91        50.36616
314.36        50.40317
314.82        50.45938
315.27        50.38511
315.72        50.12899
316.18        49.75331
316.63        49.33471
317.08        49.00692
317.53        48.79879
317.99        48.65855
318.44        48.52751
318.89        48.29929
319.35        47.94845
319.80         47.5163
320.25        47.05864
320.70        46.66337
321.16        46.34911
321.61        46.09496
322.06        45.85508
322.51        45.56152
322.97        45.18748
323.42        44.76461
323.87        44.32009
324.32        43.90508
324.78        43.52797
325.23        43.18966
325.68        42.85674
326.13        42.48315
326.59        42.06359
327.04        41.64823
327.49        41.27213
327.94        40.99607
328.39         40.8292
328.85        40.71677
329.30        40.68122
329.75        40.69495
330.20        40.72799
330.66        40.75727
331.11        40.72406
331.56        40.47437
332.01        39.98749
332.46        39.30487
332.92        38.55645
333.37        37.99335
333.82        37.69397
334.27        37.62115
334.72        37.67583
335.17        37.67205
335.63        37.53495
336.08        37.32482
336.53        37.11521
336.98        37.04563
337.43        37.14312
337.88        37.35526
338.34        37.53259
338.79        37.49038
339.24         37.1732
339.69        36.64337
340.14        36.09629
340.59        35.85665
341.05        35.98436
341.50        36.37797
341.95        36.81922
342.40        36.97127
342.85        36.75655
343.30        36.29496
343.75        35.73263
344.20         35.3078
344.66        35.09658
345.11        35.00137
345.56        34.99248
346.01        35.02123
346.46         35.0481
346.91        35.10157
347.36        35.09878
347.81        34.89845
348.26        34.49789
348.72        33.96564
349.17        33.41799
349.62         33.1304
350.07        33.16636
350.52        33.42731
350.97        33.79218
351.42        34.07776
351.87        34.21352
352.32        34.24267
352.77        34.14893
353.22        33.90933
353.67        33.54746
354.13        33.09489
354.58        32.61354
355.03        32.24777
355.48          32.039
355.93        31.96261
356.38        31.98367
356.83        32.03417
357.28        32.07782
357.73        32.11804
358.18        32.13201
358.63        32.08596
359.08        31.97128
359.53        31.79239
359.98        31.55741
360.43        31.28519
360.88        30.98965
361.33         30.6725
361.78        30.37003
362.23        30.13922
362.68        29.98837
363.13        29.89936
363.58        29.81793
364.03        29.65537
364.48        29.38758
364.93        29.03692
365.38         28.6407
365.83         28.2699
366.28         27.9538
366.73        27.67612
367.18        27.42882
367.63        27.19587
368.08        26.97066
368.53        26.76619
368.98        26.57695
369.43        26.38526
369.88        26.19198
370.33        26.00641
370.78        25.83905
371.23        25.71345
371.68          25.635
372.13        25.58271
372.58        25.56887
373.03        25.61611
373.48        25.70626
373.93        25.81582
374.38        25.86398
374.83        25.73028
375.28        25.40057
375.72        24.91395
376.17        24.38567
376.62        23.96319
377.07        23.70412
377.52        23.57422
377.97        23.54403
378.42        23.56062
378.87        23.59116
379.32        23.63972
379.77        23.68543
380.22        23.69376
380.67        23.65627
381.11        23.58163
381.56        23.45352
382.01        23.27618
382.46        23.05936
382.91        22.79914
383.36        22.55782
383.81        22.42478
384.26         22.4106
384.71         22.5022
385.15        22.58341
385.60        22.47927
386.05        22.16361
386.50        21.69142
386.95        21.23065
387.40        21.04763
387.85        21.18495
388.29        21.53999
388.74        21.92192
389.19        22.04989
389.64        21.86878
390.09        21.46148
390.54        20.98991
390.98        20.70572
391.43        20.69025
391.88        20.84801
392.33         21.0301
392.78        21.02474
393.23        20.80419
393.67        20.44126
394.12        20.10109
394.57        19.93799
395.02        19.98068
395.47        20.16809
395.91        20.39728
396.36        20.46902
396.81        20.33857
397.26        20.06723
397.71        19.76778
398.15         19.5888
398.60        19.58602
399.05        19.69571
399.50        19.82438
399.95         19.8398
400.39         19.7138
400.84        19.48483
401.29        19.24529
401.74        19.16063
402.18        19.27741
402.63         19.5308
403.08         19.7944
403.53        19.86999
403.97        19.71671
404.42        19.40845
404.87        19.07268
405.32        18.91877
405.76        18.99286
406.21        19.22178
406.66        19.48918
407.11        19.61381
407.55        19.55064
408.00        19.36391
408.45        19.12433
408.90         18.9066
409.34        18.77361
409.79        18.78602
410.24        18.88443
410.68        18.89958
411.13        18.81577
411.58        18.72465
412.03        18.64501
412.47        18.58072
412.92        18.53899
413.37        18.50653
413.81        18.50696
414.26        18.59396
414.71        18.76031
415.15        18.99794
415.60        19.20441
416.05        19.23902
416.49        19.07157
416.94        18.75122
417.39        18.39435
417.83        18.19035
418.28        18.19278
418.73        18.33796
419.17         18.5347
419.62        18.62807
420.07        18.58278
420.51        18.45276
420.96        18.29444
421.41        18.17318
421.85        18.10672
422.30        18.07974
422.74         18.0842
423.19        18.14296
423.64        18.24228
424.08        18.38876
424.53        18.52361
424.98        18.57039
425.42         18.5153
425.87        18.38497
426.31        18.22501
426.76        18.11653
427.21        18.07146
427.65        18.05816
428.10        18.08857
428.54        18.15306
428.99        18.24347
429.44        18.44316
429.88        18.63943
430.33        18.53197
430.77        18.18621
431.22        17.97267
431.66        17.95699
432.11        18.03503
432.56        18.18547
433.00        18.48661
433.45        18.74183
433.89        18.65314
434.34         18.3379
434.78        18.01179
435.23        17.67279
435.67         18.4775
436.12        17.86187
436.57        17.83429
437.01        17.68867
437.46        17.65243
437.90        17.72931
438.35         17.8252
438.79        17.89731
439.24        17.93141
439.68        17.91858
440.13        17.71875
440.57        17.45506
441.02        17.60825
441.46        18.01662
441.91        18.11044
442.35        17.45165
442.80         17.2404
443.24        17.29784
443.69         17.2505
444.13        17.07614
444.58        16.93409
445.02        16.84021
445.47        16.80154
445.91         16.8028
446.36        16.77927
446.80        16.71928
447.24        16.66202
447.69        16.62688
448.13        16.60639
448.58        16.60765
449.02        16.62316
449.47        16.63697
449.91        16.61828
450.36        16.56739
450.80        16.49242
451.25        16.41922
451.69        16.37014
452.13        16.35803
452.58        16.36873
453.02        16.39732
453.47        16.43645
453.91        16.48041
454.36        16.52772
454.80        16.56031
455.24        16.54753
455.69        16.49133
456.13        16.38491
456.58        16.27044
457.02        16.20162
457.46        16.18777
457.91        16.17783
458.35        16.15861
458.79        16.14946
459.24        16.14256
459.68        16.13723
460.13        16.17944
460.57        16.18383
461.01        16.13394
461.46         16.4695
461.90        16.54649
462.34        16.37464
462.79        16.49879
463.23        16.36347
463.68        16.24069
464.12        16.14183
464.56         16.2109
465.01        16.32609
465.45        16.43362
465.89        16.46985
466.34        16.42877
466.78        16.27949
467.22        16.09905
467.67        16.12645
468.11        16.33388
468.55        16.38463
468.99         16.2785
469.44        16.28274
469.88        16.39898
470.32        16.46772
470.77        16.46185
471.21        16.42414
471.65        16.35596
472.10        16.24847
472.54        16.14123
472.98        16.13349
473.42        16.23678
473.87        16.37524
474.31        16.50411
474.75        16.65423
475.20        16.77494
475.64        16.70347
476.08         16.5171
476.52        16.48135
476.97        16.61826
477.41        16.81109
477.85        16.98749
478.29        17.08002
478.74         17.0682
479.18         16.9471
479.62        16.80957
480.06        16.80245
480.50        16.93001
480.95        17.06862
481.39        17.16321
481.83        17.20901
482.27        17.19423
482.72        17.12736
483.16        17.05286
483.60        17.01851
484.04        17.01025
484.48        17.16502
484.93        17.53583
485.37        17.54528
485.81        17.34192
486.25        18.38608
486.69        18.91207
487.14        18.36262
487.58        17.86609
488.02        18.86467
488.46        18.42096
488.90        18.62609
489.34        18.41334
489.79        18.53811
490.23        18.92127
490.67         19.1128
491.11        19.10953
491.55        19.05402
491.99        18.99311
492.43        18.97139
492.88        19.01581
493.32        19.07907
493.76        19.17735
494.20        19.36382
494.64        19.63638
495.08         19.9676
495.52        20.30122
495.96        20.56704
496.41        20.74691
496.85        20.81993
497.29        20.83336
497.73        20.96482
498.17        21.20239
498.61        21.31247
499.05         21.3114
499.49        21.43701
499.93        21.69966
500.37        21.92898
500.82        22.10928
501.26         22.3595
501.70        22.63605
502.14        22.72621
502.58        22.65911
503.02        22.66961
503.46        22.77896
503.90        22.86496
504.34        22.91526
504.78        22.96421
505.22        23.01005
505.66        23.05169
506.10        23.09252
506.54        23.13261
506.98        23.17686
507.42        23.23114
507.86        23.30198
508.30        23.39939
508.74        23.52083
509.18        23.65293
509.62        23.79432
510.06          23.943
510.50         24.0942
510.94         24.2529
511.38        24.38076
511.82        24.41751
512.26        24.35735
512.70        24.21512
513.14        24.07484
513.58        24.06655
514.02        24.20685
514.46        24.46043
514.90        24.72205
515.34         24.7575
515.78        24.57054
516.22        24.28507
516.66        24.03642
517.10        23.70276
517.54        23.32613
517.98        23.95578
518.42         23.9361
518.86        24.23139
519.30        24.32403
519.74        24.39448
520.18         24.4264
520.62        24.37151
521.06        24.25231
521.50        24.06507
521.93        23.86043
522.37        23.73302
522.81        23.70387
523.25         23.7522
523.69        23.83439
524.13        23.87758
524.57        23.85926
525.01        23.79679
525.45        23.71442
525.89        23.65142
526.32        23.61714
526.76        23.59928
527.20        23.57166
527.64        23.49925
528.08        23.37587
528.52        23.21403
528.96        23.05138
529.40        22.94181
529.83        22.89491
530.27        22.90093
530.71        22.90966
531.15        22.84378
531.59        22.69192
532.03        22.48166
532.46        22.27328
532.90         22.1788
533.34        22.20958
533.78        22.32303
534.22        22.45426
534.66        22.50412
535.09        22.44402
535.53        22.31679
535.97        22.15228
536.41        21.99456
536.85        21.86645
537.28        21.76687
537.72        21.71804
538.16        21.68793
538.60        21.78127
539.04        21.89699
539.47        22.02318
539.91        22.14875
540.35        22.27583
540.79        22.21883
541.22        22.28832
541.66        22.36419
542.10        22.55858
542.54        22.49337
542.97        22.75169
543.41        22.89648
543.85        23.08313
544.29        23.26023
544.72        23.39993
545.16        23.52643
545.60        23.63384
546.04        23.64536
546.47        23.64488
546.91        23.91436
547.35        24.39743
547.79        24.77279
548.22        24.97881
548.66        25.09183
549.10         25.1539
549.53        25.34296
549.97        25.68256
550.41         25.7435
550.84        26.00443
551.28        26.20042
551.72        26.47521
552.15        26.73913
552.59        26.98568
553.03        27.22847
553.46         27.4378
553.90        27.59689
554.34        27.70251
554.77        27.76053
555.21        27.80963
555.65        27.89852
556.08         28.0345
556.52        28.20208
556.96        28.37472
557.39        28.54579
557.83        28.69638
558.27        28.76237
558.70        28.77011
559.14        28.82014
559.57        28.91436
560.01        29.04013
560.45        29.16261
560.88        29.18875
561.32        29.17101
561.75        29.20749
562.19        29.40903
562.63        29.51028
563.06        29.54594
563.50         29.6391
563.93         29.7751
564.37        29.94926
564.80        30.01784
565.24        30.12934
565.68        30.22995
566.11        30.33064
566.55        30.45393
566.98        30.53731
567.42        30.57078
567.85        30.93105
568.29        30.82149
568.72        31.17425
569.16        31.66265
569.60        31.99776
570.03        32.13182
570.47        32.23967
570.90        32.21704
571.34        32.64732
571.77        32.48974
572.21        32.94452
572.64        33.41363
573.08        33.37789
573.51        33.41455
573.95        34.05152
574.38        34.40478
574.82        34.66288
575.25        34.79391
575.69        34.54484
576.12        34.43824
576.56        34.39174
576.99        34.50602
577.42        34.76184
577.86        34.87363
578.29        34.44413
578.73        35.21909
579.16        34.94537
579.60        34.37724
580.03        34.29112
580.47        34.26712
580.90        33.89776
581.33        33.72923
581.77        33.83333
582.20        34.42446
582.64        34.12588
583.07        33.43195
583.51        33.36295
583.94        32.99577
584.37        32.92073
584.81        32.46022
585.24        32.40753
585.68         32.5518
586.11         32.4213
586.54        32.08349
586.98        31.89653
587.41        31.91855
587.85        31.92047
588.28        31.82591
588.71        31.70461
589.15        31.62193
589.58        31.07261
590.01        30.90324
590.45        31.51974
590.88        31.30141
591.31        31.31636
591.75        31.02476
592.18        31.11761
592.61        30.91044
593.05        31.46083
593.48        31.41011
593.91        32.14484
594.35        31.82701
594.78        31.75829
595.21        32.13618
595.65        32.53852
596.08        32.53773
596.51        32.53845
596.94        32.47467
597.38        32.58469
597.81        32.96166
598.24        33.06501
598.68        33.83735
599.11        33.89632
599.54        35.04563
599.97        34.56726
600.41         35.1185
600.84        36.05395
601.27        36.25465
601.70        36.78416
602.14        37.13786
602.57        37.65779
603.00        38.27347
603.43        39.03188
603.87        39.15157
604.30        39.71408
604.73        40.52171
605.16        40.56694
605.60         41.0862
606.03        41.66832
606.46        42.50374
606.89        43.19013
607.32        43.66598
607.76        43.69373
608.19         44.3872
608.62        44.80664
609.05        44.98222
609.48        45.35933
609.92        45.85495
610.35        45.88914
610.78        46.87663
611.21        47.34682
611.64        47.11017
612.07        47.90621
612.50        48.07959
612.94        48.03274
613.37          48.779
613.80        49.15465
614.23        49.54039
614.66        50.08046
615.09        50.31612
615.52        50.77493
615.96        51.18368
616.39        51.54869
616.82        51.96062
617.25        51.41634
617.68         51.8796
618.11        52.41764
618.54        53.10603
618.97        53.22836
619.40        52.75642
619.84        52.77247
620.27        52.52385
620.70        53.08944
621.13        53.97704
621.56        54.11765
621.99        53.66745
622.42         53.6468
622.85        54.25214
623.28         54.4901
623.71        54.29411
624.14        54.70043
624.57        54.44018
625.00        54.08606
625.43        54.43264
625.86        53.80217
626.29        53.78159
626.72        53.53899
627.15         53.4907
627.58        53.47318
628.01        53.38314
628.44        53.35673
628.87        53.10752
629.30        52.45641
629.73        51.99541
630.16        51.72888
630.59        51.51416
631.02        51.15493
631.45        50.57622
631.88        50.09665
632.31        49.71183
632.74        49.23647
633.17        48.67146
633.60         48.1092
634.03        47.55923
634.46              47
634.89        46.43097
635.32        45.85062
635.75        45.26556
636.18        44.69133
636.61        44.14013
637.04        43.62154
637.47        43.13413
637.89        42.67385
638.32        42.22987
638.75        41.80952
639.18        41.41402
639.61        41.05336
640.04        40.70445
640.47        40.31597
640.90        39.89077
641.33         39.4686
641.76        39.09452
642.18        38.82476
642.61        38.66843
643.04        38.61636
643.47        38.62486
643.90        38.61302
644.33        38.56088
644.76        38.49845
645.18        38.44783
645.61        38.44635
646.04        38.51299
646.47        38.63509
646.90        38.82697
647.33        39.12524
647.75        39.52541
648.18        39.97335
648.61        40.43612
649.04        40.92355
649.47        41.39281
649.89        41.72476
650.32        41.96775
650.75        42.34264
651.18        42.91946
651.61        43.52795
652.03        44.18173
652.46        45.25495
652.89        46.59714
653.32        47.17075
653.74        47.10936
654.17        47.95863
654.60        48.90321
655.03        49.92517
655.46        49.49038
655.88        51.64567
656.31        53.15022
656.74         62.2841
657.16        58.85574
657.59         54.0293
658.02         54.2709
658.45        54.63035
658.87        55.85277
659.30        56.30819
659.73        56.82225
660.15        57.95998
660.58        57.87096
661.01        57.80816
661.44        57.42983
661.86        57.73741
662.29        58.66154
662.72        59.56768
663.14        60.22909
663.57        60.29214
664.00        59.95361
664.42        60.01218
664.85        60.55191
665.27        61.03391
665.70        61.35659
666.13        61.65901
666.55         61.9193
666.98        62.08695
667.41        62.20074
667.83        62.32245
668.26        62.46497
668.69        62.63123
669.11        62.80042
669.54        62.93319
669.96        63.02844
670.39        63.10223
670.82         63.2103
671.24        63.40518
671.67        63.69837
672.09        64.12243
672.52        64.56595
672.94        64.76039
673.37        64.70262
673.80        64.55049
674.22        64.41942
674.65        64.39448
675.07        64.52546
675.50        64.80861
675.92        65.16136
676.35        65.34299
676.77        65.30759
677.20        65.32343
677.62        65.12427
678.05        65.08318
678.47        65.12635
678.90        65.24815
679.32        65.43361
679.75        65.58983
680.17        65.71157
680.60        66.01412
681.02        66.42262
681.45        66.42448
681.87        66.11794
682.30        66.23801
682.72        66.72276
683.15         66.7277
683.57        66.33346
684.00         66.2714
684.42        66.66544
684.85        66.89735
685.27        66.97753
685.70        67.18325
686.12        67.45885
686.54        67.63039
686.97        67.67795
687.39        67.61497
687.82        67.48756
688.24        67.50208
688.66        67.64703
689.09        67.64459
689.51        67.64369
689.94        67.66805
690.36         67.7674
690.78        67.91665
691.21        68.12099
691.63        68.00869
692.06        68.54855
692.48        68.39442
692.90        68.48833
693.33        68.91424
693.75        68.68738
694.17        68.78727
694.60        68.84102
695.02        68.65869
695.44        68.29993
695.87         68.3519
696.29          68.684
696.71        68.46629
697.14        68.04574
697.56        68.00774
697.98        69.13251
698.41        70.52914
698.83        69.63142
699.25        69.22301
699.68        69.20206
700.10        69.08813
700.52        69.08761
700.94        69.24613
701.37        69.49729
701.79        69.70721
702.21        69.80596
702.64        69.82647
703.06        69.81451
703.48        69.86303
703.90        69.99338
704.33        70.16086
704.75        70.29665
705.17         70.2737
705.59         70.0722
706.01        69.73257
706.44        69.42265
706.86        69.38765
707.28        69.66152
707.70        70.21741
708.12        70.84569
708.55        71.07561
708.97        70.90533
709.39        70.75578
709.81        70.69821
710.23        70.66595
710.66         70.5218
711.08        70.56537
711.50        70.71117
711.92        70.83995
712.34        70.93262
712.76        71.03925
713.19        71.13342
713.61        71.22077
714.03        71.27397
714.45        71.28773
714.87        71.29939
715.29        71.37563
715.71        71.52666
716.13        71.73399
716.56        71.92822
716.98        72.07487
717.40        72.12462
717.82        72.09318
718.24        72.02878
718.66        72.01167
719.08         72.0603
719.50        72.14995
719.92        72.23091
720.34         72.2214
720.76        72.10923
721.19        71.92832
721.61        71.74785
722.03        71.63972
722.45        71.65067
722.87         71.7409
723.29        71.89218
723.71         72.0601
724.13         72.2252
724.55          72.408
724.97        72.59622
725.39         72.7453
725.81        72.85955
726.23        72.98631
726.65        73.12917
727.07        73.25538
727.49        73.36743
727.91        73.48826
728.33        73.60022
728.75        73.67329
729.17        73.69501
729.59        73.64147
730.01        73.54957
730.43        73.54041
730.85        73.63511
731.27         73.7328
731.69        73.77763
732.10        73.99777
732.52        73.89232
732.94        73.85686
733.36        73.77827
733.78        73.71867
734.20        73.70942
734.62        73.73544
735.04        73.76372
735.46        73.82055
735.88        73.90846
736.30        73.65825
736.72        73.73452
737.13        73.84549
737.55        74.10829
737.97        74.45794
738.39        74.88203
738.81        74.68109
739.23        74.09214
739.65        73.91777
740.06        74.08502
740.48        74.59224
740.90        74.81975
741.32        74.07204
741.74        74.03761
742.16        74.50938
742.57        74.19467
742.99        74.35172
743.41        74.42628
743.83        74.51363
744.25        74.57308
744.67         74.6118
745.08        74.64043
745.50        74.59379
745.92         74.4882
746.34        74.33765
746.75          74.186
747.17        74.09734
747.59        74.09582
748.01        74.20004
748.42        74.37558
748.84        74.51743
749.26        74.64485
749.68        74.73177
750.09        74.81714
750.51        75.18355
750.93         75.6498
751.35        75.55998
751.76        75.01842
752.18        74.67902
752.60        74.55284
753.01        74.86402
753.43         74.4855
753.85        74.55939
754.27        74.75083
754.68        75.08752
755.10        75.45317
755.52        75.48414
755.93        75.42818
756.35        75.25993
756.77        75.16048
757.18        75.17168
757.60        75.37465
758.02        75.69687
758.43        75.97315
758.85        76.09346
759.26        76.59166
759.68        75.32218
760.10        75.66039
760.51         75.1932
760.93        74.93577
761.34        75.03544
761.76        75.25539
762.18        75.04319
762.59         74.4995
763.01          74.428
763.42         74.9124
763.84        75.44828
764.26        75.88244
764.67        75.82773
765.09        75.49411
765.50        75.72711
765.92        76.42593
766.33        76.63712
766.75        76.22704
767.16        75.74274
767.58         75.3072
768.00        74.88174
768.41        74.69252
768.83        75.12954
769.24        75.98121
769.66        76.60718
770.07        76.79977
770.49        76.46281
770.90        75.84175
771.32        75.83652
771.73        76.39045
772.15        76.50111
772.56        76.13458
772.97        75.89338
773.39        75.80123
773.80        75.66432
774.22        75.47269
774.63        75.28043
775.05        75.14594
775.46        75.20269
775.88        75.44221
776.29        75.85098
776.70        76.25852
777.12        76.42168
777.53        76.29349
777.95        75.90341
778.36        75.44229
778.77        75.24965
779.19        75.41591
779.60        75.90331
780.02        76.42757
780.43        76.74169
780.84        76.78252
781.26        76.14762
781.67        75.28252
782.09        76.08767
782.50        78.06683
782.91        78.31088
783.33        76.93511
783.74        76.53443
784.15        77.18288
784.57        77.48942
784.98        77.32404
785.39        76.75742
785.81        76.21685
786.22        75.94487
786.63        76.05138
787.04        76.07285
787.46        76.01283
787.87        76.17896
788.28        76.50914
788.70        76.72633
789.11        76.78226
789.52         76.7402
789.93        76.66413
790.35         76.6786
790.76        76.79272
791.17        76.88881
791.58        76.92272
792.00        76.82513
792.41         76.6084
792.82        76.46757
793.23        76.41459
793.65        76.10484
794.06        75.73499
794.47        76.09851
794.88        77.02924
795.29        77.67788
795.71        77.56904
796.12        77.70467
796.53        77.90119
796.94        77.17052
797.35        75.87463
797.76        75.72088
798.18        76.64667
798.59        77.22588
799.00         77.2973
799.41        77.31441
799.82        77.46043
800.23        77.60493
800.64        77.83537
801.06        77.25141
801.47        77.28018
801.88        77.11626
802.29        77.18045
802.70        77.33249
803.11        77.47473
803.52        77.43033
803.93        77.17455
804.34        76.82642
804.75         76.4511
805.17        76.24677
805.58         76.2766
805.99        76.16238
806.40        76.08307
806.81        76.96823
807.22        78.24181
807.63         79.0761
808.04        77.12887
808.45        76.71758
808.86        77.34615
809.27        78.18188
809.68        78.91615
810.09        79.27568
810.50        79.14439
810.91        78.73901
811.32        78.27924
811.73        77.88275
812.14        77.61469
812.55        77.69492
812.96        77.94332
813.37        77.46744
813.78        76.47932
814.19         76.3597
814.60        77.01239
815.01        77.21436
815.42        76.91746
815.83        76.79738
816.24        76.92982
816.65        77.09755
817.05        77.29966
817.46        77.53544
817.87         77.7487
818.28        77.80992
818.69        77.71995
819.10        77.52135
819.51        77.29012
819.92        77.28384
820.33        77.57774
820.74        77.76353
821.14        77.87675
821.55        78.71326
821.96        79.88855
822.37        79.65093
822.78        78.22784
823.19        77.58889
823.60        77.91473
824.00        78.13814
824.41        78.09003
824.82          78.119
825.23        78.19415
825.64        78.24242
826.04        78.30819
826.45        78.40943
826.86        78.55572
827.27        78.72994
827.68        78.89529
828.08        79.01374
828.49        79.01005
828.90        78.93238
829.31        78.79215
829.72        78.61199
830.12        78.43467
830.53        78.23174
830.94        78.04583
831.35        77.90254
831.75        77.83157
832.16        77.79114
832.57        77.79097
832.97         77.8172
833.38        77.83645
833.79        77.84235
834.20        77.83981
834.60        77.83148
835.01        77.83472
835.42        77.86264
835.82        77.87519
836.23         77.7515
836.64        77.50442
837.04        77.15989
837.45         76.8692
837.86        76.92288
838.26        77.38119
838.67        78.12732
839.08        78.89375
839.48        79.17454
839.89        78.84556
840.29        78.10056
840.70         77.3032
841.11        76.91167
841.51        77.05414
841.92        77.52454
842.33         78.2159
842.73          78.941
843.14        79.49429
843.54        80.00411
843.95        80.29133
844.35        80.15119
844.76        79.59238
845.17        78.69373
845.57        77.77403
845.98        77.35512
846.38        77.54704
846.79        78.22033
847.19        79.14465
847.60        79.73557
848.00        79.86663
848.41        79.62641
848.81        79.29312
849.22         79.2177
849.62        79.53663
850.03        80.08158
850.43        80.68503
850.84        80.94727
851.24        80.81098
851.65        80.34175
852.05        79.80318
852.46        79.49897
852.86        79.52275
853.27        79.78542
853.67         80.0659
854.07        80.17742
854.48        80.03752
854.88        79.75539
855.29        79.37195
855.69        79.11134
856.10        78.95653
856.50        78.93832
856.90        78.98843
857.31        79.03001
857.71        79.10873
858.12         79.1827
858.52        79.28704
858.92        79.35924
859.33         79.3688
859.73        79.36037
860.13        79.33317
860.54        79.31142
860.94        79.36391
861.34        79.42954
861.75        79.44584
862.15        79.41576
862.55        79.29524
862.96        79.13001
863.36        78.93511
863.76        78.69759
864.17        78.43743
864.57        78.18935
864.97          78.048
865.38        78.13959
865.78        78.52301
866.18        79.07779
866.58        79.63329
866.99        79.88728
867.39        79.79208
867.79        79.41094
868.19        78.76481
868.60        77.87575
869.00        76.77945
869.40        75.52338
869.80        74.43616
870.21        74.05787
870.61        74.54411
871.01         75.6808
871.41        76.96876
871.81        77.59702
872.22        77.39046
872.62        76.61443
873.02        75.58484
873.42        74.99802
873.82        74.88258
874.22        74.61053
874.63        74.35543
875.03        74.57323
875.43        75.25624
875.83        77.05785
876.23        77.45108
876.63        77.33374
877.03        76.25359
877.44        74.28951
877.84        124.1412
878.24        73.88129
878.64        74.85928
879.04        77.97737
879.44        75.30872
879.84        73.67317
880.24         76.9363
880.64        76.80787
881.04        74.12461
881.44        72.44183
881.84        72.36578
882.24         73.3129
882.65        74.63806
883.05        75.15575
883.45         74.4898
883.85        73.28636
884.25         72.1715
884.65        71.83075
885.05        72.43677
885.45        73.73258
885.85        75.21215
886.25        76.04585
886.65         75.9886
887.05        75.30383
887.45        74.42101
887.85        73.98162
888.25         74.1579
888.65        74.75533
889.04        75.50588
889.44         75.8759
889.84        75.74346
890.24        75.27473
890.64        74.72177
891.04          74.447
891.44        74.50529
891.84        74.72974
892.24        74.91037
892.64        74.70714
893.04        74.07674
893.44        73.25165
893.83        72.34012
894.23        71.50816
894.63        70.81209
895.03         70.1754
895.43        69.81955
895.83        70.12032
896.23        71.08382
896.63         72.5826
897.02        74.08465
897.42        74.61705
897.82        73.98361
898.22        72.50517
898.62        70.78433
899.01        69.75472
899.41        69.69595
899.81        70.29609
900.21        71.29114
900.61        72.27785
901.00        73.08081
901.40        73.79258
901.80         74.3702
902.20        74.71166
902.59        74.81049
902.99        74.64999
903.39        74.27985
903.79        73.82278
904.18        73.34837
904.58        72.90719
904.98        72.62051
905.38        72.65926
905.77        73.02546
906.17        73.67229
906.57        74.37772
906.96        74.81251
907.36        74.84538
907.76        74.54043
908.15        74.09418
908.55        73.78542
908.95        73.70924
909.34        73.81727
909.74        73.88905
910.14         73.5487
910.53         72.7382
910.93        71.67425
911.33        70.74794
911.72        70.57278
912.12         71.2183
912.52        72.39447
912.91        73.69312
913.31        74.39954
913.70        74.38464
914.10        73.85918
914.49         72.9574
914.89        72.05321
915.29        71.36045
915.68        70.79871
916.08        70.56033
916.47        70.88804
916.87        71.71967
917.26        72.95282
917.66        74.19794
918.05        74.84403
918.45        74.70145
918.84        73.98484
919.24        72.89471
919.64        71.79649
920.03        70.88167
920.42        70.10056
920.82         69.6451
921.21        69.75603
921.61        70.37891
922.00        71.46991
922.40        72.62315
922.79        73.39198
923.19        73.62498
923.58        73.25777
923.98        72.37252
924.37        71.77172
924.77        71.84944
925.16        69.43367
925.55        70.24086
925.95        70.07774
926.34        70.65844
926.74        71.68246
927.13        72.90813
927.52        73.79987
927.92        74.19597
928.31        74.29823
928.70        74.15182
929.10         73.9016
929.49        73.63995
929.89        73.29797
930.28        73.03704
930.67        73.12315
931.07        73.55125
931.46        74.30369
931.85        75.04185
932.24        75.24676
932.64        74.80359
933.03        73.78079
933.42         72.4984
933.82        71.66148
934.21        71.47692
934.60        71.77375
934.99        72.05543
935.39        71.87039
935.78        71.16084
936.17        69.59894
936.56        67.38877
936.96         68.3549
937.35        67.82481
937.74        69.37958
938.13        70.98381
938.53        72.19685
938.92        72.96088
939.31         73.4619
939.70        73.72287
940.09         73.6369
940.49        73.25351
940.88        72.64693
941.27        72.06563
941.66        71.90904
942.05         72.2361
942.44         72.9095
942.84        73.77752
943.23        74.57986
943.62        75.17091
944.01        75.65418
944.40        75.86297
944.79        75.54086
945.18        74.67844
945.57        73.28827
945.97         71.8978
946.36        71.43766
946.75        72.17061
947.14        73.77523
947.53        75.47441
947.92        76.18768
948.31        75.73337
948.70        74.44481
949.09        72.86582
949.48        71.95792
949.87        72.01363
950.26         72.7098
950.65        73.65337
951.04         74.1974
951.43        74.12605
951.82        73.68321
952.21        73.01972
952.60        72.35075
952.99        71.79221
953.38        71.26066
953.77        70.84354
954.16        70.70498
954.55        70.84812
954.94         71.2406
955.33        71.71279
955.72        71.95295
956.11        71.88649
956.50        71.60523
956.89        71.21649
957.28        70.96011
957.66        70.93927
958.05        70.97801
958.44        71.11818
958.83        71.41898
959.22        71.84532
959.61        72.41646
960.00        72.81711
960.39        72.47874
960.78        71.32939
961.16        69.55814
961.55        67.80612
961.94        66.92874
962.33        67.11245
962.72        68.11978
963.11        69.44772
963.49        70.22271
963.88        70.08376
964.27        69.31903
964.66         68.3142
965.04        67.71344
965.43        67.70724
965.82        68.10456
966.21        68.65957
966.60        68.98743
966.98        68.99757
967.37        68.81527
967.76        68.67403
968.15        68.90629
968.53        69.57657
968.92        70.43649
969.31         71.2605
969.69        71.69654
970.08        71.57217
970.47         71.0461
970.86        70.17445
971.24        69.01199
971.63         67.7229
972.02        66.37123
972.40        65.18619
972.79         64.5691
973.17        64.64809
973.56        65.22061
973.95        66.22567
974.33        67.48629
974.72        68.71151
975.11        69.90258
975.49        70.66105
975.88        70.40351
976.26        69.11163
976.65        67.00931
977.04        64.70213
977.42        63.26725
977.81        63.04691
978.19        63.75492
978.58        65.03187
978.96        66.23141
979.35        67.00744
979.74        67.63815
980.12        68.03352
980.51        67.80135
980.89        67.08234
981.28        65.88074
981.66        64.79719
982.05        64.73225
982.43        65.76707
982.82         67.6412
983.20        69.74864
983.59        70.65993
983.97         70.0616
984.35         68.2683
984.74        66.08224
985.12        64.68156
985.51        64.40372
985.89        64.92315
986.28        65.78732
986.66        66.16064
987.04         65.6864
987.43        64.80504
987.81        63.72159
988.20        62.60446
988.58        61.41776
988.96        59.91464
989.35        58.34521
989.73        57.60966
990.12        58.12177
990.50        59.74433
990.88        61.48889
991.27        62.20213
991.65        61.91983
992.03        60.88434
992.42        59.90197
992.80        60.48333
993.18        62.92921
993.56        66.42767
993.95        69.82477
994.33        71.96636
994.71        72.46775
995.10        71.76671
995.48        70.33854
995.86        68.79695
996.24        67.39491
996.63        65.98592
997.01        64.55447
997.39        63.31493
997.77        62.47984
998.15        62.11975
998.54        62.24672
998.92        62.79632
999.30        63.74065
999.68        65.22216
1000.06         66.6891
1000.45        66.47702
1000.83        64.24419
1001.21        60.90083
1001.59        57.96942
1001.97        56.58181
1002.35        56.58444
1002.73        57.59592
1003.12        59.11506
1003.50        60.03886
1003.88        59.73014
1004.26        58.62561
1004.64        57.07016
1005.02        55.49263
1005.40        54.07622
1005.78        52.60001
1006.16        51.56035
1006.54        51.97842
1006.92        53.75265
1007.30        56.18768
1007.69        58.29823
1008.07        59.27076
1008.45        58.91422
1008.83        57.33604
1009.21        54.18707
1009.59        49.81543
1009.97        45.48497
1010.35        41.86353
1010.73        40.50537
1011.11        42.42539
1011.49        46.91462
1011.86        53.35186
1012.24        59.01718
1012.62        61.42455
1013.00         60.4436
1013.38         57.0674
1013.76        52.58671
1014.14        49.34653
1014.52        48.14117
1014.90        48.23918
1015.28        49.00718
1015.66        49.31097
1016.04        48.70787
1016.41        47.75745
1016.79        46.38106
1017.17        44.49625
1017.55        42.55991
1017.93        40.67204
1018.31        39.55095
1018.69        40.02715
1019.06         41.9252
1019.44        44.79587
1019.82        47.78196
1020.20        48.57351
1020.58        46.19693
1020.95        41.47232
1021.33        35.29501
1021.71        27.76655
1022.09        17.71577
1022.46       0.5829704
1022.84       -23.53752
1023.22       -30.26518
1023.60       -7.017294
1023.97        19.48108
1024.35        34.77265
1024.73        40.47626
