SpectraSmart Spectrum 2.9.0.0
--------- Device Information -----------
Spectrum Name :  反射率_0
Saving Time :  2024/04/20 00:02:42
Spectro-Module Model Name : SE2030-DUVN
Spectro-Module Serial Number : OS361AC55029948
Wavelength Start : 200
Wavelength End : 1025
Wavelength Unit : Wavelength(nm)
Spectrum Unit : Reflectance(%)
-----------Spectrum Setting ------------
Integration Time : 30ms
Average : 10
Boxcar : 0
Background removal :  enabled
linearity correction :  enabled
SC :  disabled
Intensity correction :  disabled
DWT denoise :  enabled
savitzky-golay :  disabled
FFT :  disabled
Running average :  disabled
Kalman :  disabled
High pass :  disabled
---------------BEGIN--------------------
Wavelength(nm)             Reflectance(%)
200.29               0
200.75        56.90922
201.21        58.73656
201.67        62.95862
202.13        68.57896
202.58        74.68003
203.04        81.59637
203.50        87.00232
203.96        85.89943
204.42         79.1724
204.88         70.6243
205.34        63.26099
205.80        57.98534
206.26        53.72725
206.72        49.19696
207.18        44.03757
207.64         40.2345
208.10        40.51154
208.55        44.78859
209.01        49.72739
209.47         53.0745
209.93        54.64961
210.39        55.03272
210.85         54.5551
211.31        53.58337
211.77        52.16365
212.23        50.02525
212.69        47.36167
213.14        45.90839
213.60        46.29448
214.06        48.12383
214.52         50.2855
214.98        52.32858
215.44        54.33786
215.90        56.23587
216.36        58.34747
216.81        60.85463
217.27          63.255
217.73        65.52039
218.19        66.03849
218.65        62.54143
219.11        54.73638
219.57        42.71226
220.02        29.39406
220.48        22.72157
220.94        25.48947
221.40         36.2901
221.86        49.49101
222.32        56.25417
222.77        54.56057
223.23        47.31224
223.69        39.12498
224.15        36.61892
224.61        40.00237
225.06        45.80141
225.52        50.83652
225.98        52.55714
226.44         50.9458
226.90        47.25859
227.36        42.74156
227.81        39.53979
228.27        38.74893
228.73        39.43742
229.19        40.82221
229.65        42.01217
230.10        42.74692
230.56        43.30371
231.02        43.80955
231.48        44.39574
231.93        45.03553
232.39        45.63538
232.85        45.99757
233.31        45.87901
233.77        45.26177
234.22        44.25211
234.68        43.13513
235.14        42.30095
235.60        41.92144
236.05        41.95082
236.51        42.28204
236.97        42.71026
237.43        43.24356
237.88        44.16013
238.34        45.49099
238.80         47.3502
239.26         49.4341
239.71        51.19276
240.17        52.48835
240.63         53.9374
241.08         55.7356
241.54         57.7885
242.00        58.97673
242.46        57.06933
242.91        50.84077
243.37        38.71202
243.83        21.39391
244.28        9.505944
244.74        14.33853
245.20        34.62098
245.66        55.83316
246.11        65.03844
246.57        61.33704
247.03         45.9105
247.48        23.11461
247.94           16.17
248.40        28.73279
248.85        44.68652
249.31        56.12917
249.77        61.31822
250.22         61.9317
250.68        59.92527
251.14        56.39149
251.59        53.52497
252.05        52.97321
252.51        54.29541
252.96        56.35582
253.42        57.38917
253.88        56.95759
254.33         55.8144
254.79        55.87804
255.25        58.77283
255.70        63.92264
256.16        69.88506
256.62        74.66696
257.07        76.07925
257.53        74.42107
257.99        70.83235
258.44        66.40358
258.90        63.31314
259.35        61.53792
259.81        60.88359
260.27        60.50244
260.72         59.7167
261.18        58.69939
261.63        57.24785
262.09        56.06001
262.55        55.54272
263.00        55.59351
263.46        56.12571
263.91        56.30027
264.37        55.42705
264.83        53.54101
265.28        50.94957
265.74        48.69498
266.19        47.77643
266.65        48.31776
267.11        49.73689
267.56        51.20182
268.02        51.52845
268.47        50.50605
268.93        48.55084
269.38        46.18982
269.84        44.52034
270.30        43.83409
270.75        43.80207
271.21        44.01235
271.66        43.83879
272.12         43.1068
272.57        42.03337
273.03        40.87174
273.48        39.90532
273.94        39.27064
274.39        38.81369
274.85        38.42362
275.31        37.91096
275.76        37.21221
276.22        36.42508
276.67        35.63373
277.13        35.06788
277.58        34.70234
278.04        34.49897
278.49        34.25001
278.95        33.74324
279.40        32.92115
279.86        31.95461
280.31        30.97796
280.77        30.32409
281.22        29.97973
281.68        29.87133
282.13        29.83362
282.59        29.66691
283.04        29.31774
283.50        28.89595
283.95        28.45673
284.41        28.12034
284.86        27.89245
285.32        27.74665
285.77        27.66632
286.22        27.69929
286.68        27.82419
287.13        27.99825
287.59        28.13872
288.04        28.09395
288.50        27.86645
288.95        27.47439
289.41        27.04196
289.86        26.68509
290.32        26.49108
290.77        26.41947
291.22        26.45127
291.68        26.51804
292.13         26.6069
292.59        26.75973
293.04        27.01476
293.50        27.44534
293.95        28.04251
294.40        28.75479
294.86         29.5162
295.31        30.23959
295.77        30.89735
296.22        31.51408
296.68        32.09127
297.13        32.61169
297.58        33.09614
298.04        33.55775
298.49        34.05562
298.95        34.72531
299.40        35.56319
299.85        36.51656
300.31        37.48971
300.76        38.32399
301.21        38.98096
301.67        39.54149
302.12        40.00567
302.58         40.4449
303.03        40.86769
303.48        41.27879
303.94        41.77557
304.39        42.46147
304.84         43.3478
305.30        44.38444
305.75        45.40006
306.20         46.1577
306.66        46.62732
307.11        46.85875
307.57        46.99987
308.02        47.19539
308.47        47.51571
308.93        47.90195
309.38        48.30652
309.83         48.7206
310.29        49.11523
310.74        49.49379
311.19        49.78177
311.65        49.85042
312.10        49.68288
312.55        49.32908
313.00        48.91897
313.46        48.65474
313.91        48.57033
314.36        48.62671
314.82        48.73695
315.27        48.78151
315.72        48.70715
316.18        48.56706
316.63        48.38144
317.08        48.19743
317.53        48.02962
317.99        47.84818
318.44        47.66091
318.89        47.47279
319.35         47.2857
319.80         47.1101
320.25        46.93093
320.70        46.72259
321.16        46.47443
321.61        46.19491
322.06        45.90661
322.51        45.65467
322.97        45.43536
323.42         45.2391
323.87        45.01453
324.32         44.6865
324.78        44.23552
325.23        43.71235
325.68        43.15308
326.13        42.62799
326.59        42.17097
327.04        41.79266
327.49        41.50751
327.94        41.34128
328.39        41.28199
328.85        41.29208
329.30         41.3514
329.75        41.35463
330.20        41.26079
330.66        41.06283
331.11        40.79102
331.56        40.44005
332.01        40.02476
332.46        39.55236
332.92        39.06064
333.37        38.63674
333.82        38.30933
334.27        38.08321
334.72        37.94257
335.17        37.84797
335.63        37.76659
336.08        37.70938
336.53        37.67255
336.98        37.67176
337.43        37.69786
337.88         37.7409
338.34        37.70997
338.79        37.50988
339.24        37.11523
339.69        36.56379
340.14        36.01859
340.59         35.7527
341.05        35.81149
341.50        36.11275
341.95        36.46822
342.40        36.58217
342.85        36.38256
343.30        35.97112
343.75        35.45559
344.20        35.01656
344.66        34.71687
345.11        34.47715
345.56        34.31105
346.01        34.23725
346.46        34.23644
346.91        34.32407
347.36        34.37675
347.81        34.19059
348.26        33.74886
348.72        33.13406
349.17        32.51461
349.62        32.25058
350.07         32.4169
350.52        32.88258
350.97        33.44284
351.42        33.79211
351.87         33.8416
352.32        33.67688
352.77        33.37093
353.22        33.04425
353.67        32.75078
354.13        32.46877
354.58        32.18499
355.03        31.92558
355.48        31.70077
355.93        31.53084
356.38        31.41422
356.83        31.33355
357.28        31.27406
357.73        31.21821
358.18         31.1618
358.63        31.10465
359.08        31.03819
359.53        30.96264
359.98        30.83498
360.43        30.58969
360.88        30.23064
361.33        29.78943
361.78        29.36143
362.23        29.10305
362.68        29.04233
363.13        29.11666
363.58         29.2316
364.03        29.23955
364.48        29.09269
364.93        28.83318
365.38        28.47782
365.83        28.06363
366.28        27.62617
366.73        27.16355
367.18        26.73536
367.63        26.43293
368.08        26.27072
368.53        26.23034
368.98        26.24253
369.43        26.18851
369.88        26.04026
370.33        25.83171
370.78        25.60775
371.23        25.45153
371.68        25.38721
372.13        25.37516
372.58        25.40054
373.03         25.4434
373.48        25.48072
373.93         25.5138
374.38        25.49784
374.83        25.36282
375.28        25.10237
375.72        24.73053
376.17        24.33671
376.62        24.02698
377.07         23.8405
377.52        23.75537
377.97        23.73197
378.42          23.703
378.87        23.64423
379.32        23.56912
379.77        23.49816
380.22        23.45996
380.67        23.45629
381.11         23.4769
381.56        23.46814
382.01        23.36681
382.46        23.16253
382.91        22.87413
383.36        22.58166
383.81        22.40329
384.26        22.36168
384.71        22.43215
385.15        22.51011
385.60        22.43963
386.05        22.19399
386.50        21.82501
386.95        21.46881
387.40        21.33923
387.85         21.4689
388.29        21.76858
388.74        22.08675
389.19        22.20068
389.64        22.06375
390.09        21.73923
390.54        21.34917
390.98        21.08118
391.43        21.00686
391.88        21.06021
392.33        21.13277
392.78        21.06894
393.23        20.85257
393.67        20.53483
394.12        20.26062
394.57        20.15784
395.02        20.24838
395.47        20.48166
395.91        20.75565
396.36        20.86931
396.81        20.77639
397.26        20.53231
397.71        20.25513
398.15        20.10481
398.60        20.13777
399.05        20.28579
399.50         20.4446
399.95        20.46593
400.39        20.31955
400.84        20.04918
401.29        19.75761
401.74        19.63048
402.18        19.72058
402.63         19.9563
403.08         20.2049
403.53        20.25607
403.97        20.06743
404.42        19.72385
404.87        19.35106
405.32        19.15436
405.76        19.18416
406.21        19.36777
406.66        19.61188
407.11        19.77238
407.55        19.80666
408.00        19.76482
408.45        19.67633
408.90           19.54
409.34        19.39769
409.79        19.33668
410.24        19.33292
410.68        19.26945
411.13        19.14733
411.58        19.04359
412.03        18.97024
412.47        18.91831
412.92        18.88958
413.37        18.88055
413.81        18.90747
414.26        19.00975
414.71        19.17848
415.15        19.40468
415.60        19.60219
416.05        19.66101
416.49        19.55375
416.94        19.31641
417.39        19.03693
417.83        18.85969
418.28        18.82938
418.73        18.90024
419.17        19.00522
419.62        19.02679
420.07        18.94317
420.51        18.79869
420.96        18.64809
421.41        18.55278
421.85         18.5249
422.30        18.54992
422.74        18.60851
423.19        18.70658
423.64         18.8274
424.08        18.98084
424.53        19.11556
424.98        19.17164
425.42        19.13888
425.87        19.03551
426.31        18.90268
426.76         18.8157
427.21        18.78307
427.65        18.77603
428.10        18.79939
428.54        18.83109
428.99        18.86626
429.44        18.99962
429.88        19.13509
430.33        18.99287
430.77        18.64478
431.22        18.46215
431.66        18.49721
432.11        18.61861
432.56        18.79646
433.00        19.11582
433.45        19.38498
433.89        19.31709
434.34        19.03657
434.78        18.75445
435.23        18.44987
435.67        19.31595
436.12         18.6681
436.57        18.59833
437.01         18.3969
437.46        18.36018
437.90        18.50067
438.35        18.69424
438.79        18.86394
439.24        18.94936
439.68        18.92825
440.13        18.66868
440.57        18.32001
441.02         18.4153
441.46        18.79605
441.91         18.8633
442.35        18.16394
442.80        17.94731
443.24        18.02558
443.69        18.01029
444.13         17.8752
444.58        17.77963
445.02        17.73473
445.47        17.74431
445.91          17.786
446.36        17.78339
446.80        17.72292
447.24        17.64957
447.69        17.58885
448.13         17.5412
448.58         17.5195
449.02        17.51729
449.47        17.52341
449.91        17.51301
450.36         17.4864
450.80        17.44818
451.25        17.41874
451.69        17.41078
452.13        17.43299
452.58         17.4725
453.02        17.52096
453.47        17.56768
453.91         17.6078
454.36        17.64151
454.80         17.6595
455.24        17.64371
455.69        17.59946
456.13        17.52024
456.58        17.44043
457.02        17.38925
457.46        17.37831
457.91        17.38354
458.35        17.38712
458.79        17.38251
459.24        17.36167
459.68        17.34155
460.13        17.37166
460.57        17.35563
461.01        17.27736
461.46        17.60912
461.90        17.67019
462.34        17.48518
462.79        17.63739
463.23        17.53194
463.68        17.44014
464.12        17.34216
464.56        17.38715
465.01        17.45499
465.45        17.51687
465.89        17.54595
466.34        17.54023
466.78        17.45169
467.22        17.33365
467.67        17.39584
468.11        17.59757
468.55        17.59385
468.99         17.4105
469.44        17.37385
469.88         17.4966
470.32        17.59361
470.77        17.63011
471.21        17.64228
471.65        17.62449
472.10        17.57082
472.54        17.50606
472.98        17.50702
473.42        17.58325
473.87        17.66162
474.31        17.72551
474.75        17.85785
475.20        18.01316
475.64        18.00129
476.08        17.87407
476.52        17.87053
476.97        18.00448
477.41        18.16521
477.85         18.2963
478.29        18.36113
478.74        18.34859
479.18        18.24023
479.62        18.12397
480.06        18.14224
480.50        18.29386
480.95        18.44903
481.39        18.55114
481.83         18.6038
482.27        18.59637
482.72         18.5257
483.16        18.43942
483.60        18.42233
484.04        18.48322
484.48        18.66509
484.93        19.01197
485.37        19.17137
485.81        19.21745
486.25        19.86676
486.69        20.11346
487.14        19.45555
487.58        19.64623
488.02        20.52597
488.46        20.08715
488.90        20.11528
489.34        19.92256
489.79        20.12005
490.23        20.60671
490.67        20.88403
491.11        20.91105
491.55        20.85654
491.99         20.7818
492.43        20.76654
492.88        20.84146
493.32        20.92579
493.76        21.03019
494.20        21.22012
494.64        21.49391
495.08        21.82189
495.52        22.14892
495.96        22.40951
496.41        22.58786
496.85        22.65737
497.29        22.67454
497.73        22.84048
498.17        23.14066
498.61        23.31539
499.05        23.36347
499.49        23.51999
499.93        23.79244
500.37        23.98906
500.82        24.11114
501.26        24.35682
501.70        24.66905
502.14        24.71674
502.58        24.56042
503.02        24.57721
503.46        24.79422
503.90        25.01711
504.34        25.18388
504.78        25.27784
505.22        25.28053
505.66        25.20547
506.10          25.106
506.54        25.06482
506.98        25.10915
507.42        25.22303
507.86        25.37527
508.30        25.51209
508.74        25.61496
509.18        25.69442
509.62        25.77719
510.06        25.90431
510.50        26.08146
510.94        26.29362
511.38        26.48635
511.82         26.5753
512.26        26.54488
512.70        26.42066
513.14        26.28257
513.58        26.25252
514.02        26.35129
514.46        26.54686
514.90        26.75871
515.34         26.7914
515.78        26.66029
516.22        26.46806
516.66        26.32065
517.10        26.05396
517.54        25.69744
517.98        26.28369
518.42        26.22293
518.86        26.47492
519.30        26.54805
519.74        26.60831
520.18        26.64685
520.62        26.62872
521.06         26.5729
521.50        26.47116
521.93        26.34831
522.37        26.25542
522.81        26.20461
523.25        26.18861
523.69        26.18864
524.13        26.17209
524.57        26.12882
525.01        26.06571
525.45        25.99827
525.89        25.95036
526.32        25.92599
526.76        25.92001
527.20        25.90545
527.64        25.84484
528.08        25.73103
528.52        25.57232
528.96        25.41126
529.40        25.31149
529.83        25.28283
530.27         25.3139
530.71        25.34148
531.15        25.26744
531.59        25.07904
532.03        24.81333
532.46        24.55045
532.90        24.43425
533.34        24.48234
533.78        24.64049
534.22        24.82819
534.66        24.92191
535.09        24.88478
535.53        24.76768
535.97        24.60266
536.41        24.43706
536.85        24.29717
537.28         24.1817
537.72         24.1197
538.16        24.08432
538.60        24.19287
539.04        24.32891
539.47        24.47551
539.91        24.61477
540.35        24.74632
540.79        24.66651
541.22        24.71721
541.66        24.75992
542.10        24.92158
542.54        24.79081
542.97        25.02175
543.41        25.14895
543.85        25.34745
544.29        25.55369
544.72        25.73283
545.16        25.90518
545.60        26.05737
546.04        26.10197
546.47        26.11756
546.91        26.39556
547.35        26.87032
547.79        27.19226
548.22        27.31202
548.66         27.3448
549.10        27.34198
549.53        27.48314
549.97           27.79
550.41        27.80332
550.84        28.04036
551.28        28.21193
551.72        28.48512
552.15        28.76294
552.59         29.0331
553.03        29.34201
553.46        29.64692
553.90        29.71914
554.34        29.86622
554.77         29.8518
555.21          29.828
555.65        29.86859
556.08        29.99161
556.52        30.16772
556.96        30.35751
557.39         30.5436
557.83        30.70063
558.27         30.7664
558.70        30.76512
559.14        30.79751
559.57        30.86504
560.01        30.95368
560.45        31.04076
560.88        31.04582
561.32        31.02555
561.75         31.0929
562.19        31.34198
562.63        31.41619
563.06        31.36434
563.50        31.41189
563.93        31.54646
564.37        31.69665
564.80        31.71325
565.24        31.79987
565.68        31.90166
566.11        31.99523
566.55        32.09898
566.98        32.18402
567.42        32.24882
567.85        32.54868
568.29        32.46956
568.72        32.83416
569.16        33.36342
569.60        33.63343
570.03        33.59188
570.47        33.67681
570.90        33.77533
571.34        33.85511
571.77         33.5297
572.21        34.16206
572.64        34.34739
573.08        34.56255
573.51         34.5233
573.95        35.07796
574.38        35.17212
574.82        35.30349
575.25        35.46918
575.69        35.32924
576.12        35.33481
576.56        35.23574
576.99        35.18695
577.42        35.37672
577.86        35.30754
578.29        35.45551
578.73        35.61478
579.16        35.41236
579.60        35.38671
580.03         35.0884
580.47        35.22524
580.90        34.97026
581.33        34.70485
581.77         34.6865
582.20        35.34837
582.64        34.89404
583.07        34.37035
583.51        34.55254
583.94        34.01344
584.37        33.77497
584.81        33.66335
585.24        33.58018
585.68        33.58716
586.11        33.35185
586.54        33.26204
586.98        33.15842
587.41        33.28808
587.85        33.32159
588.28        33.24113
588.71        33.11262
589.15        32.99864
589.58        32.61882
590.01        32.71157
590.45        33.10153
590.88        32.71283
591.31        32.95652
591.75        32.55323
592.18        32.74503
592.61        32.54353
593.05         32.8474
593.48        32.77398
593.91        33.55535
594.35        33.02803
594.78        33.07289
595.21        33.51458
595.65        33.59642
596.08        33.71612
596.51        33.80579
596.94        34.00743
597.38        34.07863
597.81        34.09259
598.24        34.32329
598.68        34.90546
599.11         34.9381
599.54        35.98692
599.97        35.68065
600.41        35.97191
600.84        36.40395
601.27        36.79039
601.70        37.11321
602.14         37.4413
602.57        37.79605
603.00        38.21189
603.43        38.57346
603.87        38.70522
604.30        39.03046
604.73        39.50097
605.16         39.7833
605.60        40.28061
606.03        40.68778
606.46        40.96523
606.89        41.71516
607.32        42.10114
607.76        41.89246
608.19         42.2401
608.62        42.72376
609.05        42.74995
609.48        42.98763
609.92        43.16066
610.35        43.30145
610.78        43.94596
611.21        44.49885
611.64        44.13833
612.07        44.59038
612.50        44.68566
612.94        44.59409
613.37        45.04873
613.80        45.27157
614.23        45.51812
614.66        45.90464
615.09        46.00955
615.52         46.3649
615.96           46.72
616.39        47.00146
616.82        47.27699
617.25        46.72432
617.68        47.15112
618.11         47.3675
618.54        47.75958
618.97           47.77
619.40        47.45806
619.84        47.28051
620.27        47.10019
620.70        47.50156
621.13        48.22875
621.56        48.39572
621.99        48.11899
622.42        48.08889
622.85        48.36786
623.28         48.5309
623.71        48.59371
624.14        48.55378
624.57        48.46374
625.00        48.58856
625.43        48.70361
625.86        47.99259
626.29         48.2075
626.72        48.01437
627.15        47.96836
627.58        47.98096
628.01        47.99635
628.44        47.98209
628.87         47.7979
629.30        47.49515
629.73        47.09093
630.16        46.99672
630.59        46.85627
631.02        46.64494
631.45        46.40558
631.88        46.11767
632.31        45.82191
632.74        45.43934
633.17        45.00111
633.60        44.59055
634.03        44.22436
634.46        43.88401
634.89        43.55015
635.32         43.1904
635.75        42.80087
636.18        42.40189
636.61        42.01581
637.04        41.67087
637.47        41.37213
637.89        41.11123
638.32        40.86665
638.75        40.62672
639.18         40.3866
639.61        40.16058
640.04        39.93337
640.47        39.70204
640.90        39.46542
641.33        39.22839
641.76        39.01239
642.18        38.85772
642.61        38.76506
643.04        38.72289
643.47        38.71087
643.90        38.69302
644.33        38.66042
644.76        38.62989
645.18        38.60376
645.61        38.58755
646.04        38.58871
646.47        38.60434
646.90         38.6669
647.33        38.82823
647.75        39.09454
648.18        39.44798
648.61         39.8313
649.04         40.1432
649.47        40.36511
649.89        40.53887
650.32         40.7313
650.75        41.02239
651.18        41.45855
651.61        42.04115
652.03        42.70699
652.46         43.3817
652.89        43.98989
653.32        44.26934
653.74        44.32237
654.17        44.78912
654.60        45.20018
655.03        46.03666
655.46         45.6511
655.88        46.86944
656.31        47.77295
656.74        51.82727
657.16        50.55312
657.59        48.31823
658.02        48.25721
658.45         48.3395
658.87        49.17259
659.30        49.71959
659.73        49.98137
660.15        50.70847
660.58        50.37012
661.01        50.22318
661.44        50.01027
661.86        50.15711
662.29        50.63559
662.72        51.22589
663.14        51.75682
663.57        51.76659
664.00        51.40482
664.42        51.38015
664.85        51.75622
665.27        52.08117
665.70        52.27292
666.13         52.4384
666.55        52.56879
666.98        52.62805
667.41        52.65758
667.83        52.68426
668.26        52.70745
668.69        52.86539
669.11        52.93561
669.54        53.00392
669.96        52.99207
670.39        53.16475
670.82         53.1406
671.24        53.24576
671.67        53.38201
672.09        53.61908
672.52        53.89201
672.94        54.03998
673.37        54.04576
673.80         53.9343
674.22        53.79236
674.65         53.7625
675.07        53.88595
675.50        54.09423
675.92          54.319
676.35        54.43347
676.77         54.4131
677.20        54.30258
677.62        54.16372
678.05        54.10273
678.47        54.14307
678.90         54.2521
679.32        54.39857
679.75        54.53495
680.17        54.63849
680.60        54.73613
681.02        54.82233
681.45        54.83453
681.87        54.80436
682.30        54.81512
682.72        54.86895
683.15        54.89076
683.57        54.89369
684.00        54.83961
684.42        54.91004
684.85        55.01704
685.27        55.20055
685.70        55.44634
686.12        55.67837
686.54        55.79825
686.97        55.78006
687.39        55.64182
687.82        55.44995
688.24          55.381
688.66        55.44648
689.09        55.51928
689.51        55.57106
689.94        55.61725
690.36        55.65997
690.78        55.63727
691.21        55.57086
691.63        55.65328
692.06        55.92189
692.48         55.8938
692.90        56.06302
693.33        56.45158
693.75        56.23992
694.17        56.21838
694.60        56.13296
695.02        56.02051
695.44        55.87753
695.87        55.86629
696.29        55.96196
696.71        55.78216
697.14        55.50282
697.56        55.84067
697.98        56.58471
698.41        57.17621
698.83        56.76855
699.25        56.49823
699.68        56.27639
700.10        56.13698
700.52        56.13685
700.94        56.27792
701.37        56.47405
701.79        56.61373
702.21        56.63747
702.64         56.5831
703.06        56.50735
703.48        56.50523
703.90        56.60185
704.33         56.7613
704.75        56.91725
705.17        56.94136
705.59        56.80904
706.01         56.5616
706.44        56.32193
706.86        56.27112
707.28        56.43618
707.70        56.78031
708.12        57.22101
708.55        57.33966
708.97        57.17317
709.39        57.14003
709.81        57.24871
710.23        57.20086
710.66         57.0093
711.08        56.86847
711.50        56.82224
711.92        56.85754
712.34        56.98278
712.76        57.21026
713.19        57.45404
713.61        57.61036
714.03        57.62645
714.45        57.53241
714.87        57.41362
715.29        57.40829
715.71        57.54464
716.13         57.7773
716.56        58.01552
716.98        58.17358
717.40        58.19409
717.82        58.11531
718.24        57.99376
718.66        57.91899
719.08        57.91872
719.50        57.96364
719.92        58.02377
720.34        58.05164
720.76        58.03407
721.19        57.98879
721.61        57.94263
722.03        57.90604
722.45        57.90302
722.87        57.91293
723.29         57.9381
723.71        57.97577
724.13        58.02559
724.55        58.09297
724.97        58.17299
725.39        58.25554
725.81        58.33727
726.23        58.41488
726.65        58.49998
727.07        58.61537
727.49        58.76041
727.91        58.92204
728.33        59.07087
728.75        59.15791
729.17        59.17143
729.59        59.13102
730.01         59.0589
730.43        58.99128
730.85        58.94436
731.27        58.90704
731.69        58.88971
732.10        58.92247
732.52        59.00207
732.94        59.08953
733.36        59.13685
733.78        59.16867
734.20         59.2157
734.62        58.87893
735.04        58.86714
735.46        58.79254
735.88        58.90269
736.30        58.59465
736.72        58.76391
737.13        59.00083
737.55        59.41466
737.97        59.65956
738.39        59.67068
738.81        59.46678
739.23        59.15146
739.65        59.12153
740.06        59.32489
740.48        59.34093
740.90        59.14268
741.32         59.0416
741.74        59.07241
742.16        59.11666
742.57        59.18022
742.99        59.27256
743.41        59.37783
743.83        59.44638
744.25        59.46353
744.67        59.43237
745.08        59.37072
745.50         59.2836
745.92        59.19525
746.34        59.10883
746.75        59.03374
747.17        58.98329
747.59        58.96466
748.01         58.9825
748.42        59.05051
748.84        59.16508
749.26        59.32348
749.68        59.48986
750.09        59.64516
750.51        59.78547
750.93         59.8866
751.35        59.90168
751.76        59.81503
752.18        59.67382
752.60        59.48454
753.01        59.23746
753.43        59.00949
753.85        58.92888
754.27        59.01597
754.68        59.34246
755.10        59.80991
755.52        59.72901
755.93        59.89187
756.35        59.71926
756.77        59.55727
757.18        59.50206
757.60        59.61332
758.02        59.83056
758.43         60.0512
758.85        60.08429
759.26        60.32682
759.68        59.82783
760.10         59.8913
760.51        59.63273
760.93        59.48191
761.34        59.29213
761.76         59.5303
762.18        59.42048
762.59        59.18395
763.01        59.21943
763.42        59.56099
763.84        59.84254
764.26         59.9953
764.67        59.91444
765.09        59.75606
765.50        59.91191
765.92        60.35179
766.33        60.66996
766.75        60.70923
767.16        60.52777
767.58        60.15454
768.00        59.75247
768.41        59.49992
768.83        59.56422
769.24        59.90688
769.66        60.31786
770.07        60.63609
770.49          60.681
770.90        60.51183
771.32        60.50214
771.73        60.67025
772.15        60.67248
772.56        60.52769
772.97        60.47587
773.39        60.48063
773.80        60.40958
774.22        60.22739
774.63        59.93879
775.05        59.64848
775.46        59.59237
775.88        59.78758
776.29        60.17379
776.70        60.58172
777.12        60.76385
777.53        60.66245
777.95        60.34576
778.36        59.97969
778.77        59.79449
779.19        59.89188
779.60        60.36702
780.02        60.95272
780.43        61.23301
780.84        61.12865
781.26        60.51324
781.67        59.75312
782.09        60.13736
782.50         61.3916
782.91        61.65285
783.33        60.92912
783.74        60.78784
784.15        61.24652
784.57          61.369
784.98        61.11755
785.39        60.87255
785.81        60.66869
786.22        60.44117
786.63        60.24929
787.04        60.17983
787.46        60.24152
787.87        60.41521
788.28        60.66995
788.70        60.89204
789.11        61.01055
789.52        61.19358
789.93        61.38855
790.35        61.22659
790.76        60.83589
791.17        60.88384
791.58        61.30395
792.00        61.31666
792.41         60.8979
792.82        60.65814
793.23        60.59456
793.65        60.24611
794.06        59.88915
794.47        60.05814
794.88        60.53058
795.29        61.65904
795.71        62.05731
796.12        60.97672
796.53        61.42453
796.94        60.96032
797.35        60.72245
797.76        60.66546
798.18        60.80201
798.59        61.01951
799.00         61.2059
799.41        61.34879
799.82        61.41564
800.23        61.46122
800.64        61.47848
801.06        61.35049
801.47        61.18021
801.88         61.1471
802.29        61.27265
802.70        61.48178
803.11        61.67786
803.52        61.70281
803.93        61.53344
804.34        61.24921
804.75        60.90586
805.17        60.66517
805.58        60.60862
805.99        60.42244
806.40        60.20637
806.81        60.79615
807.22        61.88054
807.63        61.88499
808.04        60.97523
808.45        60.79235
808.86        61.43708
809.27        61.95663
809.68        62.19907
810.09        62.37169
810.50        62.42299
810.91         62.2994
811.32        62.05614
811.73        61.78268
812.14        61.51901
812.55         61.2667
812.96        61.05679
813.37          60.925
813.78        60.88878
814.19         60.9615
814.60        61.09573
815.01        61.21093
815.42        61.28048
815.83        61.29632
816.24        61.30449
816.65        61.39425
817.05        61.58592
817.46        61.82175
817.87        62.00127
818.28         61.9307
818.69         61.5902
819.10        61.04288
819.51        60.50409
819.92        60.35904
820.33        60.70358
820.74         61.4043
821.14        62.22671
821.55        62.76178
821.96         62.9055
822.37        62.77438
822.78        62.47585
823.19        62.19645
823.60        62.01575
824.00        61.88478
824.41        61.80039
824.82        61.84292
825.23        62.00738
825.64        62.29124
826.04         62.5982
826.45        62.71984
826.86        62.62191
827.27         62.3473
827.68        61.99513
828.08        61.76525
828.49        61.68063
828.90        61.72176
829.31        61.82943
829.72        61.89519
830.12        61.90097
830.53        61.85024
830.94        61.80436
831.35        61.82765
831.75        61.94994
832.16        62.10015
832.57         62.2444
832.97        62.30603
833.38        62.25228
833.79         62.1167
834.20         61.9493
834.60        61.81833
835.01        61.76225
835.42        61.76455
835.82        61.80776
836.23        61.81468
836.64         61.7825
837.04        61.72757
837.45        61.68138
837.86        61.73129
838.26        61.90119
838.67        62.13858
839.08        62.35584
839.48        62.38334
839.89        62.18265
840.29        61.82222
840.70        61.47623
841.11        61.33867
841.51        61.47058
841.92        61.78002
842.33        62.19226
842.73        62.57785
843.14        62.80327
843.54        62.94802
843.95        62.99319
844.35        62.98106
844.76        62.93234
845.17        62.84499
845.57        62.73229
845.98        62.64515
846.38        62.59936
846.79        62.57637
847.19        62.63471
847.60        62.76135
848.00        62.99314
848.41        63.27602
848.81        63.56631
849.22        63.71501
849.62        63.72603
850.03        63.58539
850.43        63.40904
850.84         63.3376
851.24        63.45298
851.65        63.66395
852.05        63.89336
852.46         63.9309
852.86        63.74923
853.27        63.39585
853.67        62.95557
854.07        62.78403
854.48        62.85099
854.88        62.84159
855.29        62.70296
855.69        62.73782
856.10        62.87894
856.50        63.01475
856.90        63.11481
857.31        63.23776
857.71        63.43385
858.12        63.61362
858.52        63.74047
858.92        63.65943
859.33         63.3391
859.73        62.84315
860.13        62.31633
860.54        62.04531
860.94        62.15631
861.34        62.54575
861.75        62.96748
862.15        63.10036
862.55        62.82143
862.96        62.27108
863.36        61.62118
863.76        61.14585
864.17        60.94071
864.57        60.93866
864.97        61.10989
865.38        61.39997
865.78        61.80431
866.18        62.25789
866.58        62.63952
866.99        62.73732
867.39        62.52522
867.79        62.05074
868.19         61.3191
868.60        60.33554
869.00        59.13024
869.40        57.78276
869.80        56.65407
870.21        56.32318
870.61         56.9505
871.01        58.31614
871.41        59.89843
871.81        60.85774
872.22        61.00738
872.62        60.57614
873.02        59.84732
873.42        59.58264
873.82        59.69655
874.22        59.29813
874.63         58.6691
875.03        58.49497
875.43        58.86734
875.83        60.96265
876.23        60.72954
876.63        59.94603
877.03        57.91028
877.44        54.80943
877.84        141.8134
878.24        55.30813
878.64        57.25969
879.04         62.6483
879.44        58.20074
879.84        55.74197
880.24        61.71051
880.64        62.09101
881.04        58.29033
881.44        55.89679
881.84        55.77023
882.24        57.00497
882.65        58.86681
883.05        59.77846
883.45        59.26459
883.85        58.23068
884.25        57.24662
884.65        56.78638
885.05        57.02137
885.45        57.74654
885.85        58.61006
886.25         59.0668
886.65        58.96101
887.05        58.49104
887.45         57.9509
887.85        57.76572
888.25        58.04617
888.65        58.64948
889.04        59.38829
889.44        59.88471
889.84        60.03133
890.24        59.91628
890.64        59.67785
891.04        59.52703
891.44         59.4965
891.84        59.48505
892.24        59.37154
892.64        58.97085
893.04        58.28588
893.44        57.48152
893.83        56.65202
894.23        55.91561
894.63        55.31381
895.03        54.80268
895.43        54.51036
895.83        54.65136
896.23        55.22292
896.63        56.14508
897.02        57.09822
897.42        57.49926
897.82        57.22408
898.22        56.45779
898.62        55.53644
899.01        54.98937
899.41        54.97865
899.81        55.31541
900.21        55.87921
900.61         56.4893
901.00        57.04675
901.40        57.58323
901.80        58.01604
902.20        58.18324
902.59        58.06475
902.99        57.69772
903.39        57.18388
903.79        56.71433
904.18        56.36848
904.58        56.15516
904.98        56.11917
905.38        56.32328
905.77        56.74577
906.17        57.35773
906.57        57.98949
906.96        58.39908
907.36        58.46632
907.76        58.21985
908.15        57.82778
908.55        57.52161
908.95        57.39352
909.34        57.43821
909.74        57.43711
910.14        56.98955
910.53        56.04931
910.93        54.81842
911.33        53.81344
911.72        53.84639
912.12        54.97435
912.52        56.83669
912.91        58.77059
913.31        59.66794
913.70        59.32579
914.10        58.06585
914.49        56.28811
914.89        54.94905
915.29        54.43319
915.68        54.48016
916.08        54.97321
916.47        55.74888
916.87        56.63666
917.26        57.67769
917.66         58.6176
918.05        59.05037
918.45        58.87429
918.84        58.24652
919.24        57.30877
919.64        56.34235
920.03        55.50459
920.42        54.74963
920.82        54.35793
921.21        54.70813
921.61        55.74816
922.00        57.39301
922.40        58.99833
922.79        59.73751
923.19        59.43016
923.58        58.00234
923.98        55.87422
924.37        54.86251
924.77        55.63011
925.16        53.06475
925.55        55.49298
925.95        55.61839
926.34        55.86411
926.74        56.09704
927.13        56.44102
927.52        56.80917
927.92        57.13355
928.31        57.47931
928.70        57.72396
929.10        57.73185
929.49        57.47834
929.89        57.01416
930.28        56.57981
930.67        56.55811
931.07        56.99108
931.46        57.81632
931.85        58.67026
932.24        59.01944
932.64        58.73922
933.03         57.8605
933.42        56.72559
933.82        56.04835
934.21         56.0071
934.60        56.43202
934.99        56.67155
935.39        56.20169
935.78        54.99011
936.17        52.43321
936.56        48.86564
936.96          50.346
937.35        49.53121
937.74         52.0743
938.13        54.65252
938.53        56.38642
938.92        57.15719
939.31        57.31654
939.70        57.11057
940.09        56.78922
940.49        56.54478
940.88        56.31074
941.27        56.21309
941.66        56.49428
942.05        57.14185
942.44        58.04506
942.84        59.05541
943.23        59.88662
943.62         60.3956
944.01        60.70385
944.40        60.59366
944.79        59.72802
945.18        58.11525
945.57          55.814
945.97        53.61472
946.36        52.87882
946.75        53.98522
947.14        56.42691
947.53        59.07936
947.92        60.39553
948.31        60.09365
948.70        58.64472
949.09        56.70615
949.48        55.44793
949.87        55.26266
950.26        55.76427
950.65        56.60713
951.04        57.22761
951.43        57.41201
951.82        57.39682
952.21        57.21527
952.60        56.87805
952.99        56.43422
953.38        55.82288
953.77        55.21531
954.16        54.92068
954.55        54.98972
954.94        55.37744
955.33        55.82202
955.72        55.85687
956.11        55.38704
956.50        54.54945
956.89        53.67548
957.28        53.40492
957.66        53.91283
958.05        54.83517
958.44        55.85423
958.83        56.55963
959.22        56.83544
959.61        56.84348
960.00        56.47999
960.39        55.57924
960.78        54.23011
961.16        52.51253
961.55        50.96319
961.94        50.28062
962.33        50.59196
962.72        51.72366
963.11        53.17674
963.49        54.05655
963.88        54.01151
964.27        53.30416
964.66        52.32363
965.04        51.73961
965.43        51.75692
965.82        52.17608
966.21        52.75916
966.60        53.13532
966.98        53.20207
967.37         53.0663
967.76        52.94233
968.15        53.12674
968.53        53.68468
968.92        54.42117
969.31        55.08366
969.69        55.27516
970.08        54.84911
970.47        53.96671
970.86        52.86136
971.24        51.87312
971.63        51.19665
972.02        50.78389
972.40        50.53543
972.79        50.31245
973.17        50.07798
973.56          49.804
973.95        49.70515
974.33        50.11665
974.72        50.96204
975.11        52.11184
975.49        53.08777
975.88        53.16976
976.26        52.24688
976.65        50.57057
977.04        48.67281
977.42        47.47522
977.81        47.29962
978.19        47.90057
978.58        48.92585
978.96        49.73927
979.35        50.06353
979.74        50.15154
980.12        50.18973
980.51        50.27211
980.89        50.55159
981.28        50.80728
981.66        51.10265
982.05        51.60078
982.43        52.29241
982.82        53.09599
983.20        53.83788
983.59        53.93157
983.97         53.3378
984.35        52.19997
984.74        50.85934
985.12        49.73227
985.51        48.97281
985.89        48.40565
986.28        48.12366
986.66         48.2793
987.04        48.80796
987.43        49.66735
987.81        50.31795
988.20        50.04729
988.58        48.65641
988.96        46.02448
989.35        42.78838
989.73        40.92296
990.12        41.50218
990.50         43.9976
990.88        46.73504
991.27        47.72452
991.65        46.93217
992.03        44.89189
992.42         42.7616
992.80        42.68772
993.18        45.23819
993.56        49.26197
993.95        53.41903
994.33        56.38905
994.71        57.65662
995.10        57.73818
995.48        56.84616
995.86        55.15086
996.24        52.80953
996.63        49.67437
997.01        46.16279
997.39        43.80597
997.77        43.34417
998.15         44.4725
998.54         46.1939
998.92        47.29193
999.30        47.47812
999.68        46.97427
1000.06        45.73421
1000.45        44.18866
1000.83        42.96243
1001.21        41.96978
1001.59        41.27579
1001.97        40.82767
1002.35        40.46515
1002.73         40.2174
1003.12        39.91592
1003.50        39.21005
1003.88        38.10295
1004.26        36.87479
1004.64        35.76825
1005.02        35.06225
1005.40         34.8186
1005.78         34.8451
1006.16        35.47674
1006.54        37.19666
1006.92        39.56395
1007.30        41.97449
1007.69        43.48703
1008.07        43.31426
1008.45        41.12719
1008.83        36.67885
1009.21         29.5096
1009.59        21.27835
1009.97        15.06196
1010.35        12.01023
1010.73        13.02794
1011.11        17.41377
1011.49        23.82503
1011.86        32.04303
1012.24        38.85437
1012.62        41.32158
1013.00         39.4316
1013.38        34.22314
1013.76         27.9317
1014.14         24.6168
1014.52        25.48459
1014.90        29.46042
1015.28        34.49883
1015.66        37.09256
1016.04         36.0606
1016.41        32.17765
1016.79        26.89011
1017.17        23.71817
1017.55        24.17148
1017.93        26.66648
1018.31        29.52132
1018.69         31.3202
1019.06        31.78859
1019.44        31.11285
1019.82        29.47924
1020.20        27.22905
1020.58        24.71766
1020.95        22.18203
1021.33        18.78111
1021.71         11.9187
1022.09      -0.8614781
1022.46       -25.74282
1022.84       -63.53539
1023.22       -77.36723
1023.60       -44.92356
1023.97       -6.119339
1024.35        16.50648
1024.73        24.58977
