SpectraSmart Spectrum 2.9.0.0
--------- Device Information -----------
Spectrum Name :  反射率_0
Saving Time :  2024/04/20 00:10:45
Spectro-Module Model Name : SE2030-DUVN
Spectro-Module Serial Number : OS361AC55029948
Wavelength Start : 200
Wavelength End : 1025
Wavelength Unit : Wavelength(nm)
Spectrum Unit : Reflectance(%)
-----------Spectrum Setting ------------
Integration Time : 30ms
Average : 10
Boxcar : 0
Background removal :  enabled
linearity correction :  enabled
SC :  disabled
Intensity correction :  disabled
DWT denoise :  enabled
savitzky-golay :  disabled
FFT :  disabled
Running average :  disabled
Kalman :  disabled
High pass :  disabled
---------------BEGIN--------------------
Wavelength(nm)             Reflectance(%)
200.29               0
200.75        63.83592
201.21        67.26624
201.67        74.17438
202.13        83.65369
202.58        94.73679
203.04        107.5389
203.50        118.3368
203.96        119.1382
204.42        110.6318
204.88        98.56982
205.34        88.11475
205.80        81.37923
206.26        77.15323
206.72        74.02481
207.18        71.85696
207.64        71.43447
208.10        73.49581
208.55        77.84299
209.01        81.92306
209.47        84.49155
209.93         85.5769
210.39        85.37782
210.85        84.23601
211.31         82.5503
211.77        80.24825
212.23        76.96439
212.69        72.79346
213.14        69.81622
213.60        69.23548
214.06        70.75186
214.52        72.86627
214.98        74.70146
215.44        76.30183
215.90        77.71829
216.36         79.4265
216.81        82.01498
217.27        85.07539
217.73        88.34663
218.19        90.20786
218.65        88.50252
219.11        83.06718
219.57        74.23605
220.02        64.51603
220.48        60.59829
220.94        64.73074
221.40        75.37959
221.86        88.27655
222.32         96.8494
222.77        99.21865
223.23        97.47479
223.69        93.66157
224.15        90.88388
224.61        90.01859
225.06        89.92186
225.52        90.20399
225.98        90.50149
226.44        90.73605
226.90        91.17738
227.36         91.8364
227.81        92.41164
228.27        93.01573
228.73        93.45372
229.19        93.70772
229.65         93.8177
230.10        93.73702
230.56        93.67661
231.02        93.54216
231.48        93.34744
231.93        93.02327
232.39         92.6025
232.85        92.14127
233.31        91.80906
233.77        91.61608
234.22        91.56992
234.68        91.33678
235.14        90.27996
235.60        88.38687
236.05        85.94173
236.51        83.64696
236.97        82.50534
237.43        82.78897
237.88        84.64254
238.34        87.40012
238.80        89.56168
239.26        89.86202
239.71        88.46449
240.17        85.91848
240.63        83.78677
241.08        82.58784
241.54        81.87611
242.00        81.10596
242.46        79.07761
242.91        75.11603
243.37        68.43643
243.83        59.53927
244.28        54.03561
244.74        57.43009
245.20        68.65826
245.66        80.03815
246.11        85.15408
246.57        83.51756
247.03         75.8531
247.48        63.68291
247.94        58.20074
248.40        62.36567
248.85        68.80643
249.31        73.91163
249.77        76.83485
250.22        78.17307
250.68        78.80864
251.14        78.91436
251.59        78.44585
252.05        77.62534
252.51        76.63364
252.96        75.32014
253.42        73.82024
253.88        72.59422
254.33        71.88569
254.79        73.14906
255.25        77.45032
255.70         84.0368
256.16        91.59458
256.62         98.2299
257.07        101.8883
257.53        102.7411
257.99        101.5791
258.44        98.78735
258.90        95.91714
259.35        93.17409
259.81        91.37506
260.27        90.04659
260.72         88.8063
261.18        87.92401
261.63         86.8246
262.09        86.27016
262.55        86.59443
263.00        87.47592
263.46          88.835
263.91        89.48042
264.37         88.5478
264.83        86.07082
265.28        82.51106
265.74        79.21652
266.19        77.42912
266.65        77.42429
267.11        78.50527
267.56        79.77589
268.02        80.03115
268.47        78.99471
268.93        77.10843
269.38        74.86356
269.84        73.28464
270.30        72.63617
270.75         72.5782
271.21        72.70531
271.66         72.3872
272.12         71.4726
272.57        70.15987
273.03        68.74938
273.48        67.56854
273.94        66.78644
274.39         66.2134
274.85        65.72105
275.31        65.02948
275.76        64.04969
276.22        62.93155
276.67        61.78199
277.13        60.93261
277.58        60.34071
278.04        59.96512
278.49         59.5205
278.95        58.76213
279.40        57.59053
279.86        56.24218
280.31        54.84835
280.77        53.81074
281.22        53.09813
281.68         52.6496
282.13        52.27405
282.59        51.79348
283.04        51.12996
283.50        50.41152
283.95        49.66676
284.41        49.02293
284.86        48.46358
285.32        47.98711
285.77        47.55537
286.22        47.21686
286.68        46.96916
287.13        46.75318
287.59        46.53889
288.04        46.20106
288.50        45.75297
288.95        45.18689
289.41        44.57801
289.86         43.9491
290.32        43.38665
290.77        42.87644
291.22        42.47485
291.68        42.22562
292.13        42.12296
292.59         42.1763
293.04        42.35762
293.50        42.65434
293.95        43.02885
294.40        43.46717
294.86        43.93064
295.31        44.37025
295.77        44.77476
296.22        45.14972
296.68        45.50607
297.13        45.84962
297.58        46.19518
298.04        46.54872
298.49        46.92899
298.95        47.40998
299.40        47.97575
299.85        48.60456
300.31        49.23742
300.76        49.76203
301.21        50.16161
301.67        50.50202
302.12        50.78147
302.58        51.08999
303.03        51.41292
303.48        51.74514
303.94        52.13464
304.39         52.6013
304.84        53.14677
305.30        53.74918
305.75        54.28289
306.20        54.59481
306.66        54.68417
307.11         54.5789
307.57        54.41604
308.02        54.30646
308.47        54.31603
308.93        54.40645
309.38        54.52853
309.83        54.67315
310.29        54.81556
310.74        54.95359
311.19        55.02729
311.65        54.93458
312.10        54.65522
312.55        54.22301
313.00        53.74387
313.46        53.38065
313.91        53.15738
314.36        53.05358
314.82        52.98294
315.27        52.83357
315.72        52.56348
316.18        52.22153
316.63        51.86978
317.08        51.62026
317.53        51.48761
317.99        51.42051
318.44        51.33959
318.89        51.10555
319.35        50.69121
319.80        50.15177
320.25        49.57503
320.70         49.1035
321.16        48.77087
321.61        48.53962
322.06        48.35478
322.51        48.13002
322.97        47.82533
323.42        47.47926
323.87        47.09222
324.32        46.67133
324.78        46.22096
325.23        45.75649
325.68        45.29243
326.13        44.86788
326.59        44.49893
327.04        44.21022
327.49        43.99533
327.94        43.84664
328.39        43.74778
328.85        43.65948
329.30         43.6126
329.75        43.59009
330.20        43.57398
330.66        43.54092
331.11        43.44646
331.56        43.15995
332.01        42.66848
332.46        42.00968
332.92         41.3172
333.37        40.84604
333.82        40.66729
334.27        40.74177
334.72        40.93507
335.17         41.0024
335.63        40.85491
336.08        40.56777
336.53        40.26284
336.98         40.1664
337.43        40.32803
337.88        40.67002
338.34        40.99877
338.79        41.05757
339.24         40.7685
339.69        40.21616
340.14        39.62002
340.59        39.34424
341.05        39.46603
341.50        39.87466
341.95        40.34342
342.40        40.52393
342.85        40.33731
343.30         39.9102
343.75        39.40245
344.20        39.07092
344.66        38.99054
345.11        39.05081
345.56        39.19371
346.01         39.3288
346.46        39.40419
346.91        39.45668
347.36        39.42639
347.81        39.20927
348.26        38.81372
348.72        38.30165
349.17        37.77411
349.62        37.47773
350.07        37.47486
350.52        37.68507
350.97        38.01376
351.42        38.31458
351.87        38.52247
352.32         38.6621
352.77        38.69683
353.22         38.5732
353.67        38.29831
354.13          37.907
354.58        37.45462
355.03        37.07844
355.48        36.82575
355.93        36.68288
356.38        36.62639
356.83        36.60757
357.28        36.59826
357.73        36.59344
358.18         36.5908
358.63        36.58727
359.08        36.56858
359.53        36.52491
359.98        36.40113
360.43        36.11944
360.88        35.68299
361.33        35.13074
361.78        34.57388
362.23        34.19321
362.68        34.03128
363.13        34.03038
363.58        34.09155
364.03        34.05613
364.48        33.87278
364.93        33.58159
365.38        33.21689
365.83        32.84423
366.28        32.49572
366.73        32.15296
367.18        31.82289
367.63        31.51812
368.08        31.24284
368.53        31.00852
368.98        30.80633
369.43        30.61042
369.88        30.41488
370.33        30.22528
370.78        30.05098
371.23        29.91261
371.68        29.81416
372.13        29.74028
372.58        29.68531
373.03         29.6444
373.48        29.60381
373.93         29.5533
374.38        29.46807
374.83        29.31052
375.28        29.07519
375.72        28.77061
376.17        28.43983
376.62        28.11207
377.07         27.8149
377.52         27.5512
377.97        27.34682
378.42        27.23731
378.87        27.21565
379.32        27.25724
379.77        27.31926
380.22        27.33445
380.67         27.2839
381.11        27.19356
381.56        27.04796
382.01        26.84977
382.46        26.61275
382.91        26.33179
383.36        26.08043
383.81        25.96869
384.26        26.00736
384.71        26.17228
385.15        26.33199
385.60        26.29008
386.05        26.01262
386.50        25.56309
386.95        25.10636
387.40        24.90543
387.85        25.00754
388.29        25.30953
388.74        25.64853
389.19        25.77563
389.64        25.63939
390.09        25.31458
390.54        24.92876
390.98        24.67591
391.43        24.62907
391.88        24.70992
392.33        24.81044
392.78        24.77858
393.23        24.59387
393.67        24.30263
394.12        24.03789
394.57        23.89919
395.02        23.90669
395.47        24.01795
395.91         24.1611
396.36        24.18671
396.81        24.06992
397.26        23.85734
397.71        23.63755
398.15        23.52197
398.60        23.56026
399.05        23.69393
399.50        23.84611
399.95        23.91004
400.39        23.85994
400.84        23.72185
401.29        23.56004
401.74        23.49173
402.18        23.55257
402.63        23.69773
403.08        23.83524
403.53        23.81572
403.97        23.61504
404.42        23.29909
404.87        22.98533
405.32        22.86559
405.76        22.97693
406.21        23.24856
406.66        23.56648
407.11        23.75289
407.55        23.76074
408.00        23.65042
408.45        23.47333
408.90        23.26166
409.34        23.07923
409.79        23.02612
410.24        23.06675
410.68        23.04823
411.13        22.96533
411.58        22.91011
412.03         22.8937
412.47        22.89862
412.92        22.92019
413.37        22.95067
413.81        23.00243
414.26        23.11416
414.71        23.27719
415.15         23.4857
415.60        23.65382
416.05        23.67459
416.49        23.52632
416.94        23.24869
417.39         22.9398
417.83        22.75756
418.28        22.74805
418.73        22.85827
419.17        23.01153
419.62        23.07684
420.07        23.02555
420.51        22.90493
420.96        22.76477
421.41        22.65676
421.85        22.59427
422.30        22.56911
422.74         22.5789
423.19        22.66072
423.64        22.80005
424.08        22.99765
424.53        23.18003
424.98         23.2512
425.42        23.19178
425.87         23.0358
426.31        22.83457
426.76        22.67719
427.21        22.57922
427.65        22.50691
428.10        22.48778
428.54        22.53403
428.99         22.6423
429.44        22.90783
429.88        23.17944
430.33        23.06992
430.77        22.65392
431.22         22.3967
431.66        22.38108
432.11        22.47711
432.56         22.6595
433.00        23.02919
433.45         23.3551
433.89        23.24422
434.34        22.83719
434.78        22.47301
435.23        22.16883
435.67        23.00421
436.12        22.48724
436.57        22.41904
437.01        22.15135
437.46        22.07891
437.90        22.22057
438.35        22.37899
438.79        22.48385
439.24        22.54327
439.68        22.54095
440.13        22.29445
440.57        21.96231
441.02        22.15461
441.46        22.67209
441.91        22.80359
442.35        21.99087
442.80        21.73256
443.24         21.8069
443.69        21.74224
444.13        21.53777
444.58        21.43398
445.02        21.45185
445.47        21.58139
445.91        21.75127
446.36        21.79567
446.80         21.6827
447.24        21.48977
447.69        21.29414
448.13        21.16964
448.58        21.14826
449.02        21.20074
449.47        21.27514
449.91         21.2796
450.36         21.2011
450.80        21.06971
451.25        20.94413
451.69        20.89189
452.13        20.93386
452.58        21.03339
453.02        21.15539
453.47        21.25353
453.91         21.3103
454.36        21.33794
454.80        21.32989
455.24        21.27311
455.69        21.18146
456.13        21.03988
456.58         20.9009
457.02        20.83146
457.46        20.83942
457.91        20.85931
458.35        20.86682
458.79        20.87862
459.24        20.88151
459.68        20.87927
460.13        20.92822
460.57        20.91845
461.01        20.82959
461.46        21.23166
461.90         21.3056
462.34        21.08827
462.79        21.28432
463.23        21.17513
463.68        21.08584
464.12        20.98987
464.56        21.06274
465.01        21.15954
465.45        21.24233
465.89        21.27148
466.34        21.24415
466.78         21.1188
467.22        20.96239
467.67        20.99655
468.11        21.19076
468.55        21.21128
468.99        21.06961
469.44        21.05483
469.88        21.17434
470.32        21.25845
470.77        21.28349
471.21        21.29904
471.65        21.30228
472.10        21.27668
472.54        21.23879
472.98        21.25838
473.42        21.33997
473.87        21.40508
474.31        21.43332
474.75        21.52606
475.20        21.63378
475.64        21.53073
476.08        21.30107
476.52        21.26053
476.97        21.42927
477.41        21.66612
477.85        21.88027
478.29        21.98712
478.74        21.96161
479.18        21.79388
479.62        21.60592
480.06        21.59229
480.50        21.75976
480.95        21.94809
481.39        22.08138
481.83        22.14987
482.27        22.13446
482.72         22.0345
483.16        21.91474
483.60        21.86932
484.04        21.90401
484.48        22.10947
484.93        22.49896
485.37        22.55306
485.81        22.48894
486.25        23.20412
486.69        23.62117
487.14        23.17709
487.58        22.97604
488.02        23.56374
488.46        23.12283
488.90        23.20996
489.34        23.17331
489.79        23.32216
490.23        23.58128
490.67        23.75819
491.11         23.8288
491.55        23.78804
491.99        23.68997
492.43         23.6743
492.88        23.77097
493.32        23.89858
493.76        24.04002
494.20        24.20397
494.64         24.3836
495.08        24.57315
495.52         24.7643
495.96        24.96338
496.41        25.16957
496.85        25.32733
497.29        25.44831
497.73        25.67475
498.17        25.96816
498.61        26.06335
499.05        25.99175
499.49        26.07009
499.93        26.32459
500.37        26.52238
500.82        26.65928
501.26        26.94582
501.70        27.31156
502.14        27.39533
502.58        27.24461
503.02        27.24516
503.46        27.42294
503.90         27.5703
504.34        27.64996
504.78        27.69537
505.22        27.70032
505.66         27.6685
506.10        27.62892
506.54        27.62311
506.98        27.66659
507.42        27.75249
507.86         27.8759
508.30        28.02224
508.74        28.18489
509.18         28.3557
509.62        28.52346
510.06        28.66769
510.50        28.78372
510.94        28.87862
511.38        28.94613
511.82        28.98069
512.26        28.98603
512.70        28.96115
513.14        28.94573
513.58        28.99664
514.02        29.11537
514.46        29.29217
514.90         29.4631
515.34        29.45617
515.78        29.30513
516.22        29.09242
516.66        28.93027
517.10        28.67406
517.54        28.35282
517.98        28.96046
518.42        28.94677
518.86          29.206
519.30          29.259
519.74        29.27541
520.18        29.26507
520.62        29.22458
521.06        29.17976
521.50        29.11187
521.93        29.03383
522.37        28.97702
522.81        28.94621
523.25        28.94048
523.69        28.94152
524.13        28.91705
524.57        28.85951
525.01        28.77546
525.45        28.68755
525.89         28.6323
526.32        28.61579
526.76        28.62901
527.20        28.63819
527.64         28.5938
528.08        28.48528
528.52        28.32586
528.96        28.15899
529.40        28.04974
529.83        28.01027
530.27        28.02947
530.71        28.05187
531.15        27.99232
531.59        27.83942
532.03        27.62615
532.46         27.4197
532.90        27.34389
533.34        27.41142
533.78        27.57406
534.22        27.76114
534.66        27.86573
535.09        27.85341
535.53        27.76705
535.97        27.63282
536.41        27.48933
536.85        27.35863
537.28        27.24489
537.72        27.17248
538.16        27.09742
538.60        27.15468
539.04        27.22169
539.47        27.30182
539.91        27.40888
540.35        27.54984
540.79        27.48761
541.22        27.58803
541.66         27.6727
542.10        27.87311
542.54        27.73293
542.97        27.98333
543.41         28.1045
543.85        28.29269
544.29        28.47392
544.72        28.61397
545.16        28.74317
545.60        28.85254
546.04        28.85113
546.47        28.82336
546.91        29.09259
547.35        29.58918
547.79        29.90208
548.22        29.99802
548.66        30.09284
549.10        30.21226
549.53        30.41334
549.97         30.7132
550.41        30.70919
550.84        30.97633
551.28        31.12727
551.72        31.35326
552.15        31.61868
552.59         31.9222
553.03        32.25194
553.46        32.55184
553.90        32.77339
554.34        32.90194
554.77        32.95684
555.21        32.97977
555.65        33.02266
556.08        33.10011
556.52        33.19633
556.96        33.30801
557.39        33.46983
557.83        33.66598
558.27        33.80946
558.70        33.89572
559.14        33.98686
559.57        34.07231
560.01        34.15326
560.45         34.2184
560.88        34.20959
561.32        34.19833
561.75        34.27142
562.19        34.53704
562.63        34.67414
563.06        34.70386
563.50        34.73404
563.93         34.7751
564.37        34.90745
564.80        34.97754
565.24        35.11893
565.68        35.25248
566.11        35.39099
566.55        35.55583
566.98        35.63863
567.42        35.63782
567.85        36.09365
568.29        36.02991
568.72        36.34373
569.16        36.70104
569.60        36.96131
570.03        37.09302
570.47        37.29395
570.90        37.36943
571.34        37.80796
571.77        37.44971
572.21        37.99739
572.64        38.26503
573.08         38.5948
573.51        38.50138
573.95        38.84302
574.38        39.32837
574.82        39.66018
575.25        39.72058
575.69        39.68966
576.12        39.45388
576.56        39.36843
576.99         39.4622
577.42        39.50505
577.86        39.83464
578.29        39.61441
578.73         40.4345
579.16        40.02756
579.60        39.78669
580.03        39.44964
580.47        39.29485
580.90        39.17669
581.33        39.06708
581.77        39.09394
582.20        39.70951
582.64        39.24895
583.07        38.79108
583.51        38.98457
583.94          38.277
584.37        38.06335
584.81        37.65596
585.24        37.62446
585.68        37.80825
586.11        37.71831
586.54        37.73134
586.98        37.40984
587.41        37.37477
587.85        37.31573
588.28        37.34259
588.71        37.19196
589.15        36.91747
589.58        36.54865
590.01        36.74673
590.45        36.98785
590.88        36.91066
591.31        37.01944
591.75         36.4328
592.18        36.61855
592.61        36.53885
593.05        36.79936
593.48        36.61184
593.91        37.41216
594.35        37.20045
594.78        37.23876
595.21        37.71976
595.65        38.00827
596.08        37.88855
596.51         37.8696
596.94        37.94442
597.38        38.11229
597.81        38.41159
598.24        38.75135
598.68        39.53852
599.11        39.56735
599.54        40.46735
599.97        40.28002
600.41        40.58661
600.84        41.17348
601.27        41.71324
601.70        42.21877
602.14        42.47491
602.57        42.89602
603.00         43.4843
603.43        43.98637
603.87        44.31388
604.30        44.86528
604.73        45.60113
605.16        45.71782
605.60        46.21269
606.03        46.75148
606.46        47.40643
606.89        48.58429
607.32        48.96224
607.76        49.15746
608.19        49.69592
608.62        50.44884
609.05        50.60332
609.48        50.62583
609.92        51.14276
610.35        51.18762
610.78        52.40745
611.21        53.26751
611.64        52.98829
612.07        53.41421
612.50         53.8728
612.94        53.76654
613.37        54.37167
613.80        54.69208
614.23        55.16317
614.66        55.45376
615.09        56.08572
615.52        56.57181
615.96         56.9263
616.39        57.36427
616.82        58.00587
617.25        57.32524
617.68        58.01231
618.11        58.53574
618.54        58.95358
618.97        59.08906
619.40        58.82443
619.84        58.77271
620.27         58.5731
620.70        59.03323
621.13        59.84491
621.56         60.1349
621.99        60.01307
622.42        60.04855
622.85        60.33344
623.28        60.46542
623.71        60.46001
624.14        60.47615
624.57        60.64065
625.00        60.20373
625.43         60.7848
625.86         59.8502
626.29        60.13055
626.72        59.88187
627.15        59.80508
627.58        59.69242
628.01        59.65731
628.44        59.48981
628.87        59.20195
629.30        58.67015
629.73        58.33522
630.16        57.78185
630.59        57.69061
631.02        57.31394
631.45        56.81484
631.88        56.34428
632.31        55.89679
632.74        55.36124
633.17        54.73965
633.60         54.1133
634.03        53.49946
634.46        52.88268
634.89        52.27382
635.32        51.69798
635.75        51.16427
636.18        50.63591
636.61        50.17968
637.04        49.72104
637.47        49.27063
637.89        48.83005
638.32        48.38571
638.75        47.94744
639.18        47.52172
639.61        47.11588
640.04        46.72625
640.47        46.34316
640.90        45.96802
641.33        45.60878
641.76        45.29963
642.18        45.07025
642.61        44.91415
643.04         44.8733
643.47        44.92141
643.90          44.731
644.33        44.73655
644.76        44.60497
645.18        44.50312
645.61        44.47634
646.04        44.54889
646.47        44.68976
646.90         44.8937
647.33        45.18892
647.75        45.57116
648.18         45.9342
648.61        46.41434
649.04        46.81149
649.47        47.17149
649.89        47.50715
650.32        47.87165
650.75         48.3686
651.18        49.03028
651.61        49.74659
652.03        50.50052
652.46        51.47062
652.89           52.52
653.32        53.01543
653.74        53.14537
654.17         53.6938
654.60        54.55667
655.03          55.988
655.46        55.28841
655.88        57.10716
656.31        58.57385
656.74        65.51633
657.16        63.96116
657.59        60.72747
658.02        60.63726
658.45        60.56723
658.87        61.61408
659.30         62.2202
659.73        63.39539
660.15        64.15448
660.58        64.10949
661.01        63.93535
661.44        63.75162
661.86        64.12901
662.29        65.02727
662.72        66.06606
663.14        66.96027
663.57        67.10586
664.00        66.70195
664.42        66.69595
664.85        67.22387
665.27        67.79876
665.70         68.2918
666.13        68.69753
666.55        68.98299
666.98        69.19545
667.41        69.38385
667.83        69.57011
668.26         69.7589
668.69        69.97643
669.11        70.20615
669.54        70.36411
669.96        70.44137
670.39        70.67445
670.82        70.70266
671.24        70.93074
671.67        71.24934
672.09        71.55933
672.52         71.7907
672.94        72.16994
673.37        72.20864
673.80        72.16125
674.22        71.99934
674.65        72.00277
675.07        72.21855
675.50        72.52589
675.92        72.85601
676.35         73.0471
676.77        73.06449
677.20        73.10797
677.62        72.97735
678.05        72.97813
678.47        73.05834
678.90        73.19511
679.32        73.38227
679.75        73.60619
680.17        73.84798
680.60        74.15263
681.02        74.47103
681.45        74.58476
681.87        74.54926
682.30         74.6545
682.72        74.89626
683.15        75.00047
683.57        74.97829
684.00        74.93847
684.42        75.01935
684.85         75.1697
685.27        75.41804
685.70        75.74543
686.12        76.05976
686.54        76.28758
686.97        76.40952
687.39        76.28127
687.82        76.22955
688.24        76.24773
688.66        76.41461
689.09        76.47941
689.51        76.47688
689.94        76.66309
690.36         76.9921
690.78        77.14296
691.21        77.02454
691.63        77.06989
692.06        77.58572
692.48        77.51862
692.90        77.67408
693.33        78.21058
693.75        78.01294
694.17        78.13699
694.60        78.17431
695.02        78.11922
695.44         77.9575
695.87        77.84868
696.29        77.83564
696.71         77.6992
697.14        77.63781
697.56        78.04649
697.98        79.14802
698.41        79.76646
698.83        79.50964
699.25        79.22702
699.68        78.97591
700.10         78.8691
700.52        78.98077
700.94        79.29091
701.37        79.65625
701.79        79.89752
702.21        79.93024
702.64        79.81964
703.06        79.68671
703.48         79.7213
703.90         79.9562
704.33         80.3654
704.75        80.82398
705.17        80.94151
705.59        80.62676
706.01        80.57037
706.44        79.93961
706.86        79.88313
707.28        80.14808
707.70        80.71578
708.12        81.36648
708.55        81.61212
708.97        81.45863
709.39        81.37439
709.81        81.41804
710.23        81.35606
710.66        81.22716
711.08        81.20757
711.50        81.29659
711.92        81.42939
712.34        81.59327
712.76        81.78917
713.19        81.97189
713.61        82.15805
714.03        82.30169
714.45        82.38274
714.87        82.42846
715.29        82.50869
715.71        82.64005
716.13        82.79182
716.56        82.91193
716.98        83.08849
717.40        83.13373
717.82        83.17542
718.24        83.23407
718.66        83.21527
719.08        83.55377
719.50        83.57275
719.92        83.44543
720.34        83.24329
720.76        83.33751
721.19        83.27394
721.61        83.17681
722.03        83.12033
722.45         83.1407
722.87        83.19868
723.29        83.29825
723.71        83.43999
724.13        83.62004
724.55        83.83805
724.97        84.08453
725.39        84.34338
725.81         84.5975
726.23        84.82923
726.65        85.03185
727.07        85.20557
727.49        85.34556
727.91        85.45078
728.33         85.4994
728.75        85.45582
729.17        85.33327
729.59         85.1657
730.01        85.00112
730.43        84.95306
730.85        85.05035
731.27        85.15582
731.69        85.25075
732.10        85.69797
732.52        85.96384
732.94        86.15767
733.36        86.09743
733.78        85.99543
734.20        85.96328
734.62        85.82948
735.04         85.4991
735.46        86.11835
735.88        85.67393
736.30        85.28658
736.72        85.41494
737.13        85.66927
737.55        86.18134
737.97        86.64801
738.39        86.90784
738.81        86.74204
739.23        86.34631
739.65        86.19614
740.06        86.19811
740.48        86.81811
740.90        86.81139
741.32        85.94654
741.74        86.25893
742.16        86.17162
742.57        86.41775
742.99        86.69023
743.41        86.93668
743.83        87.20838
744.25        87.38193
744.67         87.1683
745.08        87.19983
745.50        87.01544
745.92        86.85356
746.34        86.58655
746.75        86.23177
747.17        86.29692
747.59        86.00906
748.01        86.05714
748.42        86.15854
748.84        86.24464
749.26        86.34299
749.68        86.29005
750.09        86.22314
750.51        86.84741
750.93        87.81255
751.35        87.81102
751.76        87.04652
752.18        86.40836
752.60         86.3993
753.01        87.17432
753.43        86.75355
753.85        86.49014
754.27        86.99583
754.68        87.50432
755.10        88.23821
755.52        87.64298
755.93        87.56479
756.35        87.20329
756.77        87.17911
757.18        87.23873
757.60        87.50681
758.02        87.92435
758.43        88.19942
758.85        88.92118
759.26        89.29073
759.68        87.77245
760.10        88.06331
760.51         87.6779
760.93        87.89573
761.34        87.35214
761.76        88.21565
762.18         87.8303
762.59        87.08096
763.01        86.95827
763.42        87.58625
763.84        88.33047
764.26        88.91421
764.67        88.78339
765.09           88.06
765.50        88.34202
765.92        89.39884
766.33         89.7052
766.75        89.10361
767.16        88.41399
767.58        87.83382
768.00        87.50316
768.41        87.59763
768.83        88.01204
769.24        88.60376
769.66         89.3601
770.07        89.98838
770.49        89.82518
770.90        89.10426
771.32        88.95144
771.73        89.39708
772.15        89.64618
772.56        89.57988
772.97        89.27447
773.39        88.78767
773.80        88.52161
774.22         88.4814
774.63          88.316
775.05          88.086
775.46        88.15788
775.88        88.52287
776.29        89.08806
776.70        89.62231
777.12        89.80746
777.53        89.58401
777.95        89.00743
778.36        88.35747
778.77         88.1139
779.19        88.39634
779.60        89.12583
780.02        89.92075
780.43         90.4157
780.84         90.5301
781.26        89.76157
781.67        88.60706
782.09        89.46828
782.50        91.87067
782.91        91.46105
783.33        90.23941
783.74        89.72015
784.15        90.55476
784.57        90.98196
784.98          90.847
785.39        90.58679
785.81        90.21872
786.22        89.83431
786.63        89.54754
787.04        89.40134
787.46         89.4276
787.87        89.65771
788.28        90.03634
788.70        90.35532
789.11        90.54445
789.52        90.72665
789.93        91.05257
790.35        90.83939
790.76        90.33601
791.17         90.4722
791.58        91.15016
792.00         91.2673
792.41        90.77477
792.82        90.50819
793.23         90.4446
793.65        89.94846
794.06        89.38782
794.47         89.5921
794.88        90.24028
795.29        92.00408
795.71        91.56722
796.12          91.152
796.53        91.94034
796.94        91.30846
797.35        90.18309
797.76        89.91728
798.18        90.55338
798.59        90.98406
799.00         91.0516
799.41        91.21354
799.82        91.43909
800.23        91.60111
800.64        91.67323
801.06        91.52573
801.47        91.29517
801.88        91.24516
802.29        91.40787
802.70        91.66061
803.11        91.87711
803.52        91.86298
803.93        91.60318
804.34        91.21553
804.75        90.76768
805.17        90.49508
805.58        90.51311
805.99         90.2775
806.40        89.97254
806.81        91.04308
807.22        92.94234
807.63        93.01606
808.04        91.51306
808.45        91.01566
808.86        91.79655
809.27        92.71193
809.68        93.47464
810.09        93.94067
810.50          93.967
810.91        93.73575
811.32        93.41492
811.73         93.0583
812.14         92.7199
812.55        92.65841
812.96        92.75343
813.37        92.17593
813.78        91.18533
814.19        91.21676
814.60        92.10143
815.01        92.42818
815.42        92.11935
815.83        91.93847
816.24        91.97964
816.65        92.03241
817.05        92.12507
817.46        92.25534
817.87        92.40668
818.28        92.50124
818.69        92.53831
819.10        92.54008
819.51        92.54384
819.92         92.6928
820.33        93.01758
820.74        93.24226
821.14        93.38243
821.55        93.95103
821.96        94.69588
822.37        94.44794
822.78        93.38578
823.19        92.86875
823.60        93.03094
824.00        93.17362
824.41        93.12442
824.82        93.07333
825.23        92.99417
825.64         92.8652
826.04         92.7753
826.45        92.81673
826.86        93.02172
827.27          93.325
827.68        93.65282
828.08        93.98907
828.49        94.18466
828.90        94.11577
829.31        93.85818
829.72        93.72165
830.12        93.77578
830.53        93.83761
830.94        93.83736
831.35        93.67883
831.75        93.37201
832.16        92.92551
832.57        92.47952
832.97        92.24297
833.38        92.24728
833.79        92.42554
834.20        92.69841
834.60        92.93102
835.01        93.09181
835.42        93.23427
835.82        93.32433
836.23        93.23797
836.64        92.99978
837.04        92.62421
837.45        92.28948
837.86        92.35047
838.26         92.8852
838.67        93.75392
839.08        94.65922
839.48        95.02718
839.89        94.70754
840.29        93.92071
840.70        93.06195
841.11        92.61538
841.51        92.72661
841.92         93.1747
842.33        93.86869
842.73        94.65639
843.14        95.31271
843.54        95.95531
843.95        96.36201
844.35        96.27155
844.76          95.678
845.17        94.68839
845.57        93.61928
845.98         92.9975
846.38        92.95003
846.79        93.34884
847.19         94.0532
847.60        94.60777
848.00        94.92328
848.41         95.0341
848.81         95.1062
849.22        95.30957
849.62        95.73486
850.03        96.23732
850.43        96.71661
850.84        96.86395
851.24        96.67992
851.65        96.18616
852.05        95.63595
852.46        95.32213
852.86        95.33945
853.27        95.57115
853.67        95.79913
854.07        95.99884
854.48        96.01279
854.88        95.60397
855.29         94.8982
855.69        94.61318
856.10        94.76154
856.50        95.14481
856.90        95.51331
857.31        95.58784
857.71        95.36916
858.12        94.89954
858.52        94.40268
858.92        94.09967
859.33        94.03137
859.73        94.17214
860.13        94.46854
860.54        94.82997
860.94        95.26676
861.34        95.72868
861.75        96.04678
862.15        96.06522
862.55        95.71679
862.96        95.07914
863.36        94.33935
863.76        93.77486
864.17        93.49178
864.57        93.44996
864.97        93.62575
865.38        93.94329
865.78        94.40322
866.18        94.94592
866.58        95.43543
866.99        95.62579
867.39        95.51183
867.79        95.11231
868.19        94.45008
868.60        93.55691
869.00        92.47462
869.40        91.25809
869.80        90.21507
870.21        89.84019
870.61        90.28722
871.01        91.34213
871.41        92.53619
871.81        93.11121
872.22        92.88192
872.62        92.09768
873.02        91.06202
873.42        90.34673
873.82        90.07111
874.22        89.90103
874.63          89.855
875.03        90.08948
875.43        90.54127
875.83        91.46943
876.23        91.89726
876.63        92.13589
877.03        92.00218
877.44        91.46543
877.84        108.0167
878.24        91.19979
878.64        91.30876
879.04        92.15816
879.44        90.85802
879.84        89.69507
880.24        90.37785
880.64        89.68525
881.04        87.96039
881.44        87.09847
881.84        87.49756
882.24        88.79728
882.65        90.30838
883.05        91.01165
883.45        90.54871
883.85        89.33633
884.25        88.02589
884.65        87.50773
885.05        87.99947
885.45        89.21005
885.85         90.6636
886.25        91.56478
886.65         91.6558
887.05        91.18299
887.45        90.50207
887.85        90.13489
888.25          90.229
888.65        90.62793
889.04        91.10624
889.44        91.19792
889.84        90.83865
890.24        90.19131
890.64        89.54294
891.04        89.30226
891.44        89.51701
891.84        89.99442
892.24        90.46896
892.64         90.4955
893.04        89.98561
893.44        89.19644
893.83        88.22643
894.23        87.25735
894.63        86.36481
895.03        85.49145
895.43        84.93408
895.83         85.1937
896.23        86.30477
896.63        88.09715
897.02        89.98502
897.42        90.87331
897.82        90.50439
898.22        89.20068
898.62        87.52413
899.01        86.35555
899.41         85.9975
899.81        86.16696
900.21        86.67992
900.61        87.25418
901.00        87.76006
901.40        88.28214
901.80         88.7679
902.20        89.08596
902.59         89.2204
902.99        89.15627
903.39         88.9388
903.79        88.67374
904.18        88.40426
904.58        88.15437
904.98        88.01745
905.38          88.139
905.77         88.5153
906.17        89.12427
906.57        89.74415
906.96        90.05141
907.36        89.93678
907.76        89.46825
908.15        88.89851
908.55        88.58917
908.95        88.64587
909.34        89.00471
909.74        89.34935
910.14        89.15412
910.53        88.32218
910.93         87.1226
911.33        86.02929
911.72        85.78244
912.12        86.49624
912.52        87.82883
912.91        89.33884
913.31         90.2834
913.70        90.51465
914.10        90.23365
914.49        89.55732
914.89        88.76523
915.29        88.05611
915.68        87.36688
916.08        86.92652
916.47        87.00536
916.87         87.5752
917.26        88.52413
917.66        89.51537
918.05        90.02502
918.45        89.87514
918.84        89.26444
919.24        88.30779
919.64        87.22936
920.03        86.19016
920.42        85.19013
920.82        84.51393
921.21        84.52799
921.61        85.22271
922.00        86.53307
922.40         87.9959
922.79        89.06959
923.19        89.50688
923.58         89.3442
923.98        88.76467
924.37         88.3333
924.77        88.33617
925.16          87.408
925.55        87.76734
925.95        87.45037
926.34        87.16231
926.74        86.86524
927.13        86.79172
927.52        87.15305
927.92        87.93204
928.31        89.12807
928.70        90.30977
929.10        90.72957
929.49        90.23025
929.89        89.00417
930.28        87.69799
930.67        87.35797
931.07        88.17229
931.46        89.82267
931.85        91.63776
932.24        92.61801
932.64        92.48592
933.03         91.5042
933.42        90.02976
933.82        88.85285
934.21        88.27526
934.60        88.08399
934.99        87.97201
935.39        87.59081
935.78        86.86149
936.17        85.74365
936.56        84.32841
936.96         84.4724
937.35        83.97395
937.74        84.56098
938.13        85.33139
938.53        86.21188
938.92        87.18182
939.31        88.28048
939.70        89.29042
940.09        89.69365
940.49         89.3726
940.88        88.53947
941.27        87.59543
941.66        87.16946
942.05        87.39586
942.44        88.05666
942.84        88.98277
943.23        89.91259
943.62        90.67801
944.01        91.40246
944.40        91.87434
944.79        91.75278
945.18         91.0019
945.57        89.62615
945.97        88.17879
946.36        87.70222
946.75        88.46447
947.14        90.11864
947.53        91.82616
947.92        92.41667
948.31        91.70493
948.70        90.06826
949.09         88.1409
949.48          87.032
949.87        87.09421
950.26        87.98557
950.65        89.23233
951.04        90.05298
951.43        90.16943
951.82        89.80861
952.21        89.21979
952.60         88.7788
952.99         88.6171
953.38         88.6216
953.77        88.61723
954.16        88.36305
954.55        87.82024
954.94        87.07919
955.33        86.43729
955.72        86.34807
956.11        86.91668
956.50        88.04845
956.89        89.28734
957.28        89.77711
957.66        89.29621
958.05        88.07261
958.44        86.74562
958.83        86.17457
959.22        86.50015
959.61        87.47065
960.00        88.55874
960.39        88.82239
960.78        88.00456
961.16        86.41049
961.55        84.68517
961.94        83.65973
962.33        83.55123
962.72         84.1171
963.11        84.93052
963.49        85.29551
963.88        84.91145
964.27        84.04932
964.66        83.12534
965.04         82.8013
965.43        83.23576
965.82        84.23285
966.21        85.37843
966.60        86.02065
966.98        86.00388
967.37        85.48664
967.76        84.91899
968.15        85.00007
968.53        85.88126
968.92        87.22794
969.31         88.5587
969.69        89.08423
970.08        88.55106
970.47        87.29181
970.86        85.69226
971.24        84.34073
971.63        83.51655
972.02        83.08842
972.40        83.02979
972.79        83.27536
973.17        83.79482
973.56        84.50527
973.95        85.36175
974.33        86.22811
974.72        86.88498
975.11        87.31697
975.49        87.39293
975.88        86.94848
976.26        86.03815
976.65        84.81941
977.04        83.52814
977.42        82.58125
977.81        82.12727
978.19        82.03441
978.58        82.37822
978.96        83.32016
979.35        84.69482
979.74        86.55322
980.12        88.27594
980.51        88.49213
980.89        87.12969
981.28        84.62579
981.66        82.11118
982.05        81.19902
982.43        82.10937
982.82        84.36131
983.20        87.19411
983.59        88.87657
983.97        88.93059
984.35         87.6875
984.74        85.93203
985.12        84.83269
985.51        84.70782
985.89        85.27798
986.28        85.91029
986.66        85.63405
987.04        84.15679
987.43        82.13509
987.81        80.20895
988.20        79.09521
988.58        78.85629
988.96        79.25783
989.35        80.12527
989.73        81.08884
990.12        81.66569
990.50        82.06551
990.88        82.09878
991.27         81.5763
991.65        80.63224
992.03        79.28256
992.42        78.05246
992.80        78.06378
993.18        79.56435
993.56        82.02207
993.95        84.64847
994.33        86.68902
994.71         87.7746
995.10        88.10757
995.48        87.82861
995.86        87.09473
996.24        86.04359
996.63        84.66898
997.01        83.02306
997.39        81.37743
997.77        80.07935
998.15        79.16948
998.54        79.04672
998.92        80.09129
999.30        82.42867
999.68        86.40191
1000.06        90.95094
1000.45        92.18852
1000.83        88.73619
1001.21        82.41972
1001.59        76.55261
1001.97        73.74057
1002.35        73.82376
1002.73        76.06945
1003.12        79.34406
1003.50        81.16331
1003.88        80.18622
1004.26        77.27043
1004.64        73.83407
1005.02        71.81564
1005.40        71.74239
1005.78        73.07291
1006.16        75.21998
1006.54        76.92616
1006.92        77.58418
1007.30        77.57552
1007.69        77.44125
1008.07        77.95159
1008.45        79.34847
1008.83          81.791
1009.21        85.01924
1009.59        87.08306
1009.97        86.07152
1010.35        82.03155
1010.73        77.41529
1011.11        75.60567
1011.49        76.93089
1011.86        80.41595
1012.24        83.68398
1012.62        84.48547
1013.00        82.65223
1013.38        79.14044
1013.76        75.22559
1014.14        73.13957
1014.52        73.50996
1014.90        75.48274
1015.28        77.99961
1015.66         79.3424
1016.04        78.84394
1016.41         77.0438
1016.79        73.88596
1017.17         70.1137
1017.55         66.7702
1017.93        64.00057
1018.31        62.38076
1018.69        62.36752
1019.06        63.73981
1019.44        66.27345
1019.82        69.24936
1020.20        70.64491
1020.58        69.54883
1020.95         66.4098
1021.33        62.27762
1021.71        58.05593
1022.09        53.53579
1022.46        46.87218
1022.84        38.39823
1023.22        37.10277
1023.60        46.55099
1023.97        56.63064
1024.35        62.41482
1024.73        64.93386
