SpectraSmart Spectrum 2.9.0.0
--------- Device Information -----------
Spectrum Name :  反射率_0
Saving Time :  2024/04/20 00:38:03
Spectro-Module Model Name : SE2030-DUVN
Spectro-Module Serial Number : OS361AC55029948
Wavelength Start : 200
Wavelength End : 1025
Wavelength Unit : Wavelength(nm)
Spectrum Unit : Reflectance(%)
-----------Spectrum Setting ------------
Integration Time : 30ms
Average : 10
Boxcar : 0
Background removal :  enabled
linearity correction :  enabled
SC :  disabled
Intensity correction :  disabled
DWT denoise :  enabled
savitzky-golay :  disabled
FFT :  disabled
Running average :  disabled
Kalman :  disabled
High pass :  disabled
---------------BEGIN--------------------
Wavelength(nm)             Reflectance(%)
200.29               0
200.75        62.76422
201.21        64.41054
201.67        68.28142
202.13        74.96754
202.58        84.45427
203.04        96.77986
203.50        108.1661
203.96        109.9026
204.42        102.1101
204.88        90.72749
205.34        80.90948
205.80        74.89288
206.26        71.61785
206.72         69.7243
207.18        69.14944
207.64        70.04264
208.10        72.20737
208.55         75.7278
209.01         78.3709
209.47        79.16626
209.93        78.42604
210.39          76.478
210.85        74.21054
211.31        72.67981
211.77        71.91682
212.23        71.61316
212.69        71.52997
213.14        71.20618
213.60        70.34074
214.06        70.01544
214.52         70.1447
214.98         70.6493
215.44        71.48511
215.90        72.31833
216.36        73.79529
216.81        76.94231
217.27        81.38979
217.73        86.71897
218.19        90.64359
218.65        90.18781
219.11        85.05952
219.57        75.61604
220.02         64.9048
220.48        60.82678
220.94        66.11854
221.40        79.09423
221.86        94.38543
222.32        103.7572
222.77        105.1478
223.23        101.2631
223.69        95.78844
224.15        93.97474
224.61        96.40218
225.06        100.5686
225.52        104.5425
225.98        106.5924
226.44        106.7061
226.90        105.5565
227.36        104.2192
227.81        104.2601
228.27        106.1043
228.73        108.7986
229.19        110.7248
229.65        110.0435
230.10        106.9532
230.56        102.8446
231.02        99.11564
231.48        97.58266
231.93        98.24163
232.39        100.3013
232.85        102.7837
233.31        104.3151
233.77        104.4733
234.22        103.7626
234.68        102.2998
235.14        100.2465
235.60        97.90459
236.05         95.2626
236.51        92.89287
236.97        91.64444
237.43         91.6779
237.88        93.22718
238.34        95.53948
238.80        97.01201
239.26        96.41306
239.71         94.0276
240.17        90.40437
240.63        87.01287
241.08        84.35661
241.54         82.0528
242.00        79.81312
242.46        76.84261
242.91        72.57685
243.37         66.1932
243.83        58.08963
244.28        53.14431
244.74        56.10947
245.20         66.0668
245.66        75.82316
246.11        79.17417
246.57        75.33477
247.03        64.48864
247.48        48.62786
247.94        41.94234
248.40        47.88083
248.85        57.00587
249.31        64.10181
249.77        67.89864
250.22        69.34934
250.68        69.60642
251.14        69.49572
251.59        70.35554
252.05        72.87824
252.51         76.6933
252.96        80.10315
253.42        80.58495
253.88        78.05111
254.33         73.9815
254.79        71.40202
255.25        72.90864
255.70        78.03976
256.16        85.05953
256.62        91.91434
257.07        96.36633
257.53        98.40454
257.99        98.75543
258.44        97.55266
258.90        95.94822
259.35        93.99004
259.81        92.55901
260.27        91.37263
260.72        90.22912
261.18        89.45042
261.63        88.46772
262.09         87.9474
262.55        88.08339
263.00        88.61213
263.46        89.57151
263.91        89.98651
264.37        89.24088
264.83        87.33737
265.28         84.5962
265.74        82.13662
266.19        80.88825
266.65        81.07837
267.11        82.09686
267.56        83.22435
268.02        83.50793
268.47        82.71578
268.93        81.23615
269.38        79.36927
269.84        77.82057
270.30        76.80867
270.75        76.11882
271.21        75.66164
271.66        75.26064
272.12        74.82938
272.57        74.39445
273.03        73.92432
273.48        73.21978
273.94        72.34348
274.39        71.30002
274.85        70.22065
275.31         69.1873
275.76        68.19027
276.22        67.23534
276.67        66.33376
277.13        65.69407
277.58        65.21925
278.04        64.93924
278.49         64.5173
278.95        63.63614
279.40        62.20865
279.86        60.50719
280.31        58.79259
280.77        57.67167
281.22        57.12244
281.68        57.00911
282.13        56.98561
282.59        56.65085
283.04        55.87487
283.50        54.86612
283.95        53.75686
284.41         52.8367
284.86        52.12188
285.32        51.55909
285.77        51.04996
286.22        50.56021
286.68        50.07759
287.13        49.58931
287.59        49.10697
288.04        48.54642
288.50        47.93382
288.95        47.23784
289.41        46.52901
289.86        45.82738
290.32        45.20731
290.77        44.64323
291.22        44.16753
291.68        43.78809
292.13        43.48984
292.59        43.29558
293.04        43.18587
293.50        43.16525
293.95         43.2113
294.40        43.31466
294.86        43.46028
295.31        43.63316
295.77        43.82724
296.22        44.03926
296.68        44.25867
297.13        44.45266
297.58        44.62491
298.04        44.79313
298.49        44.98115
298.95        45.27144
299.40        45.65374
299.85        46.09989
300.31        46.56367
300.76        46.95721
301.21         47.2631
301.67        47.53814
302.12         47.7565
302.58        47.96393
303.03        48.14476
303.48         48.3131
303.94        48.54188
304.39        48.89328
304.84        49.37812
305.30        49.95533
305.75          50.499
306.20        50.85121
306.66        51.00093
307.11        50.97908
307.57         50.8852
308.02        50.78013
308.47        50.72222
308.93         50.6832
309.38        50.67298
309.83        50.77047
310.29        50.96655
310.74        51.23893
311.19        51.45664
311.65        51.40412
312.10        51.04483
312.55        50.45284
313.00         49.8197
313.46        49.44181
313.91        49.36737
314.36        49.52309
314.82        49.74334
315.27        49.78313
315.72        49.56256
316.18        49.17969
316.63        48.73682
317.08        48.40416
317.53        48.22489
317.99         48.1297
318.44         48.0657
318.89        47.94044
319.35        47.72353
319.80        47.45047
320.25        47.14851
320.70        46.85799
321.16        46.58719
321.61        46.32885
322.06        46.06218
322.51        45.76241
322.97        45.41948
323.42        45.05725
323.87        44.69652
324.32         44.3761
324.78        44.09842
325.23        43.86728
325.68        43.64829
326.13        43.39293
326.59        43.08795
327.04        42.77308
327.49        42.47275
327.94        42.23566
328.39        42.07046
328.85        41.93305
329.30        41.84953
329.75        41.79612
330.20         41.7562
330.66        41.71449
331.11        41.64921
331.56        41.46049
332.01         41.1357
332.46        40.70008
332.92        40.23289
333.37        39.89743
333.82        39.74094
334.27        39.74368
334.72        39.83656
335.17        39.89172
335.63        39.85472
336.08        39.76866
336.53        39.69191
336.98        39.74377
337.43        39.94058
337.88         40.2326
338.34        40.47799
338.79        40.50316
339.24        40.25243
339.69        39.78564
340.14        39.27113
340.59        38.98971
341.05        39.00473
341.50        39.24423
341.95        39.54711
342.40        39.65891
342.85        39.52302
343.30        39.23539
343.75        38.90735
344.20        38.71832
344.66        38.71318
345.11        38.79496
345.56        38.93151
346.01        39.07378
346.46        39.18274
346.91         39.2881
347.36        39.29572
347.81        39.05172
348.26        38.56294
348.72        37.91026
349.17        37.26888
349.62        37.00372
350.07        37.19201
350.52        37.70454
350.97        38.34019
351.42        38.79548
351.87        38.97363
352.32        38.95031
352.77        38.76956
353.22        38.50865
353.67        38.21389
354.13        37.87973
354.58        37.51892
355.03        37.20341
355.48        36.95774
355.93        36.78915
356.38        36.69207
356.83        36.64071
357.28        36.61413
357.73         36.6002
358.18        36.57667
358.63        36.51245
359.08        36.39425
359.53        36.22791
359.98        36.00103
360.43        35.69756
360.88        35.32788
361.33        34.90638
361.78        34.49548
362.23        34.19682
362.68        34.03108
363.13        33.96525
363.58         33.9314
364.03         33.8189
364.48        33.59393
364.93        33.28411
365.38        32.91805
365.83        32.55343
366.28        32.21568
366.73        31.88585
367.18        31.57267
367.63        31.28815
368.08        31.03343
368.53        30.82049
368.98        30.61763
369.43        30.36599
369.88        30.05802
370.33        29.70783
370.78        29.37386
371.23        29.16008
371.68        29.08937
372.13        29.12502
372.58        29.19781
373.03        29.19291
373.48        29.07215
373.93        28.86556
374.38        28.61189
374.83        28.36844
375.28        28.15472
375.72        27.94782
376.17        27.75617
376.62         27.5545
377.07        27.34563
377.52        27.14173
377.97        26.97768
378.42         26.9017
378.87        26.91107
379.32        26.97838
379.77        27.04255
380.22        27.01273
380.67        26.87037
381.11        26.64784
381.56        26.37864
382.01         26.1454
382.46         25.9742
382.91        25.83426
383.36        25.72262
383.81        25.62946
384.26         25.5476
384.71        25.50037
385.15        25.43494
385.60        25.27483
386.05        25.01726
386.50        24.68435
386.95         24.3981
387.40        24.35335
387.85        24.56718
388.29         24.9509
388.74        25.34288
389.19        25.49769
389.64        25.36736
390.09        25.02147
390.54        24.58918
390.98        24.27382
391.43         24.1548
391.88         24.1571
392.33         24.1848
392.78        24.09918
393.23        23.88178
393.67        23.57931
394.12        23.30677
394.57        23.13705
395.02        23.08833
395.47        23.12746
395.91        23.20614
396.36        23.22026
396.81        23.15091
397.26        23.01815
397.71        22.88643
398.15        22.83379
398.60        22.89777
399.05        23.03575
399.50        23.15863
399.95        23.13935
400.39        22.95788
400.84        22.64747
401.29        22.32482
401.74        22.20307
402.18        22.33958
402.63         22.6572
403.08        22.99467
403.53        23.09592
403.97        22.90764
404.42        22.52435
404.87        22.09797
405.32        21.87789
405.76        21.92474
406.21         22.1549
406.66        22.44518
407.11        22.60469
407.55        22.58288
408.00         22.4461
408.45        22.26328
408.90        22.09453
409.34        21.99911
409.79        22.05319
410.24        22.18398
410.68        22.18969
411.13        22.05792
411.58        21.89962
412.03        21.75836
412.47        21.67603
412.92        21.66954
413.37        21.71197
413.81        21.81043
414.26        21.99378
414.71        22.24315
415.15         22.5564
415.60        22.81809
416.05        22.86954
416.49        22.67972
416.94        22.30137
417.39        21.87744
417.83        21.64086
418.28        21.65706
418.73        21.85325
419.17        22.11391
419.62        22.24621
420.07        22.20347
420.51        22.04795
420.96        21.85818
421.41        21.73068
421.85          21.688
422.30        21.70758
422.74        21.75275
423.19         21.8086
423.64        21.85589
424.08          21.916
424.53         21.9652
424.98        21.99429
425.42        22.00479
425.87        21.99602
426.31        21.96968
426.76         21.9407
427.21        21.90158
427.65        21.84159
428.10        21.79018
428.54        21.76723
428.99        21.78512
429.44        21.93627
429.88        22.11078
430.33        21.99026
430.77        21.64953
431.22        21.51838
431.66        21.63857
432.11        21.81946
432.56        22.01914
433.00         22.3542
433.45        22.62513
433.89        22.53214
434.34        22.22948
434.78        21.99869
435.23        21.67137
435.67        22.79892
436.12        22.14894
436.57        22.10359
437.01        21.80882
437.46        21.67865
437.90        21.73573
438.35        21.79187
438.79        21.80821
439.24         21.8171
439.68        21.81259
440.13        21.61815
440.57          21.359
441.02        21.58294
441.46        22.08625
441.91         22.1827
442.35        21.36841
442.80        21.15626
443.24        21.33495
443.69        21.42505
444.13        21.36678
444.58         21.3064
445.02         21.2477
445.47        21.21189
445.91        21.19383
446.36        21.13499
446.80        21.03201
447.24        20.93077
447.69        20.85472
448.13        20.79495
448.58        20.76245
449.02        20.75414
449.47        20.75897
449.91        20.74882
450.36        20.72446
450.80        20.69101
451.25         20.6669
451.69        20.66091
452.13         20.6818
452.58        20.71507
453.02         20.7616
453.47        20.82846
453.91        20.91111
454.36        21.00384
454.80        21.07386
455.24        21.06452
455.69        20.97648
456.13        20.81066
456.58        20.63614
457.02        20.54316
457.46        20.54624
457.91        20.57117
458.35        20.58824
458.79        20.60685
459.24        20.61045
459.68        20.60511
460.13        20.64657
460.57        20.62498
461.01         20.5218
461.46          20.901
461.90        20.95479
462.34        20.71884
462.79        20.88674
463.23        20.75233
463.68         20.6483
464.12        20.56958
464.56        20.68987
465.01        20.85802
465.45        21.01019
465.89         21.0769
466.34        21.05108
466.78        20.88476
467.22        20.67109
467.67        20.70761
468.11        20.95783
468.55        20.99902
468.99        20.83004
469.44        20.79029
469.88        20.88488
470.32        20.91103
470.77        20.86183
471.21        20.83134
471.65        20.82478
472.10        20.81474
472.54        20.80514
472.98        20.84485
473.42        20.93211
473.87        20.99503
474.31        21.02459
474.75        21.13581
475.20        21.28252
475.64         21.2366
476.08         21.0626
476.52        21.04738
476.97        21.20663
477.41        21.40647
477.85        21.57907
478.29        21.67727
478.74        21.68301
479.18        21.57431
479.62        21.44251
480.06        21.43631
480.50        21.55533
480.95        21.65827
481.39        21.70013
481.83        21.71461
482.27        21.69454
482.72        21.62766
483.16        21.55701
483.60        21.54296
484.04        21.58481
484.48        21.76616
484.93        22.11903
485.37        22.15193
485.81        22.09145
486.25        22.68577
486.69        23.46522
487.14        22.74511
487.58        22.40485
488.02        23.20387
488.46         22.7279
488.90        22.91559
489.34        22.81533
489.79        22.91959
490.23        23.16028
490.67        23.30135
491.11        23.34878
491.55        23.36303
491.99        23.36413
492.43        23.36996
492.88          23.395
493.32        23.41378
493.76        23.45388
494.20        23.57611
494.64        23.78762
495.08        24.06501
495.52        24.35411
495.96        24.58779
496.41        24.74905
496.85        24.80895
497.29        24.81813
497.73        24.97545
498.17         25.2593
498.61        25.39215
499.05        25.38335
499.49        25.50154
499.93        25.75833
500.37        25.95595
500.82         26.0932
501.26        26.33816
501.70        26.64393
502.14        26.74685
502.58        26.67377
503.02         26.6909
503.46        26.81644
503.90        26.90919
504.34        26.94431
504.78          26.946
505.22        26.91382
505.66        26.85425
506.10        26.79604
506.54        26.78006
506.98         26.8205
507.42        26.90971
507.86        27.03711
508.30        27.18277
508.74        27.33187
509.18        27.47925
509.62        27.61807
510.06        27.73883
510.50        27.83899
510.94        27.92418
511.38        27.97874
511.82        27.98083
512.26        27.93452
512.70        27.84871
513.14         27.7806
513.58        27.81415
514.02        27.95565
514.46        28.18242
514.90        28.41903
515.34        28.47593
515.78        28.37483
516.22         28.2064
516.66        28.07088
517.10        27.80388
517.54         27.4346
517.98        27.97433
518.42        27.88192
518.86        28.11221
519.30        28.18846
519.74         28.2699
520.18        28.33274
520.62        28.31812
521.06        28.23994
521.50        28.09778
521.93        27.93524
522.37        27.83335
522.81        27.81094
523.25        27.85117
523.69        27.91453
524.13        27.93682
524.57        27.90051
525.01        27.82112
525.45        27.73303
525.89        27.69062
526.32        27.70359
526.76        27.75513
527.20        27.79829
527.64        27.76407
528.08        27.63956
528.52         27.4479
528.96        27.24829
529.40        27.12872
529.83        27.10713
530.27        27.16397
530.71         27.2342
531.15         27.2177
531.59        27.09523
532.03        26.90024
532.46        26.69952
532.90        26.61666
533.34         26.6653
533.78        26.79898
534.22        26.94518
534.66        26.99435
535.09        26.91651
535.53        26.76024
535.97        26.56787
536.41        26.40159
536.85        26.28807
537.28        26.22356
537.72         26.2157
538.16        26.19592
538.60         26.2849
539.04        26.36786
539.47        26.45439
539.91        26.56952
540.35        26.72261
540.79        26.67885
541.22        26.78645
541.66        26.86275
542.10        27.03544
542.54        26.86883
542.97        27.08273
543.41        27.18883
543.85         27.3817
544.29        27.58579
544.72         27.7593
545.16        27.91822
545.60        28.04724
546.04        28.05838
546.47        28.03839
546.91        28.30081
547.35        28.77713
547.79        29.09427
548.22        29.20523
548.66        29.23679
549.10        29.24385
549.53        29.42413
549.97        29.78492
550.41        29.79611
550.84        30.00462
551.28        30.12167
551.72        30.33267
552.15        30.54617
552.59        30.75934
553.03        31.05145
553.46        31.25081
553.90         31.4244
554.34        31.52476
554.77        31.56681
555.21        31.59382
555.65        31.66299
556.08        31.78543
556.52        31.94122
556.96        32.10651
557.39        32.27624
557.83        32.42779
558.27        32.50055
558.70        32.52235
559.14         32.5284
559.57        32.63978
560.01        32.74751
560.45        32.84845
560.88        32.83863
561.32        32.78038
561.75        32.77459
562.19        32.94974
562.63        33.04029
563.06        33.07567
563.50        33.14219
563.93        33.23341
564.37        33.40081
564.80        33.48775
565.24        33.63058
565.68        33.75293
566.11        33.86366
566.55        33.98546
566.98        34.02135
567.42        33.98301
567.85        34.39201
568.29        34.33395
568.72        34.68779
569.16        35.10024
569.60        35.39494
570.03        35.51776
570.47        35.58538
570.90        35.46934
571.34        35.87719
571.77        35.66372
572.21        35.99453
572.64        36.35445
573.08        36.31609
573.51        36.50262
573.95        37.16506
574.38        37.37185
574.82        37.71346
575.25        37.83153
575.69        37.65165
576.12        37.58062
576.56        37.42332
576.99        37.39793
577.42        37.60188
577.86        37.75349
578.29        37.84923
578.73        38.56576
579.16        37.85583
579.60        37.55853
580.03        37.17978
580.47        37.55521
580.90          37.192
581.33        37.11515
581.77        37.32354
582.20        37.79249
582.64        37.20404
583.07        36.86412
583.51        36.80698
583.94        36.29708
584.37        36.06701
584.81        35.83085
585.24        35.87968
585.68        36.07571
586.11         35.9611
586.54         35.6817
586.98        35.47334
587.41        35.44425
587.85        35.52501
588.28        35.61332
588.71        35.50508
589.15        35.27806
589.58        34.83083
590.01        34.87416
590.45        35.36957
590.88         35.2887
591.31        35.22242
591.75        34.83362
592.18        34.95176
592.61        34.80652
593.05        35.32911
593.48        35.08255
593.91        36.15301
594.35        35.49941
594.78         35.6963
595.21        35.99667
595.65        36.38496
596.08        36.20692
596.51        36.19237
596.94        36.24568
597.38        36.29812
597.81        36.42828
598.24         36.7595
598.68        37.23621
599.11        37.58028
599.54        38.72169
599.97        38.39847
600.41        38.58221
600.84        39.16357
601.27        39.73314
601.70        40.25277
602.14        40.44965
602.57        40.79264
603.00        41.29091
603.43         41.8807
603.87        42.23169
604.30        42.74664
604.73        43.36302
605.16        43.41169
605.60        43.88476
606.03        44.36066
606.46        45.07154
606.89        45.59563
607.32        46.22539
607.76        46.21447
608.19        46.63839
608.62        47.56807
609.05        47.53347
609.48        47.86761
609.92        48.16389
610.35          48.078
610.78        49.26174
611.21        50.02225
611.64        49.66141
612.07        50.14634
612.50        50.48607
612.94        50.43898
613.37        51.05095
613.80        51.39816
614.23        51.78617
614.66        52.20874
615.09        52.21222
615.52        52.62815
615.96        53.18964
616.39        53.58239
616.82        53.86054
617.25        53.58334
617.68        54.12137
618.11        54.49469
618.54        54.96552
618.97        54.99376
619.40         54.6451
619.84         54.6796
620.27        54.48617
620.70        54.97494
621.13        55.74669
621.56        55.97125
621.99          55.792
622.42        55.80736
622.85        56.31668
623.28        56.52684
623.71        56.44007
624.14        56.56093
624.57        56.51278
625.00        55.96416
625.43        56.26086
625.86        55.74756
626.29        55.63941
626.72        55.41711
627.15        55.35302
627.58        55.29879
628.01        55.16777
628.44        55.13182
628.87        55.06229
629.30        54.32256
629.73        54.20557
630.16        53.83427
630.59        53.43679
631.02        53.10582
631.45        52.77783
631.88        52.41136
632.31        51.98082
632.74        51.51342
633.17        51.02497
633.60        50.53304
634.03        50.04752
634.46        49.57542
634.89        49.10117
635.32        48.58041
635.75        48.02434
636.18        47.49155
636.61        47.00415
637.04        46.55597
637.47        46.14829
637.89        45.79203
638.32        45.46012
638.75        45.12566
639.18        44.78138
639.61        44.44156
640.04        44.09658
640.47        43.72781
640.90        43.33983
641.33         42.9427
641.76        42.57682
642.18        42.31295
642.61        42.15823
643.04        42.09324
643.47        42.08143
643.90        42.05869
644.33        42.00713
644.76        41.95145
645.18        41.89968
645.61        41.86757
646.04        41.86616
646.47        41.88488
646.90        41.96003
647.33         42.1536
647.75        42.47228
648.18        42.89278
648.61        43.34336
649.04        43.71721
649.47        44.00024
649.89        44.19093
650.32        44.36912
650.75        44.79403
651.18        45.44842
651.61        45.99976
652.03        46.44449
652.46        47.29825
652.89        48.45234
653.32        48.86621
653.74        48.66151
654.17        49.46492
654.60        50.30236
655.03        51.24311
655.46        50.86893
655.88        52.94878
656.31        54.31609
656.74           61.51
657.16         58.6865
657.59          54.877
658.02        55.18204
658.45        55.75448
658.87        56.42863
659.30        56.90465
659.73        57.68103
660.15        58.69054
660.58        58.30117
661.01        58.19673
661.44        58.06725
661.86        58.33149
662.29        58.97204
662.72        59.82185
663.14        60.65921
663.57        60.85553
664.00        60.57657
664.42        60.64299
664.85        61.11182
665.27        61.68616
665.70         61.9389
666.13        62.02327
666.55        62.38528
666.98        62.52839
667.41        62.65015
667.83        62.78771
668.26        62.95627
668.69        63.15214
669.11        63.35891
669.54        63.55504
669.96        63.73523
670.39        63.91351
670.82        64.11468
671.24        64.32463
671.67        64.55723
672.09        64.90263
672.52        65.27576
672.94        65.42464
673.37        65.35238
673.80         65.1981
674.22        65.07859
674.65        65.09623
675.07        65.30099
675.50        65.66362
675.92        66.07499
676.35         66.3078
676.77        66.32013
677.20        66.18591
677.62         66.0097
678.05        65.96762
678.47        66.09942
678.90        66.34873
679.32        66.65421
679.75         66.9132
680.17        67.08758
680.60        67.24851
681.02        67.40475
681.45        67.45364
681.87        67.46211
682.30        67.63944
682.72        67.95934
683.15        68.15162
683.57        68.21925
684.00        68.27905
684.42        68.46731
684.85        68.65113
685.27        68.86106
685.70        69.11067
686.12        69.32268
686.54        69.46037
686.97        69.51892
687.39        69.32271
687.82        69.13898
688.24        69.30621
688.66        69.25439
689.09        69.46987
689.51        69.70844
689.94          69.873
690.36        69.94688
690.78        69.95483
691.21         69.9438
691.63        70.05042
692.06        70.36971
692.48          70.481
692.90        70.64264
693.33        71.21963
693.75        71.06281
694.17         71.2019
694.60        71.26666
695.02        71.18785
695.44        70.99068
695.87        70.97217
696.29        71.13348
696.71        71.09121
697.14        71.03545
697.56        71.47118
697.98        72.41932
698.41        73.34653
698.83        72.92117
699.25        72.72761
699.68        72.53036
700.10        72.41255
700.52        72.44011
700.94        72.61543
701.37        72.86352
701.79        73.08811
702.21        73.22463
702.64         73.3035
703.06        73.36954
703.48        73.50174
703.90        73.71959
704.33         73.9914
704.75        74.23477
705.17        74.28524
705.59        74.11779
706.01        73.78839
706.44        73.48109
706.86        73.46464
707.28        73.77947
707.70        74.39085
708.12        75.08864
708.55        75.38609
708.97        75.27604
709.39        75.21337
709.81        75.25522
710.23        75.18613
710.66        75.04711
711.08        75.01056
711.50        75.07983
711.92        75.18451
712.34        75.32003
712.76        75.51876
713.19        75.72873
713.61        75.91777
714.03        76.04012
714.45        76.10094
714.87        76.13471
715.29        76.22523
715.71        76.38966
716.13        76.56367
716.56         76.6841
716.98        76.93378
717.40        76.95615
717.82        77.01675
718.24        77.03222
718.66        77.02604
719.08        77.00784
719.50        76.97733
719.92        76.94405
720.34        76.93723
720.76        76.96775
721.19        76.98386
721.61        76.98122
722.03        77.15961
722.45        77.13828
722.87        77.22491
723.29        77.31237
723.71        77.41879
724.13        77.54446
724.55        77.68884
724.97        77.85046
725.39        78.01609
725.81        78.17738
726.23        78.33434
726.65        78.48911
727.07        78.63261
727.49        78.75944
727.91        78.93595
728.33        79.02463
728.75        79.10125
729.17        79.12922
729.59        79.12692
730.01         79.1116
730.43        79.12395
730.85        79.17787
731.27        79.22252
731.69        79.26879
732.10        79.43105
732.52        79.65417
732.94        79.72994
733.36        79.63401
733.78        79.59759
734.20        79.67327
734.62         79.5583
735.04        79.20908
735.46        79.59901
735.88        79.54835
736.30        79.17162
736.72        79.49334
737.13        79.77297
737.55         79.8587
737.97        80.30055
738.39         80.8176
738.81         80.7493
739.23        80.24973
739.65        80.26064
740.06        80.67774
740.48         80.9382
740.90        81.01257
741.32        80.06804
741.74        80.20822
742.16        80.02622
742.57        80.18283
742.99        80.43638
743.41        80.70837
743.83        80.96326
744.25        81.15449
744.67        80.94884
745.08        81.02548
745.50        80.90327
745.92        80.81032
746.34        80.70669
746.75        80.62034
747.17        80.56877
747.59        80.55495
748.01        80.66929
748.42        80.86517
748.84        80.89832
749.26        80.84425
749.68        80.93685
750.09        81.20546
750.51        81.64002
750.93        82.03452
751.35        81.94222
751.76        81.52222
752.18         80.8613
752.60        81.23457
753.01        81.24459
753.43        81.25734
753.85        81.22767
754.27        81.55051
754.68        81.94724
755.10        82.39209
755.52         82.3428
755.93        82.00736
756.35        81.98142
756.77        82.03049
757.18        82.11013
757.60        82.18343
758.02        82.30728
758.43        82.37281
758.85        82.81152
759.26        82.94144
759.68        82.44132
760.10        82.68419
760.51        82.39709
760.93        82.20972
761.34        81.66386
761.76        82.18209
762.18         81.9874
762.59        81.67455
763.01         81.5263
763.42        82.23311
763.84        82.91303
764.26        82.86034
764.67        82.92995
765.09        83.00537
765.50        83.30746
765.92        83.75249
766.33        83.88001
766.75         83.5896
767.16         83.1684
767.58        82.71143
768.00        82.31268
768.41        82.16943
768.83        82.48486
769.24        83.13887
769.66        83.79002
770.07        84.19651
770.49        84.08952
770.90        83.62415
771.32        83.46277
771.73        83.66512
772.15        83.79007
772.56        83.81245
772.97        83.75751
773.39        83.60213
773.80        83.70744
774.22        83.90068
774.63        83.38701
775.05        82.42386
775.46        82.16673
775.88        82.69976
776.29        83.51877
776.70        84.26051
777.12        84.55322
777.53        84.28297
777.95        83.54314
778.36        82.69842
778.77        82.35213
779.19        82.65157
779.60        83.46983
780.02        84.41022
780.43        85.01648
780.84        85.14973
781.26        84.55356
781.67        83.68858
782.09        84.28241
782.50        85.96004
782.91        86.22221
783.33        85.12786
783.74        84.83759
784.15        85.39578
784.57        85.62405
784.98        85.40368
785.39        84.94518
785.81        84.35691
786.22         83.9771
786.63         83.8746
787.04        83.86317
787.46        83.96852
787.87        84.26763
788.28         84.6336
788.70        85.26671
789.11        85.22546
789.52        85.28818
789.93        85.26084
790.35        85.28331
790.76        85.36665
791.17        85.40506
791.58        85.39242
792.00        85.27231
792.41        85.04945
792.82        84.96043
793.23        84.94199
793.65        84.42613
794.06        83.76135
794.47        84.04903
794.88        85.06105
795.29        86.24264
795.71         86.4166
796.12        86.00246
796.53         86.6779
796.94        85.93404
797.35        84.71233
797.76        84.44865
798.18        85.13539
798.59        85.50558
799.00        85.41322
799.41          85.485
799.82        85.74364
800.23        85.91828
800.64        85.99239
801.06        85.89656
801.47         85.7619
801.88        85.81601
802.29         86.0823
802.70        86.44574
803.11        86.76418
803.52        86.80019
803.93        86.51707
804.34        86.06801
804.75        85.56969
805.17        85.08521
805.58        85.06956
805.99        84.86626
806.40        84.68396
806.81        85.50089
807.22        86.92802
807.63         87.0604
808.04        86.08627
808.45        85.97643
808.86        86.84798
809.27        87.55485
809.68        87.89714
810.09        88.10091
810.50        88.10194
810.91        87.84124
811.32        87.44228
811.73        87.08652
812.14        86.83244
812.55        86.71278
812.96        86.67896
813.37        86.48613
813.78        86.18095
814.19        86.13077
814.60         86.2874
815.01        86.30266
815.42         86.1547
815.83         86.0053
816.24        85.92801
816.65        85.97509
817.05         86.1823
817.46        86.49574
817.87         86.8201
818.28         86.9549
818.69        86.86639
819.10        86.59771
819.51        86.32693
819.92        86.37965
820.33        86.82749
820.74        87.54138
821.14        88.29285
821.55        88.72255
821.96        88.73185
822.37         88.3548
822.78        87.79185
823.19        87.45203
823.60        87.44171
824.00         87.6422
824.41        87.88178
824.82        88.00999
825.23        87.96319
825.64        87.83023
826.04        87.66891
826.45        87.50974
826.86        87.39321
827.27        87.28456
827.68        87.23634
828.08        87.38071
828.49        87.65859
828.90        88.06707
829.31        88.46933
829.72        88.62036
830.12        88.48021
830.53        88.09392
830.94         87.6148
831.35        87.24693
831.75        87.08625
832.16        87.03793
832.57        87.11643
832.97        87.31442
833.38        87.57137
833.79         87.8774
834.20        88.17162
834.60         88.3468
835.01        88.39677
835.42        88.36156
835.82        88.23771
836.23        87.97208
836.64        87.61132
837.04        87.16245
837.45        86.80298
837.86        86.86696
838.26        87.41963
838.67        88.33881
839.08        89.28442
839.48        89.61121
839.89        89.16392
840.29        88.18101
840.70        87.13924
841.11        86.65403
841.51        86.88789
841.92        87.58224
842.33        88.54913
842.73        89.45983
843.14        90.04385
843.54        90.47195
843.95        90.61224
844.35        90.34981
844.76        89.72648
845.17        88.80144
845.57        87.85558
845.98        87.36075
846.38        87.42072
846.79         87.9269
847.19        88.71932
847.60        89.31296
848.00        89.60709
848.41        89.64068
848.81        89.60442
849.22        89.71455
849.62        90.07534
850.03        90.54417
850.43        91.00867
850.84        91.14608
851.24        90.94706
851.65        90.44976
852.05        89.91852
852.46        89.64552
852.86        89.71751
853.27        90.05928
853.67        90.43243
854.07        90.63517
854.48        90.57256
854.88         90.3457
855.29        89.99519
855.69        89.77273
856.10        89.64648
856.50        89.64993
856.90        89.66833
857.31        89.55413
857.71        89.36614
858.12        89.11346
858.52        88.90535
858.92        88.78014
859.33        88.73184
859.73        88.78069
860.13        88.93142
860.54        89.20586
860.94        89.64954
861.34        90.17223
861.75        90.58442
862.15        90.70272
862.55        90.44186
862.96        89.88957
863.36        89.21067
863.76        88.64476
864.17        88.29588
864.57        88.14294
864.97        88.18594
865.38        88.38926
865.78         88.7672
866.18        89.24737
866.58        89.71741
866.99        89.97052
867.39        89.99282
867.79        89.79337
868.19        89.32066
868.60        88.48961
869.00        87.31714
869.40        85.89175
869.80        84.60567
870.21        84.10378
870.61        84.58537
871.01        85.80122
871.41        87.22631
871.81        88.00764
872.22        87.93742
872.62        87.29328
873.02        86.38895
873.42        85.84747
873.82        85.75562
874.22        85.66493
874.63        85.64387
875.03        85.94061
875.43        86.50163
875.83        87.70525
876.23        88.10444
876.63        88.05411
877.03        87.26775
877.44        85.72401
877.84        113.8915
878.24        84.76782
878.64        85.51052
879.04        87.69849
879.44        86.61235
879.84        85.64512
880.24        86.89359
880.64        86.02313
881.04        83.57983
881.44         82.1647
881.84        82.36967
882.24         83.6807
882.65        85.34934
883.05        86.18025
883.45        85.75558
883.85        84.60728
884.25        83.35079
884.65        82.76521
885.05        83.06025
885.45        83.96265
885.85         85.0714
886.25        85.73719
886.65        85.75255
887.05        85.33688
887.45        84.78493
887.85        84.51904
888.25        84.66002
888.65        85.07478
889.04        85.58738
889.44         85.8199
889.84        85.70811
890.24         85.3614
890.64        84.98133
891.04        84.86055
891.44         85.0313
891.84        85.35279
892.24        85.61733
892.64        85.48398
893.04        84.90196
893.44        84.08214
893.83        83.14036
894.23         82.2755
894.63        81.54711
895.03        80.89709
895.43        80.50542
895.83        80.67639
896.23        81.41419
896.63         82.6075
897.02        83.86014
897.42        84.41414
897.82        84.10953
898.22         83.1859
898.62        82.02125
899.01        81.20739
899.41        80.96115
899.81        81.06938
900.21        81.47602
900.61        82.09765
901.00        82.84064
901.40        83.71698
901.80        84.52299
902.20        84.88708
902.59        84.74905
902.99        84.19206
903.39        83.44907
903.79        82.93477
904.18        82.76656
904.58        82.84589
904.98        83.12402
905.38        83.53053
905.77        83.99311
906.17        84.56861
906.57        85.03515
906.96        85.06244
907.36        84.58152
907.76        83.67606
908.15        82.72491
908.55        82.29588
908.95        82.53212
909.34        83.30788
909.74        84.18436
910.14        84.39363
910.53        83.74335
910.93        82.55663
911.33         81.3389
911.72        80.89524
912.12        81.37971
912.52        82.43887
912.91        83.68563
913.31        84.45524
913.70        84.61641
914.10        84.37483
914.49         83.8027
914.89        83.09366
915.29        82.40831
915.68        81.70399
916.08        81.24677
916.47        81.37314
916.87        82.06411
917.26        83.19348
917.66        84.37855
918.05        85.02036
918.45        84.92932
918.84        84.32858
919.24        83.40434
919.64        82.49288
920.03        81.76511
920.42        81.15865
920.82        80.86201
921.21        81.11202
921.61         81.8541
922.00        83.04707
922.40        84.26939
922.79        85.04836
923.19        85.19449
923.58        84.73478
923.98        83.81498
924.37         83.0668
924.77        82.83605
925.16          81.145
925.55        81.50108
925.95        81.28917
926.34        81.57584
926.74        82.19638
927.13        83.01366
927.52        83.69104
927.92        84.11061
928.31          84.383
928.70        84.51148
929.10        84.55168
929.49        84.54877
929.89        84.46442
930.28         84.3634
930.67        84.35529
931.07        84.43913
931.46        84.64016
931.85        84.86124
932.24        84.96487
932.64        84.90503
933.03         84.6721
933.42        84.30682
933.82        83.94998
934.21        83.63109
934.60        83.36788
934.99        82.98884
935.39        82.35891
935.78        81.48193
936.17        80.10379
936.56        78.37872
936.96        78.93153
937.35        78.67977
937.74        79.95394
938.13        81.31602
938.53        82.36566
938.92        83.05874
939.31        83.54889
939.70        83.80717
940.09         83.6946
940.49        83.24935
940.88        82.55497
941.27        81.93137
941.66        81.88171
942.05        82.47356
942.44        83.53999
942.84        84.78543
943.23        85.72229
943.62        86.14523
944.01        86.21117
944.40        85.94781
944.79        85.41658
945.18        84.68735
945.57        83.70289
945.97        82.76486
946.36        82.40163
946.75        82.76994
947.14        83.72558
947.53        84.77032
947.92         85.1877
948.31        84.86086
948.70        83.99442
949.09        82.98217
949.48        82.52673
949.87        82.81908
950.26         83.6104
950.65        84.55045
951.04        85.06892
951.43        84.97906
951.82         84.4716
952.21        83.72054
952.60        82.99309
952.99        82.41726
953.38        81.93146
953.77        81.55807
954.16        81.33933
954.55        81.27442
954.94        81.37689
955.33        81.61575
955.72        81.90932
956.11        82.23109
956.50        82.59405
956.89        82.94223
957.28        83.19411
957.66        83.31358
958.05        83.21324
958.44        83.03631
958.83        82.98241
959.22        83.07305
959.61        83.29896
960.00        83.38119
960.39        82.83081
960.78        81.60773
961.16        79.89755
961.55        78.31251
961.94        77.64235
962.33         78.0397
962.72        79.26303
963.11        80.77553
963.49        81.65602
963.88        81.52304
964.27        80.68298
964.66        79.54242
965.04         78.7955
965.43        78.64889
965.82        78.89031
966.21        79.32281
966.60        79.63519
966.98        79.73777
967.37        79.74616
967.76        79.76085
968.15        79.88911
968.53        80.17538
968.92        80.45987
969.31         80.7256
969.69        80.96519
970.08        81.09109
970.47        81.14671
970.86        81.02986
971.24        80.54296
971.63        79.73273
972.02        78.70304
972.40        77.69279
972.79        77.10797
973.17        77.11269
973.56        77.49926
973.95         78.2143
974.33        79.11279
974.72        79.94147
975.11        80.71662
975.49        81.19861
975.88        81.02193
976.26        80.18548
976.65        78.86361
977.04        77.35772
977.42        76.22549
977.81         75.6702
978.19        75.52919
978.58        75.84016
978.96         76.6783
979.35        77.87888
979.74        79.54195
980.12        81.13625
980.51        81.43769
980.89        80.38277
981.28        78.30745
981.66        76.23865
982.05        75.66431
982.43        76.76483
982.82        79.06609
983.20        81.79145
983.59        83.19314
983.97        82.81855
984.35        81.07177
984.74        78.75616
985.12        77.03925
985.51        76.27251
985.89        76.14729
986.28        76.30408
986.66        76.22857
987.04        75.67714
987.43        75.03654
987.81        74.40365
988.20        73.84698
988.58        73.32486
988.96        72.68125
989.35        72.01347
989.73         71.8568
990.12        72.32162
990.50         73.3424
990.88        74.29505
991.27        74.47814
991.65        73.95099
992.03        72.89551
992.42        71.88644
992.80        72.05327
993.18        73.65851
993.56        76.12181
993.95        78.66895
994.33         80.6144
994.71        81.61252
995.10        81.87727
995.48        81.57176
995.86        80.87123
996.24        79.90327
996.63         78.6422
997.01        77.10804
997.39        75.53469
997.77        74.23918
998.15        73.29982
998.54        73.01178
998.92        73.60912
999.30        75.13961
999.68         77.8312
1000.06        80.88658
1000.45        81.50293
1000.83        78.78862
1001.21        74.10776
1001.59        69.81123
1001.97         67.7154
1002.35        67.68352
1002.73        69.16033
1003.12        71.43094
1003.50        72.96751
1003.88        72.82716
1004.26        71.50751
1004.64        69.67621
1005.02        68.24477
1005.40        67.49815
1005.78        67.13483
1006.16        67.05676
1006.54        67.17295
1006.92        67.32951
1007.30         67.4748
1007.69        67.60336
1008.07        67.84209
1008.45        68.16824
1008.83         68.7523
1009.21        69.12267
1009.59        67.79582
1009.97        64.06345
1010.35        58.53496
1010.73        54.17782
1011.11        54.35191
1011.49        58.79826
1011.86        66.06597
1012.24        72.82675
1012.62        75.84741
1013.00        74.86992
1013.38        71.27171
1013.76        66.49197
1014.14        63.02789
1014.52        61.77986
1014.90        61.92202
1015.28          62.895
1015.66        63.76466
1016.04        64.11624
1016.41        64.47923
1016.79        64.45915
1017.17        63.33852
1017.55        61.23988
1017.93        58.51808
1018.31        56.19104
1018.69        55.24019
1019.06        55.56417
1019.44        56.75532
1019.82        58.08056
1020.20        57.77572
1020.58        55.24788
1020.95        51.16624
1021.33        46.59117
1021.71          42.165
1022.09        37.60196
1022.46        31.05202
1022.84        23.84787
1023.22        25.93422
1023.60        38.49594
1023.97        49.89793
1024.35        55.85561
1024.73         58.2157
