SpectraSmart Spectrum 2.9.0.0
--------- Device Information -----------
Spectrum Name :  反射率_0
Saving Time :  2024/04/20 00:45:55
Spectro-Module Model Name : SE2030-DUVN
Spectro-Module Serial Number : OS361AC55029948
Wavelength Start : 200
Wavelength End : 1025
Wavelength Unit : Wavelength(nm)
Spectrum Unit : Reflectance(%)
-----------Spectrum Setting ------------
Integration Time : 30ms
Average : 10
Boxcar : 0
Background removal :  enabled
linearity correction :  enabled
SC :  disabled
Intensity correction :  disabled
DWT denoise :  enabled
savitzky-golay :  disabled
FFT :  disabled
Running average :  disabled
Kalman :  disabled
High pass :  disabled
---------------BEGIN--------------------
Wavelength(nm)             Reflectance(%)
200.29               0
200.75        63.11765
201.21        61.90863
201.67        62.58368
202.13        67.07705
202.58        76.28123
203.04        90.35638
203.50        105.2354
203.96        110.3035
204.42        104.3005
204.88        93.57224
205.34        83.79484
205.80        77.71837
206.26        74.38791
206.72        72.14607
207.18        70.95519
207.64        71.47102
208.10        73.90359
208.55        78.38949
209.01        81.62578
209.47        81.50217
209.93        78.62461
210.39        73.94726
210.85        69.39042
211.31        67.11342
211.77        67.30414
212.23        69.56336
212.69        73.12501
213.14        74.82096
213.60        72.99245
214.06        70.23567
214.52        68.17817
214.98         67.7141
215.44        68.60201
215.90        70.10218
216.36        72.37008
216.81        75.40314
217.27        78.49946
217.73        81.71661
218.19        83.45995
218.65        81.51168
219.11        75.68288
219.57        66.14019
220.02         55.5067
220.48        50.89983
220.94        54.75166
221.40        65.61076
221.86        78.76978
222.32        86.90926
222.77        88.14457
223.23        84.86137
223.69         80.0349
224.15        78.00491
224.61        79.31611
225.06        81.89915
225.52        84.40626
225.98        85.72272
226.44        85.82018
226.90        85.32519
227.36        84.60285
227.81        84.02998
228.27        84.04102
228.73        84.28091
229.19        84.57761
229.65        84.78624
230.10        84.78155
230.56        84.74932
231.02        84.67413
231.48        84.62597
231.93        84.52573
232.39        84.39821
232.85         84.0668
233.31        83.33556
233.77        82.21052
234.22        80.81981
234.68        79.33936
235.14         78.0194
235.60        77.01894
236.05        76.30663
236.51        75.96301
236.97         76.0759
237.43        76.65564
237.88        77.97213
238.34         79.5211
238.80        80.49877
239.26        80.21882
239.71        78.70097
240.17        76.46718
240.63        74.91927
241.08        74.46455
241.54        74.80756
242.00        75.19402
242.46        74.00375
242.91        70.42543
243.37        63.63612
243.83        54.20081
244.28        48.45253
244.74        52.45446
245.20        64.73071
245.66        76.91322
246.11         82.0363
246.57        79.51637
247.03        70.13925
247.48        55.41602
247.94        47.96287
248.40        51.79219
248.85        58.68795
249.31        64.39086
249.77         67.9569
250.22        70.00868
250.68        71.55695
251.14        72.68007
251.59        72.87374
252.05        72.13544
252.51        70.72332
252.96        68.70557
253.42        66.74746
253.88        65.46494
254.33        64.84243
254.79        66.33622
255.25        71.06258
255.70         78.1683
256.16        86.28634
256.62         93.1391
257.07        96.20782
257.53        95.77418
257.99        92.95074
258.44        88.74896
258.90        85.43686
259.35        83.08676
259.81        81.90656
260.27        81.06049
260.72        79.86047
261.18        78.59186
261.63        76.94294
262.09        75.76178
262.55        75.55557
263.00        76.10799
263.46        77.24939
263.91        77.89475
264.37        77.23205
264.83        75.26063
265.28        72.37241
265.74        69.72449
266.19        68.35141
266.65        68.47744
267.11         69.4958
267.56        70.62774
268.02        70.81166
268.47        69.81623
268.93        68.03143
269.38        65.89855
269.84        64.35857
270.30        63.65539
270.75        63.49546
271.21         63.5124
271.66        63.13533
272.12        62.22017
272.57        60.94463
273.03        59.59278
273.48        58.47515
273.94        57.75092
274.39        57.26136
274.85        56.84549
275.31        56.19812
275.76        55.23098
276.22        54.07088
276.67         52.9105
277.13        52.18795
277.58        51.86686
278.04        51.85672
278.49         51.7205
278.95        50.97033
279.40        49.51398
279.86        47.68498
280.31        45.84092
280.77          44.674
281.22        44.20207
281.68        44.23418
282.13        44.41124
282.59        44.28276
283.04         43.7158
283.50        42.92591
283.95        42.04336
284.41         41.3252
284.86        40.79934
285.32        40.40151
285.77        40.07842
286.22        39.85163
286.68        39.70026
287.13        39.59212
287.59        39.46769
288.04        39.16832
288.50        38.70402
288.95        38.08263
289.41        37.42323
289.86         36.8287
290.32         36.3919
290.77        36.06838
291.22        35.85819
291.68        35.72217
292.13        35.63636
292.59        35.62859
293.04        35.70031
293.50        35.87893
293.95        36.14486
294.40         36.4732
294.86        36.81697
295.31        37.11551
295.77        37.35943
296.22        37.57011
296.68        37.77808
297.13        38.01447
297.58        38.30244
298.04        38.63796
298.49        39.03181
298.95        39.53979
299.40        40.14137
299.85         40.8195
300.31        41.50281
300.76        42.06983
301.21        42.50132
301.67        42.85965
302.12        43.17809
302.58         43.5842
303.03        44.07744
303.48        44.64558
303.94        45.29145
304.39        45.96917
304.84        46.67111
305.30        47.39626
305.75        48.09178
306.20        48.70979
306.66        49.25789
307.11        49.72031
307.57         50.1396
308.02        50.49475
308.47        50.82207
308.93        51.12588
309.38        51.42888
309.83        51.83007
310.29         52.3307
310.74        52.89151
311.19         53.4071
311.65        53.70476
312.10        53.74329
312.55        53.58088
313.00        53.34484
313.46        53.23203
313.91        53.27612
314.36        53.43802
314.82        53.62148
315.27        53.69898
315.72        53.61907
316.18        53.43985
316.63        53.21492
317.08        53.04375
317.53        52.94859
317.99         52.8868
318.44        52.81357
318.89        52.64523
319.35        52.36288
319.80         52.0007
320.25        51.60962
320.70        51.27047
321.16        50.99996
321.61        50.78424
322.06         50.5769
322.51        50.30805
322.97        49.95028
323.42        49.53366
323.87        49.09297
324.32        48.69373
324.78        48.34377
325.23        48.04153
325.68         47.7309
326.13        47.33004
326.59        46.82555
327.04        46.27946
327.49        45.75603
327.94        45.36446
328.39        45.12744
328.85        44.97987
329.30        44.92269
329.75        44.88038
330.20        44.81527
330.66        44.72559
331.11        44.58686
331.56        44.29459
332.01        43.83997
332.46        43.24384
332.92        42.61372
333.37        42.16861
333.82        41.96791
334.27        41.98214
334.72        42.10074
335.17        42.12041
335.63         41.9654
336.08        41.70057
336.53        41.42796
336.98        41.34105
337.43        41.47822
337.88         41.7697
338.34        42.03443
338.79        42.03638
339.24        41.70126
339.69        41.10487
340.14        40.45333
340.59        40.09032
341.05        40.09428
341.50        40.37244
341.95        40.71387
342.40        40.79004
342.85         40.5288
343.30        40.04783
343.75        39.51506
344.20        39.20067
344.66        39.17327
345.11        39.31278
345.56        39.52451
346.01        39.66013
346.46        39.65934
346.91        39.58209
347.36        39.40749
347.81        39.09108
348.26        38.66032
348.72        38.16232
349.17        37.68801
349.62        37.46534
350.07        37.54143
350.52        37.83227
350.97        38.23277
351.42        38.58252
351.87        38.81048
352.32        38.94184
352.77        38.93378
353.22        38.72573
353.67        38.33467
354.13        37.81062
354.58        37.23572
355.03        36.78737
355.48        36.52065
355.93        36.40359
356.38        36.40473
356.83        36.46082
357.28        36.53004
357.73        36.61057
358.18        36.66109
358.63        36.61625
359.08        36.46032
359.53        36.21051
359.98        35.88554
360.43        35.51997
360.88        35.14025
361.33         34.7509
361.78        34.40659
362.23        34.19234
362.68        34.11773
363.13        34.14955
363.58        34.21104
364.03        34.17992
364.48        34.01667
364.93        33.74489
365.38        33.39135
365.83         33.0147
366.28         32.6445
366.73        32.26898
367.18         31.9019
367.63        31.56164
368.08         31.2562
368.53        31.00002
368.98        30.77716
369.43        30.54997
369.88         30.3124
370.33        30.07294
370.78        29.86122
371.23        29.73217
371.68        29.69416
372.13        29.71893
372.58        29.76859
373.03        29.78299
373.48        29.73707
373.93         29.6437
374.38        29.50294
374.83        29.31694
375.28        29.09135
375.72         28.8142
376.17        28.53675
376.62        28.30144
377.07         28.1262
377.52        28.00938
377.97        27.92139
378.42        27.81081
378.87        27.66599
379.32        27.49855
379.77        27.34523
380.22        27.25964
380.67        27.24673
381.11        27.29016
381.56        27.31929
382.01        27.24166
382.46         27.0348
382.91        26.72145
383.36        26.38574
383.81        26.15383
384.26        26.05285
384.71         26.0587
385.15        26.06592
385.60         25.9201
386.05         25.5977
386.50        25.15462
386.95         24.7424
387.40        24.59613
387.85        24.75076
388.29        25.10779
388.74        25.49471
389.19         25.6529
389.64        25.52842
390.09        25.18963
390.54        24.77986
390.98        24.52226
391.43        24.49211
391.88        24.60375
392.33        24.71842
392.78        24.63741
393.23        24.34403
393.67        23.91426
394.12        23.52134
394.57        23.31876
395.02        23.33615
395.47        23.51017
395.91        23.75167
396.36        23.87886
396.81        23.84438
397.26        23.69688
397.71        23.51025
398.15        23.37704
398.60        23.35141
399.05        23.38713
399.50        23.43092
399.95        23.40986
400.39        23.30829
400.84        23.14538
401.29        22.98599
401.74        22.94619
402.18         23.0535
402.63        23.25638
403.08        23.44571
403.53        23.44703
403.97        23.22973
404.42         22.8671
404.87        22.47924
405.32        22.26474
405.76        22.27226
406.21         22.4372
406.66        22.66774
407.11        22.81849
407.55        22.84743
408.00        22.80396
408.45        22.72025
408.90        22.59262
409.34        22.46419
409.79        22.43508
410.24        22.46754
410.68        22.41114
411.13        22.26446
411.58        22.11852
412.03        21.99741
412.47        21.91015
412.92        21.86437
413.37        21.85164
413.81        21.87981
414.26        21.97586
414.71        22.12555
415.15        22.32337
415.60         22.4846
416.05        22.50324
416.49        22.35554
416.94        22.07897
417.39        21.76044
417.83        21.54223
418.28        21.47086
418.73        21.50186
419.17        21.58031
419.62         21.6076
420.07        21.56144
420.51        21.47721
420.96        21.38647
421.41        21.31329
421.85        21.26129
422.30        21.22823
422.74        21.21672
423.19        21.26887
423.64        21.37494
424.08        21.53583
424.53        21.68021
424.98        21.71737
425.42        21.63015
425.87        21.44877
426.31        21.23596
426.76        21.09713
427.21        21.04836
427.65         21.0519
428.10        21.09575
428.54        21.13783
428.99        21.16789
429.44        21.26883
429.88        21.35632
430.33        21.21615
430.77        20.89642
431.22          20.666
431.66        20.59332
432.11        20.65773
432.56        20.83529
433.00        21.14843
433.45        21.38289
433.89        21.26931
434.34        20.95104
434.78        20.62485
435.23        20.27919
435.67        21.28301
436.12        20.65737
436.57        20.61529
437.01        20.35213
437.46        20.23909
437.90        20.29173
438.35        20.34178
438.79        20.35172
439.24        20.35104
439.68         20.3328
440.13         20.1255
440.57        19.85598
441.02        20.04933
441.46        20.51644
441.91        20.61885
442.35        19.85892
442.80        19.60186
443.24         19.6479
443.69         19.5692
444.13        19.36036
444.58        19.23285
445.02        19.20587
445.47        19.27424
445.91         19.3853
446.36        19.40742
446.80        19.31493
447.24        19.17219
447.69        19.03258
448.13        18.93726
448.58        18.90927
449.02        18.92737
449.47        18.96104
449.91        18.95484
450.36        18.90141
450.80        18.81707
451.25        18.73522
451.69        18.68619
452.13        18.68486
452.58        18.71254
453.02        18.75584
453.47        18.79818
453.91        18.83229
454.36        18.86035
454.80        18.87468
455.24        18.86066
455.69        18.82391
456.13         18.7487
456.58        18.66806
457.02        18.62156
457.46         18.6151
457.91        18.59807
458.35        18.56265
458.79        18.54441
459.24        18.53771
459.68        18.53764
460.13        18.59498
460.57        18.61093
461.01        18.56388
461.46        18.96196
461.90        19.06009
462.34        18.86522
462.79        19.00433
463.23        18.83967
463.68        18.68686
464.12        18.56554
464.56        18.64238
465.01          18.775
465.45        18.90143
465.89        18.94987
466.34        18.91163
466.78         18.7496
467.22        18.54691
467.67        18.56862
468.11        18.78263
468.55         18.8089
468.99         18.6544
469.44        18.63613
469.88        18.75942
470.32        18.83671
470.77        18.84581
471.21        18.84783
471.65        18.84194
472.10        18.81127
472.54        18.77152
472.98        18.78822
473.42        18.86648
473.87        18.93483
474.31        18.97973
474.75        19.09602
475.20        19.23849
475.64        19.20323
476.08        19.04922
476.52        19.03642
476.97        19.17964
477.41        19.35888
477.85        19.51095
478.29        19.59041
478.74        19.58316
479.18        19.47254
479.62        19.34964
480.06        19.36179
480.50        19.50843
480.95        19.65333
481.39        19.74618
481.83        19.80206
482.27        19.81117
482.72          19.772
483.16        19.71408
483.60        19.68558
484.04        19.70362
484.48        19.80555
484.93        20.02119
485.37         20.1259
485.81        20.37718
486.25        20.77303
486.69        21.62912
487.14        21.28922
487.58        20.78925
488.02        21.39439
488.46        20.97094
488.90        21.10612
489.34        21.02425
489.79        21.09526
490.23        21.27695
490.67        21.43531
491.11        21.55914
491.55        21.60592
491.99        21.59263
492.43        21.60813
492.88        21.66829
493.32        21.70735
493.76        21.75486
494.20        21.89112
494.64        22.12461
495.08        22.43056
495.52         22.7509
495.96        23.00321
496.41        23.17147
496.85        23.24826
497.29        23.28366
497.73        23.45276
498.17        23.73763
498.61        23.88917
499.05        23.90572
499.49        24.02391
499.93        24.25447
500.37        24.39973
500.82        24.48546
501.26        24.75016
501.70        25.13767
502.14        25.29828
502.58        25.24169
503.02        25.27506
503.46        25.41341
503.90        25.48368
504.34        25.47963
504.78        25.47773
505.22        25.48484
505.66        25.48645
506.10        25.49813
506.54        25.54013
506.98        25.61762
507.42        25.73247
507.86        25.86447
508.30        25.97722
508.74        26.05933
509.18         26.1123
509.62        26.16276
510.06          26.255
510.50        26.39608
510.94        26.57467
511.38         26.7375
511.82        26.79892
512.26        26.74397
512.70        26.59928
513.14        26.44505
513.58        26.40366
514.02        26.49493
514.46        26.68466
514.90        26.89162
515.34        26.91956
515.78        26.78341
516.22        26.58626
516.66        26.43086
517.10        26.14791
517.54        25.76813
517.98        26.32723
518.42        26.24567
518.86          26.497
519.30        26.59102
519.74        26.68502
520.18        26.76337
520.62        26.78046
521.06        26.75006
521.50        26.66831
521.93        26.54958
522.37        26.42913
522.81        26.32053
523.25        26.22223
523.69        26.14453
524.13        26.09996
524.57        26.08575
525.01        26.09548
525.45        26.11057
525.89        26.09864
526.32        26.05117
526.76        25.98192
527.20        25.89366
527.64        25.79687
528.08        25.69758
528.52        25.58718
528.96        25.49129
529.40        25.44855
529.83        25.45969
530.27        25.52134
530.71        25.57249
531.15        25.51751
531.59        25.34527
532.03        25.09025
532.46        24.83462
532.90        24.72693
533.34        24.78694
533.78        24.96177
534.22        25.16909
534.66        25.28229
535.09        25.26216
535.53        25.15631
535.97        25.00165
536.41        24.85321
536.85        24.73712
537.28        24.65219
537.72        24.60838
538.16         24.5476
538.60        24.58828
539.04        24.62393
539.47        24.67691
539.91        24.78798
540.35        24.96766
540.79        24.99263
541.22        25.16446
541.66        25.27422
542.10        25.43335
542.54        25.23918
542.97        25.39771
543.41        25.49854
543.85        25.73267
544.29        26.01406
544.72         26.2645
545.16        26.44002
545.60        26.51732
546.04        26.43571
546.47         26.3217
546.91        26.53966
547.35        27.04165
547.79        27.45295
548.22        27.68943
548.66         27.8135
549.10        27.86269
549.53        28.04221
549.97         28.3766
550.41        28.38971
550.84        28.61268
551.28        28.75352
551.72        28.97722
552.15        29.19766
552.59          29.412
553.03        29.63419
553.46        29.83158
553.90          29.975
554.34        30.05697
554.77        30.10302
555.21         30.1547
555.65        30.18173
556.08        30.32425
556.52         30.4557
556.96        30.59657
557.39         30.7518
557.83        30.90317
558.27        30.97761
558.70        30.98199
559.14        30.99453
559.57        31.01541
560.01        31.04403
560.45        31.07534
560.88        31.06273
561.32        31.07017
561.75        31.17327
562.19        31.46109
562.63        31.62522
563.06        31.67897
563.50        31.72286
563.93        31.76696
564.37        31.88737
564.80        31.94511
565.24        32.06071
565.68        32.16757
566.11        32.28214
566.55        32.42498
566.98        32.51176
567.42        32.53485
567.85        32.94287
568.29        32.86549
568.72        33.19665
569.16        33.61186
569.60        33.92501
570.03        34.08919
570.47        34.22943
570.90        34.20986
571.34        34.67738
571.77        34.52285
572.21        35.05179
572.64        35.16024
573.08        35.49836
573.51        35.40709
573.95        35.89533
574.38        36.20505
574.82        36.44979
575.25        36.70418
575.69         36.5559
576.12         36.5261
576.56        36.21883
576.99        36.37085
577.42        36.64143
577.86        36.66826
578.29        36.97067
578.73        37.31097
579.16        37.00677
579.60        36.63294
580.03        36.49731
580.47        36.36568
580.90        35.98359
581.33        35.72469
581.77         35.9334
582.20        36.63541
582.64        36.29718
583.07         35.7192
583.51        35.63712
583.94        34.93912
584.37        34.94223
584.81        34.53065
585.24        34.57837
585.68        34.73209
586.11        34.57112
586.54        34.49557
586.98        34.14477
587.41         34.2362
587.85        34.31581
588.28        34.44342
588.71        34.28335
589.15        33.90232
589.58        33.52113
590.01        33.48944
590.45        33.84512
590.88        33.82362
591.31        33.76825
591.75         33.4193
592.18        33.48106
592.61        33.27483
593.05        33.61819
593.48        33.67348
593.91        34.66328
594.35        34.07945
594.78        34.21386
595.21        34.31774
595.65        34.61743
596.08        34.79856
596.51        34.84318
596.94        34.82186
597.38        34.69913
597.81        35.01283
598.24        35.33774
598.68        36.19296
599.11        36.09695
599.54        37.30456
599.97        37.00515
600.41        37.24181
600.84        38.13775
601.27        38.32863
601.70        38.81137
602.14         39.0433
602.57         39.3945
603.00        39.88549
603.43         40.3882
603.87        40.86433
604.30        41.40397
604.73        41.99837
605.16        42.01819
605.60        42.34995
606.03        42.85362
606.46        43.54871
606.89         44.4608
607.32        44.62571
607.76        44.70153
608.19        45.24262
608.62        46.03183
609.05        45.93858
609.48        46.28825
609.92        46.87326
610.35        46.67128
610.78        47.54832
611.21        48.59149
611.64        48.03464
612.07        48.58467
612.50        48.89232
612.94        48.86038
613.37         49.3778
613.80        49.59423
614.23        49.84579
614.66        50.34227
615.09        50.60228
615.52        51.10715
615.96         51.5742
616.39         51.9389
616.82        52.25723
617.25        51.87645
617.68         52.2443
618.11        52.55472
618.54        52.98531
618.97        53.04211
619.40        52.69543
619.84        52.90331
620.27        52.47004
620.70        52.94317
621.13        53.75877
621.56        53.91118
621.99        53.54232
622.42        53.63348
622.85        54.24197
623.28        54.42968
623.71        54.14418
624.14        54.47078
624.57         54.4017
625.00         54.1172
625.43        54.17868
625.86        53.83463
626.29         53.6136
626.72        53.39756
627.15        53.30599
627.58        53.24255
628.01        53.13465
628.44        53.04742
628.87        52.99007
629.30        52.36907
629.73        52.20218
630.16        51.93416
630.59        51.61005
631.02        51.31081
631.45           50.96
631.88        50.60331
632.31        50.22253
632.74         49.8001
633.17        49.32887
633.60        48.80896
634.03        48.24793
634.46        47.65424
634.89         47.0565
635.32        46.49767
635.75        45.99571
636.18        45.55115
636.61        45.14772
637.04        44.75211
637.47        44.34998
637.89        43.94595
638.32        43.54872
638.75        43.20148
639.18        42.91171
639.61        42.67007
640.04        42.42838
640.47        42.10859
640.90        41.70213
641.33        41.24106
641.76        40.80205
642.18        40.51244
642.61        40.39544
643.04        40.41331
643.47         40.5028
643.90        40.55666
644.33        40.54308
644.76        40.49958
645.18        40.44904
645.61        40.43103
646.04        40.46322
646.47        40.52543
646.90        40.64378
647.33        40.86515
647.75        41.19292
648.18        41.61275
648.61        42.06152
649.04        42.44027
649.47        42.73805
649.89        42.95926
650.32        43.18316
650.75        43.63488
651.18        44.32362
651.61        44.94147
652.03        45.49434
652.46        46.38111
652.89         47.4649
653.32        47.93933
653.74        47.97633
654.17        48.43058
654.60        49.23668
655.03         50.5029
655.46        49.77317
655.88        51.98318
656.31        53.13012
656.74        62.41271
657.16        59.75991
657.59          54.715
658.02         54.6006
658.45        54.52385
658.87        55.43211
659.30         55.8737
659.73        56.45565
660.15        57.29325
660.58        57.44181
661.01        57.36659
661.44        56.98719
661.86        57.10294
662.29        57.73841
662.72        58.62572
663.14        59.51782
663.57        59.71622
664.00        59.36893
664.42        59.40219
664.85        60.03225
665.27         60.4228
665.70        60.57532
666.13        60.91252
666.55        61.38071
666.98        61.61284
667.41        61.63267
667.83        61.72891
668.26        61.90927
668.69        62.02681
669.11        62.09658
669.54        62.18205
669.96        62.28956
670.39        62.48255
670.82        62.73489
671.24        62.80165
671.67        62.76353
672.09        63.05209
672.52        63.58072
672.94        63.86819
673.37        63.86275
673.80        63.70477
674.22        63.51203
674.65        63.46469
675.07          63.618
675.50        63.86101
675.92        64.11739
676.35        64.26877
676.77        64.28662
677.20        64.21143
677.62        64.10143
678.05         64.0587
678.47         64.1086
678.90        64.22476
679.32        64.38603
679.75        64.55731
680.17        64.71843
680.60        64.90116
681.02        65.09957
681.45        65.21771
681.87        65.29435
682.30        65.48012
682.72        65.73587
683.15        65.83794
683.57        65.78952
684.00        65.65399
684.42        65.62054
684.85        65.66283
685.27        65.83118
685.70        66.10911
686.12        66.40552
686.54        66.60172
686.97        66.66081
687.39        66.59184
687.82        66.44598
688.24         66.4196
688.66        66.50027
689.09         66.4694
689.51        66.35011
689.94        66.32281
690.36        66.41322
690.78         66.4905
691.21        66.53108
691.63        66.66833
692.06        66.91901
692.48        66.87461
692.90        66.92618
693.33        67.35115
693.75        67.11105
694.17        67.17699
694.60        67.21222
695.02        67.09603
695.44         66.8689
695.87         66.9933
696.29         67.3659
696.71        67.22628
697.14        66.81508
697.56        66.94585
697.98        67.85978
698.41        68.72607
698.83        68.09738
699.25        67.86941
699.68        67.72572
700.10        67.61577
700.52        67.58207
700.94        67.66785
701.37         67.8203
701.79        67.97131
702.21        68.07015
702.64        68.13234
703.06        68.18349
703.48        68.28514
703.90           68.45
704.33        68.62932
704.75        68.76989
705.17        68.80529
705.59        68.70212
706.01        68.40092
706.44        68.05466
706.86        67.99944
707.28        68.27576
707.70        68.73492
708.12        69.23274
708.55        69.56538
708.97        69.66867
709.39        69.61366
709.81        69.45086
710.23        69.27483
710.66        69.13728
711.08        69.01859
711.50        68.94416
711.92        68.97052
712.34        69.10293
712.76        69.33883
713.19        69.59866
713.61        69.79705
714.03        69.87459
714.45        69.85529
714.87        69.80489
715.29        69.83218
715.71         69.9601
716.13        70.15218
716.56         70.3327
716.98        70.45746
717.40        70.47648
717.82        70.41933
718.24        70.32851
718.66        70.27604
719.08        70.29304
719.50        70.32416
719.92        70.33785
720.34        70.39207
720.76        70.50031
721.19        70.23162
721.61        70.37596
722.03        70.31572
722.45        70.30736
722.87        70.31651
723.29        70.36016
723.71        70.44215
724.13        70.55517
724.55        70.70068
724.97        70.87395
725.39        71.06104
725.81        71.25015
726.23         71.4474
726.65        71.63351
727.07        71.72599
727.49        71.84071
727.91         71.8446
728.33        71.79906
728.75        71.86249
729.17        71.99883
729.59        71.94247
730.01        71.74419
730.43        71.71645
730.85         71.8774
731.27        72.05364
731.69        72.19901
732.10        72.33167
732.52        72.44059
732.94        72.46133
733.36        72.35397
733.78          72.353
734.20        72.55698
734.62        71.99549
735.04        71.91604
735.46        72.37989
735.88        72.32352
736.30        72.04763
736.72        72.45965
737.13        72.74337
737.55        73.11808
737.97        73.24453
738.39        73.12099
738.81        72.88892
739.23         72.7078
739.65        72.73158
740.06        72.83488
740.48        73.08604
740.90        73.44758
741.32        72.29131
741.74        72.37328
742.16        72.18015
742.57        72.31945
742.99        72.64666
743.41        72.98687
743.83        73.22196
744.25        73.26554
744.67        73.16676
745.08        73.00029
745.50        72.85533
745.92        72.78534
746.34        72.75938
746.75        72.74483
747.17        72.69526
747.59        72.61182
748.01         72.5331
748.42        72.50201
748.84        72.59253
749.26        72.82987
749.68        73.02166
750.09        73.16481
750.51        73.59562
750.93         74.1289
751.35        74.01496
751.76        73.36815
752.18        73.03192
752.60        73.04513
753.01        73.02749
753.43        72.99702
753.85        72.97559
754.27        72.91065
754.68        73.70719
755.10        73.85577
755.52        73.81819
755.93        74.05624
756.35        73.90617
756.77        73.75281
757.18        73.75101
757.60        73.98817
758.02        74.38886
758.43        74.75647
758.85        74.83798
759.26        74.95919
759.68        74.16699
760.10         74.1466
760.51         74.0528
760.93        73.95345
761.34        73.72765
761.76         73.8687
762.18        73.61997
762.59        73.29102
763.01        73.27338
763.42        73.64751
763.84        74.05977
764.26        74.41376
764.67        74.51021
765.09        74.44878
765.50        74.62769
765.92        75.00893
766.33        75.08115
766.75        74.77119
767.16         74.4709
767.58        74.21434
768.00        73.86217
768.41        73.58654
768.83         73.7658
769.24        74.31409
769.66        74.82817
770.07        75.13589
770.49        75.07898
770.90         74.7906
771.32        74.87982
771.73        75.28147
772.15        75.32532
772.56        75.02182
772.97        74.71019
773.39        74.42191
773.80        74.50616
774.22         74.3629
774.63        74.16101
775.05        73.83668
775.46        73.85592
775.88        74.22282
776.29        74.75108
776.70        75.22581
777.12        75.39877
777.53        75.21267
777.95        74.70139
778.36        74.11633
778.77        73.89414
779.19        74.14108
779.60        74.78234
780.02        75.48168
780.43        75.90061
780.84        75.94559
781.26        75.25181
781.67        74.27341
782.09         74.9138
782.50        76.70655
782.91        76.76537
783.33        75.23765
783.74        74.77999
784.15        75.48231
784.57        75.89908
784.98        75.84677
785.39        75.50232
785.81        74.96704
786.22        74.69532
786.63        74.73291
787.04        74.70841
787.46        74.63577
787.87        74.77373
788.28        75.10172
788.70        75.39765
789.11        75.61086
789.52        75.84525
789.93        76.05417
790.35        76.05516
790.76        75.88084
791.17        75.74887
791.58        75.69752
792.00        75.50624
792.41        75.20678
792.82        75.19774
793.23        75.35812
793.65        74.97338
794.06        74.35882
794.47        74.58936
794.88        75.37662
795.29        76.73653
795.71        76.10812
796.12        75.81787
796.53        76.07367
796.94        75.55446
797.35        74.73146
797.76        74.54835
798.18         75.0131
798.59        75.28761
799.00        75.30854
799.41        75.59606
799.82        76.06124
800.23        76.31717
800.64         76.3154
801.06        76.00183
801.47         75.7627
801.88        75.64987
802.29        75.77808
802.70        76.04181
803.11        76.31372
803.52        76.38352
803.93        76.21814
804.34        75.93003
804.75         75.5798
805.17        75.36316
805.58        75.37746
805.99        75.18953
806.40        74.95082
806.81        75.80686
807.22        77.33099
807.63        77.44101
808.04        76.31391
808.45        75.94536
808.86        76.53342
809.27        77.16911
809.68        77.63766
810.09        77.86903
810.50        77.77198
810.91         77.4814
811.32        77.13438
811.73        76.80403
812.14        76.53866
812.55        76.47349
812.96         76.5324
813.37        76.23772
813.78        75.71844
814.19         75.7634
814.60        76.26524
815.01        76.43805
815.42        76.23712
815.83        76.06779
816.24        76.02297
816.65        76.07313
817.05        76.25011
817.46        76.50774
817.87        76.76646
818.28        76.85711
818.69        76.75917
819.10        76.52989
819.51         76.2683
819.92        76.20982
820.33        76.42603
820.74        76.67808
821.14         76.9464
821.55        77.54406
821.96         78.2599
822.37         78.2547
822.78         77.6305
823.19        77.33189
823.60        77.44656
824.00          77.467
824.41        77.30293
824.82        77.17251
825.23        77.08071
825.64        76.99721
826.04        76.95583
826.45         76.9524
826.86        76.99648
827.27        77.08603
827.68        77.19763
828.08        77.31433
828.49        77.36461
828.90        77.37503
829.31        77.35439
829.72         77.3235
830.12        77.31039
830.53        77.28087
830.94        77.23214
831.35        77.12697
831.75        76.99132
832.16        76.80238
832.57        76.64495
832.97        76.63602
833.38        76.77277
833.79         77.0059
834.20        77.25773
834.60        77.40058
835.01        77.41633
835.42        77.35658
835.82        77.22726
836.23        76.98559
836.64        76.67607
837.04        76.30601
837.45        76.01244
837.86        76.06348
838.26        76.51261
838.67        77.25517
839.08        78.04173
839.48        78.38954
839.89        78.17191
840.29        77.56401
840.70        76.89076
841.11        76.56101
841.51         76.6946
841.92         77.0988
842.33        77.69828
842.73        78.36523
843.14        78.91169
843.54        79.44569
843.95        79.76586
844.35        79.62732
844.76        79.02956
845.17          78.076
845.57        77.08557
845.98        76.57621
846.38        76.66139
846.79        77.20254
847.19        78.01324
847.60        78.59155
848.00        78.82367
848.41        78.77906
848.81         78.6404
849.22        78.60709
849.62        78.78754
850.03        79.05524
850.43        79.35735
850.84        79.50651
851.24         79.5023
851.65        79.33896
852.05        79.16476
852.46        79.09306
852.86         79.1585
853.27        79.33827
853.67        79.46008
854.07        79.40498
854.48        79.12434
854.88        78.70727
855.29        78.22668
855.69        77.96566
856.10        77.92037
856.50        78.11308
856.90        78.42789
857.31        78.68786
857.71        78.89771
858.12        79.02866
858.52        79.13648
858.92         79.2038
859.33        79.21548
859.73        79.19765
860.13        79.15061
860.54        79.10328
860.94        79.12872
861.34        79.18263
861.75         79.1926
862.15        79.13577
862.55        78.96786
862.96        78.74023
863.36        78.50848
863.76        78.32761
864.17        78.22154
864.57        78.19343
864.97        78.27091
865.38        78.47709
865.78        78.84971
866.18        79.30275
866.58        79.70636
866.99        79.84189
867.39        79.68867
867.79        79.26598
868.19        78.60683
868.60        77.75013
869.00        76.72303
869.40        75.59438
869.80        74.58196
870.21         74.0317
870.61         74.0889
871.01        74.61365
871.41        75.34758
871.81        75.85548
872.22        76.02576
872.62        75.98624
873.02         75.7951
873.42        75.74298
873.82          75.744
874.22        75.28996
874.63        74.66981
875.03          74.581
875.43        75.12872
875.83        76.90593
876.23        77.30009
876.63        77.11238
877.03        75.84988
877.44        73.62338
877.84        124.9343
878.24        73.01678
878.64        74.19888
879.04        77.64681
879.44        75.21336
879.84        73.69592
880.24        76.90185
880.64        76.62365
881.04        73.73109
881.44        71.91205
881.84        71.83745
882.24        72.87555
882.65         74.3631
883.05        75.07594
883.45        74.61342
883.85        73.63447
884.25        72.69426
884.65        72.38058
885.05        72.85791
885.45        73.88619
885.85        75.07021
886.25        75.77925
886.65        75.81039
887.05        75.36481
887.45        74.73759
887.85        74.35899
888.25        74.35928
888.65        74.62223
889.04         74.9868
889.44        75.10674
889.84        74.92936
890.24        74.56116
890.64        74.20956
891.04        74.17418
891.44        74.47765
891.84        74.96748
892.24        75.39661
892.64        75.35646
893.04        74.77946
893.44        73.90035
893.83        72.87236
894.23        71.93523
894.63        71.17008
895.03        70.50311
895.43        70.12496
895.83        70.35355
896.23        71.19386
896.63         72.5416
897.02        73.94813
897.42        74.57903
897.82        74.24294
898.22        73.17672
898.62        71.84708
899.01        70.98822
899.41        70.83514
899.81        71.15446
900.21        71.73296
900.61        72.24674
901.00        72.56962
901.40        72.77702
901.80        72.92357
902.20         73.0619
902.59        73.22005
902.99        73.37386
903.39        73.41004
903.79        73.16079
904.18        72.62865
904.58        71.92975
904.98         71.3893
905.38        71.50609
905.77        72.31805
906.17        73.63113
906.57        74.98703
906.96        75.69308
907.36        75.53657
907.76        74.72455
908.15        73.61758
908.55           72.74
908.95        72.28759
909.34        72.16179
909.74        72.14901
910.14        71.87644
910.53        71.26167
910.93        70.51219
911.33        69.96742
911.72        70.14809
912.12        71.08308
912.52         72.4859
912.91        73.91029
913.31        74.60694
913.70        74.44637
914.10        73.62791
914.49        72.39443
914.89        71.33267
915.29        70.72321
915.68        70.45623
916.08        70.52928
916.47        70.89795
916.87        71.46255
917.26         72.1982
917.66         72.9631
918.05        73.55381
918.45        73.86082
918.84        73.96449
919.24        73.73586
919.64        73.00705
920.03        71.84585
920.42        70.37457
920.82        69.12119
921.21        68.83503
921.61        69.58965
922.00        71.19868
922.40        72.99584
922.79        74.10645
923.19        74.24733
923.58        73.46654
923.98        72.08658
924.37        71.33215
924.77         71.6898
925.16        69.84161
925.55        71.14809
925.95        70.97167
926.34        70.91433
926.74        70.90664
927.13        71.05894
927.52        71.31693
927.92        71.63075
928.31        72.06343
928.70        72.49764
929.10        72.77365
929.49         72.8548
929.89        72.76456
930.28        72.69791
930.67        72.97668
931.07        73.61729
931.46        74.53435
931.85        75.41611
932.24        75.82627
932.64        75.64702
933.03        74.92211
933.42        73.87098
933.82        72.99366
934.21        72.46959
934.60         72.2572
934.99        71.96392
935.39        71.23521
935.78        70.04211
936.17        67.97977
936.56        65.35645
936.96         66.4519
937.35        66.31618
937.74        68.63461
938.13        70.94314
938.53         72.3962
938.92        72.90012
939.31        72.75355
939.70        72.23162
940.09        71.74096
940.49        71.50932
940.88        71.43996
941.27         71.5564
941.66         71.9342
942.05        72.53459
942.44        73.31664
942.84        74.17657
943.23        74.92742
943.62        75.45756
944.01        75.83173
944.40        75.88969
944.79        75.39916
945.18        74.36512
945.57        72.82711
945.97        71.33108
946.36        70.82064
946.75        71.56452
947.14        73.22466
947.53        75.02311
947.92        75.88559
948.31        75.61436
948.70        74.52697
949.09        73.10417
949.48        72.20033
949.87        72.08974
950.26        72.49395
950.65        73.09867
951.04        73.39224
951.43         73.2092
951.82        72.75842
952.21        72.18602
952.60        71.68953
952.99        71.35468
953.38        71.09681
953.77        70.92634
954.16        70.88305
954.55        70.95423
954.94        71.14645
955.33        71.38518
955.72        71.52367
956.11        71.53982
956.50        71.48466
956.89        71.42255
957.28        71.49106
957.66        71.72945
958.05        71.97687
958.44        72.26018
958.83        72.62669
959.22        73.05544
959.61        73.56909
960.00        73.88537
960.39        73.50648
960.78        72.37879
961.16        70.66426
961.55        68.99258
961.94        68.19593
962.33        68.44664
962.72        69.52369
963.11        70.87224
963.49        71.52831
963.88        71.13004
964.27        70.00599
964.66         68.6678
965.04        67.96332
965.43        68.12802
965.82        68.90446
966.21        69.92896
966.60        70.62208
966.98        70.81771
967.37        70.67596
967.76        70.46799
968.15        70.59312
968.53        71.14867
968.92        71.87935
969.31        72.54617
969.69        72.77873
970.08        72.42284
970.47        71.66759
970.86        70.65308
971.24        69.56018
971.63        68.55869
972.02        67.64571
972.40        66.93478
972.79        66.62341
973.17        66.77774
973.56        67.26833
973.95        68.03939
974.33         68.9468
974.72        69.75095
975.11        70.43179
975.49        70.80647
975.88        70.61324
976.26        69.87424
976.65        68.76531
977.04        67.49746
977.42        66.46311
977.81        65.83247
978.19        65.45912
978.58        65.53629
978.96        66.38486
979.35        67.89937
979.74        70.09394
980.12        72.17902
980.51         72.5042
980.89        70.91785
981.28        67.93479
981.66        64.89924
982.05         63.6636
982.43        64.49091
982.82        66.80804
983.20         69.6855
983.59        71.11887
983.97        70.57844
984.35        68.58634
984.74        66.10695
985.12        64.54941
985.51        64.34077
985.89        65.05022
986.28        66.20068
986.66        66.92532
987.04        66.80312
987.43        66.27135
987.81        65.50723
988.20        64.66829
988.58        63.74346
988.96        62.50204
989.35        61.15744
989.73        60.53187
990.12        60.97222
990.50        62.35918
990.88        63.81193
991.27        64.28909
991.65        63.81673
992.03        62.61617
992.42          61.394
992.80        61.50698
993.18         63.2789
993.56        66.01125
993.95        68.72404
994.33        70.48351
994.71        70.91926
995.10        70.38323
995.48        69.23781
995.86        67.91043
996.24        66.61812
996.63        65.31912
997.01        63.99232
997.39        62.84503
997.77        62.09085
998.15        61.70705
998.54        61.95102
998.92         63.1492
999.30        65.40738
999.68        69.05994
1000.06        73.08523
1000.45        73.86401
1000.83        70.20645
1001.21        63.97425
1001.59        58.41323
1001.97        56.08333
1002.35        56.81664
1002.73        59.89954
1003.12        64.16857
1003.50        66.76343
1003.88        66.14327
1004.26        63.22637
1004.64         59.4009
1005.02        56.58784
1005.40        55.35225
1005.78        55.09859
1006.16        55.65449
1006.54        56.68919
1006.92        57.74583
1007.30        58.75729
1007.69        59.53354
1008.07         60.0567
1008.45        60.29005
1008.83         60.3216
1009.21        59.60405
1009.59         56.9668
1009.97        52.20842
1010.35        46.18244
1010.73        41.90091
1011.11         42.4213
1011.49         47.3477
1011.86        55.32969
1012.24        62.88974
1012.62        66.69337
1013.00        66.42938
1013.38        63.38839
1013.76        59.10443
1014.14        56.22175
1014.52        55.62515
1014.90        56.48328
1015.28        57.85268
1015.66        58.15712
1016.04        56.81176
1016.41        54.35197
1016.79        51.27689
1017.17        48.94764
1017.55        48.12621
1017.93        48.23505
1018.31        48.77554
1018.69        49.32005
1019.06        49.68516
1019.44        49.82471
1019.82        49.48921
1020.20        48.09088
1020.58        45.58286
1020.95        42.31591
1021.33        38.55777
1021.71        33.69348
1022.09        26.62806
1022.46        14.09678
1022.84       -3.663046
1023.22       -8.421206
1023.60        8.982448
1023.97        28.54309
1024.35        39.42311
1024.73        42.71357
