SpectraSmart Spectrum 2.9.0.0
--------- Device Information -----------
Spectrum Name :  反射率_0
Saving Time :  2024/04/20 00:38:39
Spectro-Module Model Name : SE2030-DUVN
Spectro-Module Serial Number : OS361AC55029948
Wavelength Start : 200
Wavelength End : 1025
Wavelength Unit : Wavelength(nm)
Spectrum Unit : Reflectance(%)
-----------Spectrum Setting ------------
Integration Time : 30ms
Average : 10
Boxcar : 0
Background removal :  enabled
linearity correction :  enabled
SC :  disabled
Intensity correction :  disabled
DWT denoise :  enabled
savitzky-golay :  disabled
FFT :  disabled
Running average :  disabled
Kalman :  disabled
High pass :  disabled
---------------BEGIN--------------------
Wavelength(nm)             Reflectance(%)
200.29               0
200.75        53.17539
201.21         53.0987
201.67        55.43247
202.13        61.21132
202.58          70.701
203.04        84.27868
203.50        97.45089
203.96        99.61213
204.42        90.61087
204.88        77.33098
205.34        65.97973
205.80        59.40845
206.26        56.47048
206.72         55.7917
207.18        56.97931
207.64        58.23552
208.10        57.90107
208.55        57.08711
209.01        56.10054
209.47        55.96002
209.93        56.55079
210.39        57.39746
210.85        57.66844
211.31         56.4532
211.77        53.48805
212.23        48.48899
212.69        42.73258
213.14          41.563
213.60        46.04559
214.06        52.91668
214.52        58.53519
214.98        61.19789
215.44        61.45092
215.90         59.8181
216.36        57.39748
216.81        56.68307
217.27        58.46599
217.73        61.94777
218.19        64.75225
218.65        63.64677
219.11        58.01859
219.57        48.34116
220.02        37.13923
220.48        31.30121
220.94        33.25102
221.40        41.71857
221.86        51.98193
222.32        56.72263
222.77        54.37946
223.23        47.53656
223.69        40.47844
224.15        39.21379
224.61        43.62566
225.06        50.29832
225.52        56.08604
225.98        58.48479
226.44        57.53904
226.90        54.50103
227.36        50.50841
227.81        47.51532
228.27        46.58139
228.73        46.85337
229.19        47.79814
229.65        48.81166
230.10        49.62271
230.56        50.42925
231.02        51.11816
231.48        51.53116
231.93        51.62749
232.39        51.43307
232.85        50.98304
233.31        50.40125
233.77         49.7445
234.22        49.01211
234.68         48.2372
235.14        47.38139
235.60         46.5108
236.05        45.71494
236.51        45.14088
236.97        44.94687
237.43        45.20836
237.88        46.09994
238.34        47.45537
238.80        48.90142
239.26        49.94713
239.71        50.36806
240.17        50.35721
240.63        50.85355
241.08        52.16388
241.54         54.1114
242.00        55.74346
242.46        55.19995
242.91        51.52482
243.37        43.67381
243.83        32.56554
244.28        26.57936
244.74        33.43272
245.20        50.83524
245.66        67.06061
246.11        72.36751
246.57        65.94918
247.03        48.29408
247.48        22.97078
247.94        12.82897
248.40        23.04334
248.85        37.94569
249.31        49.44556
249.77         55.8028
250.22        58.55164
250.68        59.69296
251.14        59.70839
251.59        58.90061
252.05        57.77386
252.51        56.05869
252.96         53.9306
253.42        52.34033
253.88        51.67875
254.33        51.85717
254.79        53.43922
255.25        56.56329
255.70        60.69101
256.16        65.13238
256.62        68.59462
257.07         69.6541
257.53        68.49792
257.99        65.68121
258.44        61.95799
258.90        59.12379
259.35        57.15413
259.81          56.099
260.27        55.10933
260.72        53.41583
261.18        51.24969
261.63        48.55048
262.09        46.26374
262.55        45.22261
263.00        45.35899
263.46        46.31572
263.91         47.0715
264.37        46.66537
264.83        45.09089
265.28          42.738
265.74        40.61391
266.19        39.70971
266.65        40.15735
267.11        41.39947
267.56        42.69591
268.02         42.9777
268.47        42.06351
268.93        40.33693
269.38        38.26643
269.84        36.83175
270.30        36.29152
270.75        36.36411
271.21        36.66981
271.66        36.64527
272.12         36.1256
272.57        35.28824
273.03        34.39621
273.48        33.75682
273.94        33.48556
274.39        33.43167
274.85        33.38246
275.31        33.01489
275.76        32.26776
276.22        31.28265
276.67        30.30624
277.13        29.79815
277.58         29.7592
278.04        30.04708
278.49        30.28431
278.95        30.00037
279.40        29.10977
279.86        27.88963
280.31        26.60805
280.77        25.76929
281.22        25.40848
281.68        25.37972
282.13        25.48427
282.59         25.4669
283.04        25.24625
283.50        24.93848
283.95        24.57538
284.41        24.22939
284.86        23.90755
285.32        23.59559
285.77        23.31114
286.22        23.15483
286.68        23.12663
287.13        23.18447
287.59        23.24327
288.04        23.15324
288.50        22.90846
288.95        22.52987
289.41        22.12869
289.86        21.80396
290.32        21.62986
290.77        21.56158
291.22        21.57457
291.68        21.59791
292.13        21.61697
292.59         21.6643
293.04        21.77642
293.50        22.02072
293.95        22.39298
294.40         22.8496
294.86        23.32714
295.31        23.74167
295.77        24.07153
296.22        24.34573
296.68         24.5895
297.13        24.82035
297.58        25.06937
298.04        25.34454
298.49        25.67613
298.95        26.14599
299.40        26.74237
299.85        27.42543
300.31        28.12852
300.76         28.7503
301.21         29.2529
301.67         29.6808
302.12        30.00601
302.58         30.2413
303.03        30.38875
303.48        30.47017
303.94        30.58402
304.39        30.84656
304.84        31.27929
305.30        31.82995
305.75        32.37348
306.20        32.73318
306.66         32.8837
307.11        32.86682
307.57        32.76875
308.02        32.65468
308.47        32.57833
308.93        32.51409
309.38        32.47454
309.83        32.52428
310.29        32.65454
310.74        32.85106
311.19        33.01748
311.65        32.99563
312.10        32.75769
312.55         32.3538
313.00        31.90493
313.46        31.59954
313.91        31.46644
314.36        31.46206
314.82        31.49667
315.27        31.44635
315.72        31.26663
316.18        31.01282
316.63         30.7279
317.08        30.47922
317.53        30.28407
317.99        30.10639
318.44        29.93976
318.89        29.76952
319.35        29.58879
319.80         29.4094
320.25        29.21428
320.70        28.97289
321.16        28.68073
321.61        28.35007
322.06        28.01642
322.51        27.74349
322.97        27.53891
323.42        27.38564
323.87        27.23989
324.32        27.03434
324.78        26.74555
325.23        26.40266
325.68         26.0203
326.13        25.62832
326.59        25.24968
327.04        24.90322
327.49        24.60769
327.94         24.3931
328.39        24.26224
328.85        24.18934
329.30        24.19104
329.75        24.25332
330.20        24.35089
330.66        24.45256
331.11        24.50915
331.56        24.39749
332.01         24.0962
332.46        23.63814
332.92        23.11434
333.37        22.68701
333.82        22.42111
334.27        22.29993
334.72        22.27909
335.17        22.26978
335.63        22.23039
336.08        22.18359
336.53        22.16499
336.98        22.24086
337.43        22.41233
337.88        22.64787
338.34        22.81731
338.79        22.76137
339.24        22.43764
339.69        21.89874
340.14        21.33976
340.59        21.08564
341.05        21.19937
341.50        21.59337
341.95         22.0527
342.40        22.23991
342.85        22.07771
343.30        21.68052
343.75        21.20474
344.20        20.90639
344.66        20.85312
345.11        20.93036
345.56        21.06827
346.01        21.15704
346.46         21.1475
346.91        21.09409
347.36        20.95152
347.81        20.63593
348.26        20.16829
348.72        19.61085
349.17        19.08257
349.62        18.86287
350.07        19.01078
350.52        19.42656
350.97        19.96759
351.42        20.41796
351.87        20.69802
352.32        20.85189
352.77        20.87174
353.22        20.75321
353.67        20.51908
354.13        20.18596
354.58        19.80787
355.03        19.51209
355.48        19.33786
355.93        19.27242
356.38        19.28239
356.83        19.30084
357.28        19.29804
357.73        19.27915
358.18        19.24933
358.63        19.21781
359.08        19.18336
359.53        19.14139
359.98        19.05567
360.43         18.8758
360.88        18.60567
361.33        18.26891
361.78        17.95202
362.23        17.79429
362.68        17.81583
363.13         17.9595
363.58        18.12294
364.03        18.14805
364.48        17.99156
364.93        17.70195
365.38        17.32621
365.83        16.94939
366.28        16.61822
366.73        16.31882
367.18        16.07418
367.63        15.91773
368.08        15.84606
368.53        15.84846
368.98        15.88749
369.43         15.8964
369.88        15.85695
370.33        15.78912
370.78        15.69069
371.23        15.56664
371.68        15.42702
372.13         15.2604
372.58        15.12397
373.03        15.11517
373.48        15.24052
373.93        15.46514
374.38         15.6745
374.83         15.6927
375.28        15.48698
375.72         15.1029
376.17        14.67556
376.62        14.38413
377.07        14.28563
377.52          14.329
377.97        14.43869
378.42        14.49608
378.87        14.46444
379.32         14.3771
379.77        14.28052
380.22        14.23987
380.67         14.2668
381.11        14.33895
381.56        14.38858
382.01        14.32451
382.46        14.13063
382.91         13.8395
383.36        13.54665
383.81        13.39215
384.26        13.40401
384.71        13.54624
385.15        13.70862
385.60        13.72339
386.05        13.55651
386.50        13.25591
386.95        12.94844
387.40         12.8334
387.85        12.94371
388.29        13.20685
388.74        13.46941
389.19         13.5212
389.64        13.32628
390.09        12.95417
390.54        12.54916
390.98        12.33402
391.43        12.37462
391.88        12.58588
392.33        12.82972
392.78        12.90908
393.23        12.79243
393.67        12.54337
394.12        12.29827
394.57        12.19878
395.02        12.27246
395.47        12.46902
395.91        12.69278
396.36         12.7643
396.81        12.64328
397.26        12.38627
397.71         12.1111
398.15        11.97775
398.60         12.0311
399.05        12.20718
399.50        12.39707
399.95        12.44579
400.39        12.32219
400.84        12.07496
401.29        11.80953
401.74        11.71576
402.18        11.84731
402.63        12.12894
403.08        12.43128
403.53        12.55338
403.97        12.44993
404.42        12.19564
404.87        11.89951
405.32        11.73934
405.76        11.76144
406.21        11.90457
406.66        12.08749
407.11        12.18507
407.55        12.16359
408.00        12.06769
408.45        11.94166
408.90        11.82849
409.34        11.76421
409.79        11.78483
410.24        11.84957
410.68        11.84898
411.13        11.77535
411.58        11.69165
412.03        11.61694
412.47        11.56627
412.92        11.54746
413.37        11.54417
413.81        11.57223
414.26        11.66921
414.71        11.82528
415.15        12.03507
415.60        12.20625
416.05        12.21063
416.49        12.02365
416.94        11.69586
417.39        11.33901
417.83        11.13536
418.28        11.13688
418.73        11.28177
419.17        11.48845
419.62        11.61327
420.07        11.61988
420.51        11.55355
420.96        11.44937
421.41        11.34605
421.85        11.25864
422.30        11.17962
422.74         11.1184
423.19        11.11428
423.64        11.16286
424.08        11.26392
424.53        11.36739
424.98         11.4028
425.42         11.3543
425.87        11.24669
426.31        11.11394
426.76        11.01902
427.21        10.97093
427.65        10.94258
428.10        10.94556
428.54         10.9786
428.99        11.03593
429.44        11.16893
429.88        11.29687
430.33        11.21389
430.77        10.96169
431.22        10.77152
431.66        10.70303
432.11        10.72978
432.56         10.8469
433.00        11.09122
433.45        11.31981
433.89        11.31015
434.34        11.11604
434.78        10.87227
435.23        10.59951
435.67        11.03639
436.12        10.64752
436.57        10.57252
437.01        10.40197
437.46        10.33957
437.90        10.39137
438.35        10.46715
438.79        10.53021
439.24        10.56968
439.68        10.57177
440.13        10.44985
440.57        10.27345
441.02        10.31919
441.46        10.49274
441.91        10.47052
442.35        10.01067
442.80        9.818372
443.24        9.787887
443.69        9.707405
444.13        9.572368
444.58        9.488466
445.02        9.461884
445.47         9.48983
445.91        9.540968
446.36         9.54403
446.80        9.482286
447.24        9.386065
447.69         9.28602
448.13        9.205262
448.58        9.159252
449.02        9.140418
449.47        9.128448
449.91        9.087143
450.36        9.014832
450.80        8.921437
451.25        8.846738
451.69        8.838684
452.13        8.907204
452.58        9.026552
453.02        9.154847
453.47        9.223132
453.91        9.218094
454.36         9.15873
454.80        9.075697
455.24        9.023822
455.69        9.023194
456.13        9.044087
456.58        9.079026
457.02        9.112812
457.46        9.138652
457.91        9.142645
458.35        9.127688
458.79        9.113089
459.24        9.101665
459.68        9.086341
460.13        9.102178
460.57        9.111862
461.01        9.109309
461.46        9.336611
461.90        9.421732
462.34        9.345953
462.79        9.417778
463.23        9.327204
463.68        9.239557
464.12        9.173698
464.56        9.219171
465.01        9.299336
465.45        9.385968
465.89        9.444139
466.34        9.468381
466.78        9.440584
467.22        9.393206
467.67        9.446388
468.11         9.57949
468.55         9.60014
468.99        9.521877
469.44        9.523747
469.88        9.612941
470.32        9.688401
470.77        9.722884
471.21        9.727024
471.65        9.695454
472.10        9.630678
472.54        9.557618
472.98        9.542304
473.42        9.595456
473.87        9.669972
474.31        9.742449
474.75        9.831937
475.20        9.908785
475.64        9.875983
476.08        9.779376
476.52        9.776742
476.97        9.879805
477.41        10.01975
477.85        10.14619
478.29        10.20763
478.74        10.19002
479.18        10.09166
479.62         9.97974
480.06        9.961893
480.50        10.04246
480.95        10.13943
481.39        10.20686
481.83         10.2223
482.27        10.17916
482.72        10.09307
483.16        9.998079
483.60        9.964271
484.04        10.00095
484.48        10.09819
484.93        10.31051
485.37          10.481
485.81        10.57714
486.25          11.042
486.69        11.29176
487.14         10.5774
487.58        10.68874
488.02        11.40079
488.46         11.0288
488.90        11.09388
489.34        10.94919
489.79        11.04728
490.23        11.32128
490.67        11.48673
491.11        11.50735
491.55        11.40877
491.99        11.23827
492.43        11.13468
492.88        11.13144
493.32        11.12626
493.76         11.1436
494.20        11.27243
494.64        11.51193
495.08        11.82514
495.52        12.14445
495.96        12.37546
496.41        12.49401
496.85        12.50332
497.29        12.45727
497.73        12.50551
498.17        12.65478
498.61        12.75389
499.05        12.80025
499.49        12.91806
499.93        13.10777
500.37        13.26628
500.82        13.38686
501.26        13.56998
501.70        13.77913
502.14        13.82769
502.58        13.74917
503.02         13.7579
503.46        13.87072
503.90        13.97923
504.34        14.04997
504.78        14.07502
505.22        14.04777
505.66        13.98092
506.10         13.9098
506.54        13.88705
506.98         13.9302
507.42        14.02799
507.86        14.16204
508.30        14.30087
508.74        14.42795
509.18        14.54229
509.62        14.64988
510.06        14.76099
510.50        14.87669
510.94        14.99636
511.38        15.08776
511.82        15.10176
512.26        15.03537
512.70        14.90453
513.14        14.78179
513.58        14.77835
514.02         14.9064
514.46        15.13085
514.90        15.36291
515.34        15.40683
515.78        15.24474
516.22        15.02326
516.66        14.84623
517.10        14.51638
517.54        14.06728
517.98        14.69685
518.42        14.58549
518.86        14.87199
519.30        14.99119
519.74        15.12719
520.18        15.24011
520.62        15.24193
521.06        15.14662
521.50        14.96141
521.93        14.74903
522.37        14.62387
522.81        14.61208
523.25        14.68333
523.69         14.7901
524.13        14.85522
524.57        14.85401
525.01        14.80785
525.45        14.73696
525.89        14.67265
526.32         14.6255
526.76        14.58658
527.20         14.5422
527.64        14.47707
528.08        14.38841
528.52        14.28124
528.96        14.18126
529.40        14.12366
529.83        14.11353
530.27        14.14527
530.71        14.17313
531.15         14.1254
531.59        13.99375
532.03        13.80326
532.46        13.61928
532.90        13.55897
533.34        13.63412
533.78        13.79886
534.22        13.97985
534.66        14.06483
535.09        14.02278
535.53        13.89755
535.97        13.72479
536.41        13.55879
536.85        13.42655
537.28        13.32205
537.72        13.26424
538.16        13.24062
538.60        13.31502
539.04        13.42459
539.47        13.55348
539.91        13.67923
540.35        13.79706
540.79         13.7915
541.22        13.85509
541.66        13.91428
542.10        14.04024
542.54        13.99763
542.97        14.14955
543.41        14.22585
543.85         14.3264
544.29        14.42392
544.72        14.50728
545.16        14.59895
545.60        14.69658
546.04        14.74741
546.47        14.79974
546.91        15.02573
547.35         15.3834
547.79        15.66629
548.22        15.82646
548.66        15.89861
549.10        15.91151
549.53        15.98606
549.97         16.1459
550.41        16.13407
550.84        16.25942
551.28        16.35515
551.72        16.52498
552.15        16.73449
552.59        16.97572
553.03        17.24617
553.46        17.49358
553.90        17.65393
554.34        17.71721
554.77        17.70304
555.21        17.66511
555.65        17.68093
556.08        17.76827
556.52        17.90327
556.96        18.05642
557.39         18.2048
557.83        18.32835
558.27        18.39249
558.70        18.41048
559.14        18.43778
559.57        18.47624
560.01         18.5189
560.45        18.55335
560.88         18.5385
561.32        18.51418
561.75        18.53427
562.19        18.66173
562.63         18.7268
563.06        18.74333
563.50        18.76706
563.93        18.80756
564.37        18.91344
564.80         18.9995
565.24        19.13472
565.68        19.26484
566.11        19.37245
566.55        19.46588
566.98        19.51377
567.42        19.52821
567.85        19.77407
568.29        19.74752
568.72        20.04115
569.16        20.42805
569.60        20.69052
570.03        20.79458
570.47        20.87161
570.90        20.85336
571.34        21.13418
571.77        21.03145
572.21        21.29714
572.64        21.51173
573.08        21.58812
573.51        21.71858
573.95        22.37301
574.38        22.48911
574.82        22.68111
575.25        22.65154
575.69         22.4792
576.12         22.3828
576.56        22.43724
576.99        22.67234
577.42        22.77925
577.86        22.70742
578.29          22.606
578.73        22.97335
579.16        22.80809
579.60        22.54562
580.03        22.45831
580.47        22.66361
580.90        22.31659
581.33        22.23182
581.77        22.24594
582.20        22.40237
582.64        22.04254
583.07        21.65615
583.51        21.80161
583.94        21.44867
584.37        21.46229
584.81         21.1734
585.24        21.08591
585.68           21.09
586.11        20.86487
586.54        20.68361
586.98        20.64545
587.41        20.81026
587.85        20.84216
588.28        20.69248
588.71        20.53509
589.15        20.45933
589.58        20.17881
590.01        20.38149
590.45        20.72558
590.88        20.35971
591.31         20.2268
591.75        20.07238
592.18        20.22965
592.61        20.17762
593.05        20.53338
593.48        20.43903
593.91        20.70648
594.35        20.41992
594.78        20.60808
595.21        21.03147
595.65        21.36156
596.08        21.20348
596.51        21.17903
596.94        21.24673
597.38        21.38697
597.81        21.64133
598.24        21.72558
598.68         22.2735
599.11        22.45422
599.54        23.03485
599.97        23.13962
600.41        23.40862
600.84         24.0561
601.27        24.38638
601.70        24.73881
602.14        24.90512
602.57        25.32816
603.00        25.96303
603.43        26.47648
603.87        26.76654
604.30        27.14392
604.73        27.59176
605.16        28.17253
605.60        28.59899
606.03        29.14419
606.46        29.63465
606.89        30.27202
607.32        31.01872
607.76        31.18956
608.19        31.66585
608.62        32.13831
609.05        32.31994
609.48        32.65456
609.92        33.00447
610.35        33.46076
610.78        34.21563
611.21        34.97643
611.64        34.93564
612.07        35.36909
612.50        35.60587
612.94        35.83987
613.37        36.29575
613.80        36.69064
614.23        37.09602
614.66        37.64218
615.09         37.9538
615.52        38.43589
615.96        38.89895
616.39        39.26311
616.82        39.57137
617.25         39.4774
617.68        39.86585
618.11        40.21692
618.54        40.70536
618.97        40.93157
619.40        40.88631
619.84        41.16494
620.27        41.04974
620.70        41.45114
621.13        42.03253
621.56        42.34467
621.99        42.36145
622.42        42.47891
622.85         42.7265
623.28        42.92613
623.71        43.05615
624.14        43.08163
624.57        43.08995
625.00        42.79338
625.43        42.92122
625.86        42.42067
626.29         42.3058
626.72        42.06342
627.15        41.94149
627.58        41.88061
628.01        41.82108
628.44        41.64175
628.87        41.30266
629.30        40.89953
629.73        40.49243
630.16        39.92248
630.59        39.62732
631.02        39.24677
631.45        38.87914
631.88        38.47478
632.31        38.02008
632.74        37.52757
633.17        36.99542
633.60        36.42253
634.03        35.82074
634.46        35.21234
634.89        34.60909
635.32        34.01322
635.75        33.43633
636.18        32.89506
636.61        32.39041
637.04        31.91148
637.47        31.45087
637.89        31.00686
638.32        30.57768
638.75        30.17917
639.18        29.81555
639.61         29.4888
640.04        29.17245
640.47        28.82155
640.90        28.43318
641.33        28.02464
641.76        27.65155
642.18         27.4074
642.61        27.30493
643.04        27.31229
643.47         27.3714
643.90        27.38475
644.33        27.32719
644.76        27.23653
645.18        27.13925
645.61        27.08364
646.04        27.09132
646.47        27.14536
646.90        27.27765
647.33        27.54006
647.75         27.9348
648.18        28.44494
648.61        28.99393
649.04        29.46167
649.47        29.82822
649.89        30.10115
650.32        30.36771
650.75        30.85095
651.18        31.55539
651.61        32.22684
652.03        32.85993
652.46        33.69505
652.89        34.67669
653.32        35.35849
653.74        35.77443
654.17         36.4448
654.60        37.17049
655.03        38.15966
655.46        38.29611
655.88        40.30717
656.31        41.50712
656.74        47.16315
657.16        44.88554
657.59        41.66065
658.02        42.94708
658.45        44.06872
658.87        45.29555
659.30         46.3608
659.73        46.78622
660.15         47.9838
660.58        48.10438
661.01          48.408
661.44        48.53566
661.86        49.00497
662.29        49.81152
662.72        50.68202
663.14        51.46917
663.57        51.81015
664.00        51.82798
664.42        52.04299
664.85        52.54058
665.27        53.14592
665.70        53.80778
666.13        54.02045
666.55        54.61989
666.98        54.95709
667.41        55.28951
667.83        55.55608
668.26        55.75993
668.69        55.91726
669.11        56.05333
669.54        56.22806
669.96        56.46047
670.39        56.73838
670.82        57.04646
671.24        57.34727
671.67        57.62915
672.09        57.88746
672.52        58.10673
672.94        58.31745
673.37        58.48257
673.80        58.41185
674.22        58.20714
674.65        58.20238
675.07         58.4483
675.50        58.77085
675.92        59.09482
676.35        59.32247
676.77          59.424
677.20        59.43722
677.62        59.40747
678.05        59.41509
678.47        59.47956
678.90        59.57883
679.32        59.71734
679.75        59.88027
680.17        60.04746
680.60        60.30111
681.02        60.59166
681.45         60.6002
681.87        60.41473
682.30        60.57066
682.72        61.00094
683.15        61.06524
683.57         60.8346
684.00        60.78403
684.42        61.01876
684.85        61.43054
685.27        61.36597
685.70        61.51212
686.12        61.62069
686.54           61.95
686.97        62.10938
687.39        61.90611
687.82        62.17705
688.24        62.19516
688.66        62.24239
689.09         62.2868
689.51        62.34407
689.94        62.38868
690.36        62.43271
690.78        62.45926
691.21        62.45953
691.63        62.57087
692.06        62.82347
692.48        62.70288
692.90        62.81134
693.33        63.22699
693.75        63.04056
694.17         63.1645
694.60        63.25416
695.02          63.134
695.44        62.83786
695.87        62.84841
696.29        63.11519
696.71        62.96815
697.14        62.61168
697.56        62.91016
697.98        63.63778
698.41        64.52008
698.83        64.11118
699.25        63.79663
699.68        63.79401
700.10        63.71862
700.52        63.76407
700.94        63.92154
701.37        64.10706
701.79        64.23158
702.21        64.24367
702.64        64.11459
703.06         63.9529
703.48        64.08905
703.90        64.48526
704.33        64.74606
704.75        64.80878
705.17        64.82432
705.59        64.76933
706.01        64.56391
706.44        64.31881
706.86        64.14732
707.28        64.15159
707.70        64.60089
708.12        65.29432
708.55         65.5554
708.97        65.36202
709.39         65.1954
709.81        65.11332
710.23        65.10345
710.66        64.89149
711.08        64.86519
711.50        64.92643
711.92        65.02625
712.34        65.15421
712.76        65.33405
713.19        65.52175
713.61        65.68499
714.03        65.78413
714.45        65.82463
714.87        65.83599
715.29        65.88854
715.71        65.99796
716.13         66.1145
716.56        66.19467
716.98        66.38729
717.40        66.43014
717.82        66.51583
718.24         66.5684
718.66           66.58
719.08        66.55087
719.50        66.48508
719.92        66.41463
720.34        66.38346
720.76        66.40237
721.19         66.4595
721.61        66.53168
722.03        66.54364
722.45        66.50235
722.87        66.41766
723.29        66.34071
723.71        66.34406
724.13        66.44666
724.55        66.62528
724.97         66.8457
725.39        67.03971
725.81        67.18081
726.23        67.30198
726.65        67.42077
727.07         67.4584
727.49         67.5978
727.91        67.67884
728.33        67.74705
728.75        67.78748
729.17        67.80545
729.59        67.82008
730.01         67.8232
730.43         67.8184
730.85        67.81358
731.27        67.75526
731.69        67.70235
732.10        67.87701
732.52        68.22822
732.94        68.44397
733.36        68.44769
733.78        68.45943
734.20        68.57652
734.62         68.1617
735.04        68.26846
735.46        68.28939
735.88        68.35846
736.30        67.75073
736.72        68.02374
737.13        68.19088
737.55        68.59046
737.97        68.99616
738.39        69.24305
738.81        69.07578
739.23        68.61652
739.65        68.34565
740.06        68.33231
740.48        68.71811
740.90        69.05828
741.32        68.94631
741.74        68.41689
742.16        68.34763
742.57         68.8026
742.99        69.19941
743.41         69.4305
743.83        69.57412
744.25        69.59338
744.67        69.45274
745.08        69.23328
745.50        69.04816
745.92        68.95162
746.34        68.91828
746.75        68.91652
747.17        68.88998
747.59        68.83601
748.01        68.79629
748.42         68.7953
748.84        68.88275
749.26        69.08071
749.68        69.19431
750.09        69.25405
750.51        69.67616
750.93        70.27492
751.35        70.22731
751.76        69.62525
752.18        69.33564
752.60        69.40533
753.01        69.37109
753.43         69.2402
753.85        69.25867
754.27        69.42176
754.68        69.81455
755.10        70.13165
755.52         70.2111
755.93        70.08601
756.35        69.95775
756.77        69.57472
757.18        69.53703
757.60        69.82045
758.02        70.17779
758.43        70.40505
758.85        70.96706
759.26        71.15553
759.68        70.42403
760.10         70.5297
760.51        70.28294
760.93        70.31036
761.34        70.08663
761.76        70.26192
762.18         69.9017
762.59        69.51347
763.01        68.99534
763.42        70.13371
763.84        70.77148
764.26        71.19021
764.67        71.00776
765.09        70.50121
765.50        70.62347
765.92        71.30177
766.33        71.56694
766.75        71.29204
767.16        71.02519
767.58        70.80965
768.00        70.55508
768.41        70.38506
768.83        70.46823
769.24        70.79243
769.66        71.18659
770.07        71.52052
770.49        71.73524
770.90        71.80544
771.32         71.7321
771.73        71.58937
772.15        71.46264
772.56        71.39841
772.97        71.39816
773.39        71.39374
773.80        71.33427
774.22        71.17192
774.63        70.88148
775.05        70.59061
775.46        70.58282
775.88        70.87621
776.29        71.40407
776.70        71.93688
777.12        72.13579
777.53        71.93427
777.95        71.41066
778.36        70.81898
778.77         70.5913
779.19        70.82947
779.60        71.44352
780.02        72.13181
780.43        72.56891
780.84        72.65315
781.26        72.15131
781.67        71.42049
782.09        71.86534
782.50        73.16727
782.91        73.24731
783.33        72.19347
783.74        71.89465
784.15        72.40272
784.57        72.68369
784.98        72.61079
785.39        72.33988
785.81         71.9339
786.22        71.65128
786.63         71.5537
787.04        71.48598
787.46        71.46276
787.87        71.61253
788.28        71.91464
788.70        72.17825
789.11        72.34647
789.52        72.60882
789.93        72.90548
790.35        72.79201
790.76        72.41479
791.17        72.55322
791.58        73.11448
792.00        73.17544
792.41        72.70303
792.82        72.38471
793.23        72.24819
793.65        71.83251
794.06        71.38452
794.47        71.58081
794.88        72.19064
795.29        73.28391
795.71        72.87749
796.12        72.91486
796.53        73.31621
796.94        72.99166
797.35        72.24486
797.76        71.95484
798.18        72.17172
798.59        72.31024
799.00        72.36457
799.41        72.40673
799.82        72.99786
800.23         73.2151
800.64         73.1916
801.06        72.98527
801.47        72.75253
801.88         72.6757
802.29        72.79224
802.70        73.02267
803.11          73.255
803.52        73.31071
803.93        73.16592
804.34        72.92196
804.75        72.64776
805.17         72.4905
805.58         72.5179
805.99        72.44253
806.40        72.40358
806.81        72.92698
807.22        74.23374
807.63        74.36397
808.04        73.58881
808.45        73.05028
808.86        73.06973
809.27        73.76641
809.68        74.86716
810.09        75.35837
810.50        75.06211
810.91        74.60982
811.32        74.22414
811.73        73.87357
812.14        73.62513
812.55         73.6954
812.96        73.90923
813.37         73.4985
813.78        72.62779
814.19        72.41523
814.60        72.84311
815.01        73.02389
815.42         72.9304
815.83        73.07438
816.24        73.43594
816.65        73.68726
817.05        73.78488
817.46        73.77583
817.87        73.70094
818.28        73.57963
818.69        73.44363
819.10        73.28552
819.51        73.15915
819.92        73.21279
820.33        73.47701
820.74        73.77186
821.14        74.05801
821.55        74.55431
821.96        75.08241
822.37        74.93734
822.78        74.25995
823.19        73.95258
823.60        74.11446
824.00         74.2872
824.41        74.34732
824.82        74.40208
825.23        74.42142
825.64        74.39972
826.04        74.36887
826.45         74.3286
826.86        74.29744
827.27        74.26682
827.68        74.24797
828.08        74.28489
828.49        74.32797
828.90        74.40005
829.31          74.467
829.72        74.46796
830.12        74.40656
830.53        74.26363
830.94         74.0965
831.35        73.96282
831.75        73.90353
832.16        73.87077
832.57         73.8616
832.97        73.84377
833.38        73.79139
833.79        73.71598
834.20        73.66159
834.60        73.68672
835.01        73.81371
835.42        74.02769
835.82          74.245
836.23        74.27415
836.64        74.09833
837.04        73.76041
837.45         73.4134
837.86        73.35252
838.26        73.65092
838.67        74.19677
839.08        74.76687
839.48         74.9369
839.89        74.60532
840.29        73.94447
840.70        73.26938
841.11        72.96431
841.51        73.13824
841.92        73.61211
842.33        74.28275
842.73        74.97411
843.14        75.49058
843.54        75.93683
843.95        76.17667
844.35        76.07339
844.76        75.64218
845.17        74.95242
845.57        74.21903
845.98        73.80354
846.38        73.78991
846.79        74.08017
847.19        74.59962
847.60        75.05417
848.00        75.38688
848.41        75.60959
848.81        75.76697
849.22        75.84781
849.62        75.90162
850.03        75.84937
850.43        75.76479
850.84        75.69544
851.24        75.71038
851.65        75.75295
852.05        75.80527
852.46        75.71844
852.86        75.48738
853.27        75.17591
853.67        74.82867
854.07        74.68354
854.48         74.7266
854.88        74.82694
855.29        74.89869
855.69        75.04942
856.10        75.17585
856.50        75.28804
856.90        75.35931
857.31        75.41621
857.71        75.53192
858.12        75.63016
858.52        75.69894
858.92        75.61707
859.33        75.35303
859.73        74.97225
860.13        74.59733
860.54        74.46742
860.94        74.70264
861.34        75.19455
861.75        75.68594
862.15        75.85316
862.55        75.57399
862.96        74.98431
863.36        74.29314
863.76        73.82467
864.17        73.68682
864.57        73.79923
864.97        74.09607
865.38        74.46021
865.78        74.87653
866.18        75.29845
866.58        75.62877
866.99        75.69771
867.39        75.50459
867.79        75.06473
868.19        74.36778
868.60        73.39359
869.00        72.16281
869.40        70.75923
869.80        69.52542
870.21        69.00931
870.61        69.38598
871.01        70.45618
871.41        71.74347
871.81        72.47364
872.22        72.47271
872.62        71.96581
873.02        71.24762
873.42        71.01563
873.82        71.24239
874.22        71.23622
874.63        71.13404
875.03        71.31236
875.43        71.75817
875.83        73.29915
876.23        73.18191
876.63        72.65974
877.03        71.26406
877.44        69.08781
877.84        128.6828
878.24        69.25849
878.64        70.53664
879.04        74.22385
879.44        71.12524
879.84        69.33932
880.24        73.35124
880.64        73.46579
881.04        70.67668
881.44        68.99154
881.84        69.04856
882.24        70.18299
882.65        71.74583
883.05        72.50497
883.45          72.059
883.85        71.07515
884.25        70.09074
884.65        69.65149
885.05        69.92058
885.45        70.69109
885.85         71.5872
886.25        72.00655
886.65        71.78642
887.05        71.15001
887.45        70.42651
887.85        70.09344
888.25         70.2765
888.65        70.81745
889.04        71.53442
889.44        72.03988
889.84         72.2288
890.24        72.20212
890.64        72.06493
891.04         71.9759
891.44        71.96416
891.84        71.93502
892.24         71.8345
892.64        71.59278
893.04        71.21468
893.44        70.80201
893.83        70.33207
894.23        69.78471
894.63        69.16965
895.03        68.49734
895.43        67.96625
895.83         67.9081
896.23        68.36378
896.63        69.22099
897.02        70.15664
897.42        70.56344
897.82        70.30725
898.22        69.58518
898.62        68.70627
899.01        68.14275
899.41        68.06446
899.81        68.30618
900.21        68.77805
900.61        69.35253
901.00        69.94231
901.40        70.54573
901.80        71.09661
902.20        71.46087
902.59        71.60549
902.99        71.54986
903.39        71.27895
903.79        70.79273
904.18        70.14018
904.58        69.39482
904.98        68.78822
905.38         68.6655
905.77        69.06644
906.17        69.90232
906.57        70.83721
906.96         71.3586
907.36        71.29839
907.76        70.77621
908.15        70.12661
908.55        69.84591
908.95        70.07107
909.34        70.67982
909.74        71.28526
910.14         71.2191
910.53        70.34296
910.93        68.97015
911.33        67.65281
911.72         67.2545
912.12        67.91007
912.52        69.24928
912.91        70.77582
913.31        71.64626
913.70        71.68866
914.10        71.15307
914.49        70.20081
914.89        69.25716
915.29        68.55385
915.68        67.99534
916.08        67.73525
916.47         67.9708
916.87        68.63818
917.26        69.65936
917.66        70.72011
918.05         71.3272
918.45        71.31577
918.84        70.86256
919.24        70.07194
919.64        69.15026
920.03        68.24586
920.42        67.35203
920.82        66.74806
921.21        66.81067
921.61        67.52441
922.00        68.81553
922.40        70.20245
922.79        71.11823
923.19        71.37979
923.58         70.9182
923.98        69.91634
924.37        69.40829
924.77         69.8186
925.16        67.71022
925.55        68.93159
925.95        68.70271
926.34        68.78114
926.74        68.99242
927.13        69.38374
927.52        69.81546
927.92        70.20071
928.31        70.63724
928.70         70.9595
929.10        70.92579
929.49         70.5111
929.89        69.78236
930.28        69.08171
930.67        68.96375
931.07        69.49967
931.46        70.55282
931.85        71.68721
932.24        72.25371
932.64        72.08798
933.03        71.30593
933.42        70.19409
933.82        69.37958
934.21        69.06689
934.60        69.10825
934.99        69.11246
935.39        68.79865
935.78        68.13842
936.17        66.71613
936.56        64.65762
936.96        65.85509
937.35        65.17329
937.74        66.59165
938.13        68.02258
938.53        69.11068
938.92        69.81933
939.31        70.30914
939.70        70.62561
940.09        70.68706
940.49         70.5326
940.88        70.21763
941.27        69.93034
941.66        69.98939
942.05        70.43182
942.44        71.12164
942.84        71.93798
943.23        72.68325
943.62        73.22591
944.01        73.65326
944.40        73.75735
944.79        73.20522
945.18        71.98392
945.57        70.15849
945.97        68.33395
946.36        67.58189
946.75        68.22232
947.14        69.86523
947.53        71.72101
947.92        72.69404
948.31        72.56703
948.70        71.68475
949.09        70.43086
949.48        69.48676
949.87        69.10752
950.26        69.06041
950.65        69.24743
951.04        69.52451
951.43        69.79671
951.82        70.14285
952.21         70.4341
952.60        70.43139
952.99        70.09637
953.38        69.46608
953.77        68.72822
954.16        68.20483
954.55          67.983
954.94        68.00952
955.33        68.12685
955.72        68.04966
956.11        67.72787
956.50        67.27517
956.89        66.90537
957.28         67.0019
957.66        67.64256
958.05        68.53527
958.44        69.47186
958.83        70.20908
959.22        70.66917
959.61        70.94733
960.00        70.88686
960.39        70.23014
960.78        69.01221
961.16        67.33381
961.55        65.73534
961.94        64.90598
962.33        64.99187
962.72        65.84351
963.11        66.98632
963.49        67.58153
963.88        67.29825
964.27         66.3885
964.66        65.31245
965.04        64.84379
965.43        65.17556
965.82        66.07503
966.21        67.10375
966.60        67.56634
966.98        67.30432
967.37        66.52467
967.76        65.69384
968.15        65.52229
968.53        66.18098
968.92        67.34602
969.31        68.57909
969.69        69.16396
970.08        68.84828
970.47        67.90668
970.86        66.65234
971.24        65.55367
971.63        64.85506
972.02        64.45629
972.40        64.29254
972.79        64.27602
973.17        64.37852
973.56        64.54379
973.95        64.88408
974.33        65.54582
974.72        66.37478
975.11        67.26559
975.49        67.84924
975.88        67.57923
976.26        66.41513
976.65        64.62323
977.04         62.6181
977.42        61.12375
977.81        60.42556
978.19        60.32134
978.58        60.79296
978.96        61.78177
979.35        63.09818
979.74        64.85418
980.12        66.58403
980.51        67.19722
980.89        66.60702
981.28        65.04173
981.66        63.38919
982.05        62.94184
982.43        63.87263
982.82        65.76717
983.20         67.9571
983.59        68.92013
983.97        68.29556
984.35         66.4858
984.74         64.2267
985.12        62.54861
985.51        61.78417
985.89        61.62114
986.28         61.8483
986.66         62.1229
987.04        62.20366
987.43        62.29473
987.81        62.25145
988.20         61.8481
988.58        60.99422
988.96        59.55755
989.35        57.79002
989.73        56.67715
990.12        56.74081
990.50        57.80548
990.88        59.07146
991.27        59.55711
991.65        59.27784
992.03         58.5002
992.42        57.74673
992.80        57.95154
993.18         59.3749
993.56        61.47343
993.95        63.65771
994.33        65.56702
994.71         66.8746
995.10        67.67793
995.48        67.97054
995.86        67.65296
996.24        66.76204
996.63        65.34991
997.01         63.4218
997.39        61.35931
997.77        59.61189
998.15        58.27208
998.54        57.61003
998.92        57.80425
999.30        58.82621
999.68        60.91381
1000.06        63.40141
1000.45         63.9129
1000.83        61.65766
1001.21         57.7486
1001.59        54.25547
1001.97        52.86919
1002.35        53.47334
1002.73        55.57421
1003.12        58.34404
1003.50        59.81475
1003.88        58.97218
1004.26         56.5404
1004.64        53.51383
1005.02        51.21796
1005.40        50.05135
1005.78         49.5844
1006.16        49.91975
1006.54        51.18614
1006.92        52.96179
1007.30        54.89941
1007.69        56.40498
1008.07        57.08353
1008.45        56.80902
1008.83        55.55497
1009.21        52.87371
1009.59        48.69893
1009.97        43.88739
1010.35        39.25146
1010.73        36.60296
1011.11        37.17633
1011.49        40.43337
1011.86        45.90458
1012.24        50.95095
1012.62         53.1936
1013.00        52.47256
1013.38        49.63889
1013.76        46.07186
1014.14        44.25292
1014.52        44.89241
1014.90        47.15596
1015.28        49.93742
1015.66        51.40207
1016.04        50.89474
1016.41        48.97776
1016.79        45.96845
1017.17        42.97617
1017.55        40.98056
1017.93        39.74755
1018.31        39.42084
1018.69        40.18999
1019.06        41.85167
1019.44        44.22379
1019.82        46.70271
1020.20        47.53185
1020.58        45.93548
1020.95        42.38163
1021.33        37.59097
1021.71        31.68587
1022.09        23.69931
1022.46        9.887535
1022.84       -10.20333
1023.22       -18.19291
1023.60       -2.335715
1023.97        17.62372
1024.35        29.25224
1024.73        33.14332
