SpectraSmart Spectrum 2.9.0.0
--------- Device Information -----------
Spectrum Name :  反射率_0
Saving Time :  2024/04/20 00:34:09
Spectro-Module Model Name : SE2030-DUVN
Spectro-Module Serial Number : OS361AC55029948
Wavelength Start : 200
Wavelength End : 1025
Wavelength Unit : Wavelength(nm)
Spectrum Unit : Reflectance(%)
-----------Spectrum Setting ------------
Integration Time : 30ms
Average : 10
Boxcar : 0
Background removal :  enabled
linearity correction :  enabled
SC :  disabled
Intensity correction :  disabled
DWT denoise :  enabled
savitzky-golay :  disabled
FFT :  disabled
Running average :  disabled
Kalman :  disabled
High pass :  disabled
---------------BEGIN--------------------
Wavelength(nm)             Reflectance(%)
200.29               0
200.75        59.62136
201.21        59.90487
201.67        61.58524
202.13         64.7129
202.58        69.13098
203.04        74.94104
203.50        80.57355
203.96        81.88544
204.42        78.66804
204.88        73.60276
205.34        68.72318
205.80        64.61967
206.26        60.54837
206.72        55.26513
207.18        48.51898
207.64        43.62169
208.10        44.46817
208.55        50.41305
209.01        56.84373
209.47        60.29888
209.93         60.7704
210.39        59.53858
210.85        57.39006
211.31        55.03518
211.77        52.47068
212.23        48.99283
212.69        45.00985
213.14        43.33833
213.60        44.76717
214.06        48.17302
214.52        51.34386
214.98         53.0943
215.44        53.59939
215.90         52.8864
216.36        51.82737
216.81        52.27255
217.27         54.5757
217.73        58.25048
218.19         60.5938
218.65        57.83386
219.11        49.36498
219.57        35.62196
220.02        20.37205
220.48        13.37978
220.94        18.06479
221.40        32.34682
221.86        49.19063
222.32        57.74922
222.77        55.61443
223.23        46.50623
223.69        35.99273
224.15        32.06787
224.61        35.21567
225.06        41.34725
225.52        46.95578
225.98        49.28452
226.44        48.23439
226.90        45.16222
227.36        41.10767
227.81        37.79377
228.27        36.30348
228.73        35.94434
229.19         36.2845
229.65        36.84644
230.10        37.40482
230.56        38.03931
231.02        38.78488
231.48        39.64906
231.93        40.56784
232.39        41.50318
232.85        42.16332
233.31        42.14803
233.77        41.41794
234.22         40.0737
234.68        38.62171
235.14        37.84866
235.60        37.98802
236.05        38.87319
236.51        40.02048
236.97         40.6487
237.43        40.57372
237.88        40.02341
238.34        39.29447
238.80        39.62875
239.26        41.54657
239.71        44.41359
240.17        47.34071
240.63        49.61854
241.08        51.13599
241.54        52.20147
242.00        52.26423
242.46        50.09404
242.91        44.94799
243.37         35.3633
243.83        22.37197
244.28         15.5893
244.74        23.96358
245.20        45.05318
245.66        65.11414
246.11        72.91029
246.57         67.7971
247.03        50.41667
247.48        24.38292
247.94        13.33792
248.40        23.14663
248.85        37.97416
249.31        49.34595
249.77        55.20693
250.22        57.06098
250.68        56.90984
251.14        55.54786
251.59        54.13964
252.05        53.67237
252.51        53.76612
252.96         53.7149
253.42        52.84965
253.88        51.22497
254.33        49.38525
254.79        49.08172
255.25        51.68438
255.70        56.57527
256.16        62.45517
256.62        67.20332
257.07        68.46351
257.53        66.51239
257.99        62.48343
258.44        57.80283
258.90        54.98718
259.35        53.85627
259.81        53.87276
260.27        53.86963
260.72        52.88746
261.18        51.17454
261.63        48.76377
262.09        46.63207
262.55        45.62806
263.00          45.696
263.46        46.49702
263.91        47.00371
264.37        46.24278
264.83        44.24292
265.28        41.44079
265.74        38.92184
266.19        37.78895
266.65        38.17236
267.11        39.45768
267.56        40.84354
268.02        41.16969
268.47        40.23293
268.93        38.44998
269.38        36.27651
269.84        34.67856
270.30        33.92728
270.75         33.7385
271.21        33.81786
271.66         33.7314
272.12        33.32372
272.57        32.74098
273.03        32.10795
273.48        31.51353
273.94        31.04176
274.39        30.62651
274.85        30.21682
275.31         29.7288
275.76         29.1353
276.22        28.47755
276.67        27.86881
277.13        27.56665
277.58        27.53305
278.04        27.70444
278.49         27.7815
278.95        27.39379
279.40        26.49117
279.86        25.30797
280.31         24.1057
280.77        23.37863
281.22        23.14967
281.68         23.2666
282.13         23.5113
282.59        23.58824
283.04        23.41245
283.50        23.11721
283.95        22.74082
284.41        22.36288
284.86        22.00619
285.32        21.65642
285.77        21.37332
286.22        21.31821
286.68        21.48647
287.13        21.80448
287.59        22.12149
288.04        22.19704
288.50        22.00891
288.95        21.61247
289.41        21.15281
289.86        20.78632
290.32        20.60727
290.77        20.55083
291.22        20.60289
291.68        20.70711
292.13        20.84706
292.59        21.05944
293.04         21.3357
293.50        21.66929
293.95        22.04579
294.40        22.43797
294.86        22.85607
295.31        23.33449
295.77        23.87201
296.22         24.4613
296.68        25.02859
297.13        25.43159
297.58        25.66188
298.04        25.77215
298.49        25.90047
298.95        26.29663
299.40        26.99013
299.85        27.89672
300.31        28.84392
300.76        29.56825
301.21        30.00439
301.67        30.25356
302.12        30.40817
302.58          30.658
303.03        31.02678
303.48        31.46397
303.94        31.93547
304.39        32.35809
304.84         32.7143
305.30        33.02612
305.75        33.28099
306.20        33.47356
306.66        33.62702
307.11        33.73158
307.57        33.80881
308.02        33.82619
308.47        33.80957
308.93        33.76334
309.38        33.73905
309.83        33.85818
310.29        34.11893
310.74        34.47787
311.19        34.78657
311.65        34.81186
312.10        34.51261
312.55        33.96876
313.00        33.36057
313.46        32.96478
313.91        32.83474
314.36        32.90654
314.82        33.04581
315.27        33.05396
315.72        32.86459
316.18        32.55236
316.63        32.20389
317.08        31.95378
317.53        31.82931
317.99        31.76967
318.44        31.71022
318.89        31.54318
319.35        31.24502
319.80        30.86431
320.25        30.45341
320.70        30.09198
321.16        29.80341
321.61        29.56359
322.06        29.36091
322.51        29.18031
322.97        29.00091
323.42        28.83137
323.87         28.6361
324.32         28.3605
324.78        27.99295
325.23        27.55771
325.68         27.0906
326.13         26.6624
326.59        26.30283
327.04        26.01863
327.49        25.80337
327.94        25.64267
328.39        25.52271
328.85        25.42755
329.30        25.37242
329.75        25.34287
330.20        25.32241
330.66        25.28288
331.11        25.20325
331.56        25.00403
332.01        24.67394
332.46        24.23751
332.92        23.75875
333.37        23.35125
333.82        23.06013
334.27        22.87348
334.72        22.76231
335.17        22.66833
335.63        22.55952
336.08        22.45319
336.53        22.36348
336.98        22.32107
337.43        22.32861
337.88        22.37894
338.34        22.38928
338.79        22.27077
339.24        21.99734
339.69        21.59632
340.14        21.22357
340.59        21.13759
341.05         21.3669
341.50        21.82671
341.95        22.30412
342.40        22.46984
342.85        22.25446
343.30        21.77641
343.75        21.18806
344.20        20.74354
344.66        20.52129
345.11        20.41444
345.56        20.40577
346.01        20.46145
346.46        20.54089
346.91        20.67661
347.36        20.73469
347.81        20.49508
348.26        19.95119
348.72        19.19844
349.17        18.45127
349.62        18.15279
350.07        18.39662
350.52        19.02473
350.97        19.78924
351.42        20.31707
351.87        20.49832
352.32        20.43647
352.77         20.2055
353.22        19.92998
353.67        19.66759
354.13        19.38597
354.58        19.09743
355.03        18.86549
355.48        18.70618
355.93        18.63425
356.38        18.61148
356.83        18.55826
357.28        18.45282
357.73        18.30326
358.18        18.15651
358.63        18.09542
359.08         18.1304
359.53        18.22883
359.98        18.30541
360.43        18.23387
360.88        17.99539
361.33        17.63437
361.78        17.25105
362.23        17.00921
362.68        16.94513
363.13         16.9991
363.58        17.08218
364.03        17.05709
364.48        16.88484
364.93        16.61129
365.38        16.27591
365.83        15.94649
366.28        15.65913
366.73        15.39892
367.18        15.18058
367.63        15.02644
368.08        14.93426
368.53        14.90052
368.98        14.89572
369.43        14.86702
369.88        14.80125
370.33        14.71175
370.78        14.60864
371.23        14.51621
371.68         14.4428
372.13        14.37077
372.58        14.31618
373.03        14.30831
373.48        14.34259
373.93        14.40861
374.38        14.44792
374.83        14.36887
375.28        14.16009
375.72        13.84578
376.17        13.52263
376.62        13.30572
377.07        13.23139
377.52        13.26391
377.97        13.35621
378.42        13.43326
378.87        13.46467
379.32        13.46552
379.77        13.44521
380.22         13.4164
380.67        13.38385
381.11        13.34493
381.56        13.27605
382.01        13.15923
382.46        12.99459
382.91         12.7862
383.36        12.58866
383.81        12.47928
384.26        12.46914
384.71        12.54626
385.15        12.61626
385.60        12.53291
386.05        12.27811
386.50        11.89891
386.95        11.53851
387.40        11.42284
387.85        11.58522
388.29        11.93967
388.74        12.31387
389.19        12.47318
389.64        12.37185
390.09        12.08404
390.54        11.73865
390.98          11.537
391.43        11.54417
391.88         11.6811
392.33        11.84408
392.78        11.88732
393.23        11.78513
393.67        11.58589
394.12        11.38809
394.57        11.28046
395.02        11.28296
395.47        11.36477
395.91        11.46342
396.36        11.46145
396.81         11.3372
397.26        11.12416
397.71        10.91576
398.15        10.83663
398.60        10.91775
399.05         11.1075
399.50        11.29445
399.95        11.31907
400.39        11.15205
400.84        10.84006
401.29        10.50613
401.74        10.37461
402.18        10.50925
402.63        10.82973
403.08        11.18171
403.53        11.32329
403.97        11.20199
404.42        10.90524
404.87        10.56886
405.32        10.41399
405.76        10.49422
406.21        10.72882
406.66        11.00997
407.11        11.17306
407.55        11.17361
408.00        11.06995
408.45        10.91568
408.90        10.77381
409.34        10.68908
409.79        10.68476
410.24        10.73144
410.68        10.74262
411.13        10.70981
411.58        10.68919
412.03        10.67511
412.47        10.63904
412.92        10.58066
413.37        10.49991
413.81        10.44155
414.26        10.48789
414.71        10.64157
415.15        10.88309
415.60        11.10878
416.05        11.16965
416.49        11.02977
416.94        10.74391
417.39        10.41718
417.83        10.22145
418.28        10.20821
418.73        10.31801
419.17        10.47931
419.62        10.56583
420.07        10.54735
420.51        10.46624
420.96        10.35765
421.41        10.25863
421.85        10.18384
422.30        10.12872
422.74        10.09535
423.19        10.11066
423.64        10.16875
424.08        10.26821
424.53        10.37562
424.98        10.44906
425.42        10.47451
425.87        10.46478
426.31        10.42064
426.76        10.35576
427.21        10.27136
427.65        10.15754
428.10        10.05974
428.54        10.03646
428.99        10.09848
429.44         10.2717
429.88        10.45782
430.33        10.43005
430.77         10.2161
431.22        10.04399
431.66         9.97243
432.11        9.978876
432.56        10.06318
433.00        10.25949
433.45        10.44323
433.89        10.42782
434.34        10.26623
434.78        10.07302
435.23        9.863788
435.67        10.32396
436.12        10.01554
436.57        10.00518
437.01        9.887022
437.46        9.818994
437.90         9.80361
438.35        9.767447
438.79        9.716353
439.24        9.704113
439.68        9.731378
440.13        9.698151
440.57         9.63049
441.02        9.729088
441.46        9.890076
441.91        9.826047
442.35        9.334922
442.80        9.109294
443.24        9.055814
443.69        8.968621
444.13        8.836228
444.58        8.746848
445.02        8.703764
445.47        8.709954
445.91        8.743846
446.36        8.749557
446.80        8.712096
447.24        8.653574
447.69         8.59137
448.13         8.53069
448.58        8.482412
449.02        8.444341
449.47        8.406599
449.91        8.350123
450.36        8.278353
450.80        8.197148
451.25         8.13852
451.69        8.138888
452.13        8.205267
452.58        8.315257
453.02        8.434943
453.47        8.506804
453.91        8.518877
454.36        8.485145
454.80        8.424963
455.24        8.375331
455.69         8.35277
456.13        8.336135
456.58        8.329761
457.02        8.334743
457.46        8.349736
457.91        8.359172
458.35        8.360188
458.79        8.361244
459.24        8.361139
459.68        8.351636
460.13        8.371754
460.57        8.396413
461.01        8.420077
461.46        8.664111
461.90        8.765255
462.34        8.675272
462.79        8.678071
463.23        8.495601
463.68        8.317213
464.12        8.221889
464.56        8.301764
465.01        8.463161
465.45        8.637755
465.89        8.733707
466.34        8.735306
466.78        8.647284
467.22        8.523151
467.67        8.510217
468.11        8.602157
468.55        8.612482
468.99        8.549766
469.44         8.56862
469.88        8.670569
470.32        8.769064
470.77        8.826373
471.21        8.830236
471.65        8.773193
472.10        8.663896
472.54        8.544637
472.98        8.509898
473.42        8.576545
473.87        8.689661
474.31        8.810308
474.75        8.927703
475.20         9.00766
475.64        8.971373
476.08        8.867245
476.52        8.848547
476.97        8.930294
477.41        9.047166
477.85        9.156729
478.29        9.218198
478.74        9.219213
479.18        9.156941
479.62        9.086482
480.06        9.095901
480.50        9.187235
480.95        9.288338
481.39        9.358695
481.83        9.381792
482.27        9.350725
482.72        9.275721
483.16        9.192963
483.60        9.168476
484.04        9.215334
484.48        9.350173
484.93        9.582902
485.37         9.74755
485.81        9.847717
486.25        10.26541
486.69        10.28279
487.14          10.035
487.58        10.14118
488.02        10.80182
488.46        10.48873
488.90        10.45282
489.34          10.256
489.79        10.39161
490.23        10.78541
490.67        10.99232
491.11        10.96644
491.55        10.84658
491.99        10.69045
492.43        10.59445
492.88         10.5939
493.32        10.60504
493.76        10.64242
494.20        10.77353
494.64        10.99544
495.08        11.27703
495.52        11.56663
495.96        11.79554
496.41        11.94411
496.85        12.00699
497.29        12.02078
497.73        12.10703
498.17        12.26694
498.61        12.36149
499.05        12.39814
499.49        12.51431
499.93        12.71575
500.37        12.89575
500.82        13.04438
501.26        13.25553
501.70        13.49148
502.14        13.57178
502.58        13.52292
503.02        13.54599
503.46         13.6565
503.90        13.74895
504.34        13.80115
504.78        13.82339
505.22        13.81313
505.66        13.77879
506.10        13.74078
506.54        13.72727
506.98        13.75079
507.42        13.80759
507.86        13.89703
508.30        14.01642
508.74        14.15548
509.18        14.30325
509.62        14.44807
510.06        14.57227
510.50        14.66997
510.94        14.75058
511.38        14.79482
511.82        14.77434
512.26        14.69375
512.70        14.56299
513.14        14.44994
513.58        14.45875
514.02          14.598
514.46        14.83405
514.90        15.07798
515.34        15.13336
515.78        14.98075
516.22        14.76693
516.66        14.59255
517.10        14.25568
517.54        13.79042
517.98        14.40098
518.42          14.269
518.86        14.54858
519.30        14.67439
519.74        14.82677
520.18        14.95882
520.62        14.97108
521.06        14.87399
521.50         14.6783
521.93        14.44819
522.37        14.30072
522.81         14.2649
523.25         14.3108
523.69         14.3954
524.13        14.44856
524.57        14.44643
525.01         14.4078
525.45        14.34898
525.89        14.29421
526.32        14.25143
526.76        14.21377
527.20        14.16572
527.64         14.0897
528.08        13.98369
528.52        13.85292
528.96        13.73024
529.40        13.66236
529.83        13.65555
530.27        13.70004
530.71        13.74004
531.15        13.68757
531.59        13.53078
532.03        13.30046
532.46        13.07139
532.90        12.97495
533.34        13.02865
533.78          13.185
534.22        13.36637
534.66        13.45327
535.09        13.41306
535.53        13.29098
535.97        13.12935
536.41        12.99266
536.85         12.9073
537.28        12.86074
537.72        12.85662
538.16        12.86095
538.60        12.93028
539.04        13.00944
539.47        13.09724
539.91        13.19376
540.35        13.30057
540.79        13.30207
541.22        13.37322
541.66        13.42545
542.10        13.52514
542.54        13.45343
542.97        13.57409
543.41        13.64963
543.85        13.77897
544.29        13.92543
544.72        14.06332
545.16        14.19234
545.60        14.30489
546.04        14.35844
546.47        14.40445
546.91        14.61766
547.35        14.96229
547.79        15.23519
548.22        15.39918
548.66        15.50273
549.10        15.57347
549.53        15.72379
549.97        15.96121
550.41        16.00186
550.84        16.14275
551.28        16.22771
551.72        16.37082
552.15        16.55729
552.59        16.78731
553.03        17.05337
553.46        17.30585
553.90        17.48435
554.34        17.57761
554.77        17.60484
555.21         17.6106
555.65        17.65638
556.08        17.75598
556.52        17.88901
556.96         18.0341
557.39        18.18216
557.83        18.31696
558.27         18.4003
558.70        18.44028
559.14        18.48399
559.57        18.53209
560.01        18.58217
560.45        18.62623
560.88        18.62929
561.32        18.63199
561.75        18.68402
562.19        18.84725
562.63        18.94831
563.06        18.99863
563.50        19.05483
563.93        19.12021
564.37        19.23457
564.80        19.31029
565.24        19.42031
565.68        19.52173
566.11        19.61527
566.55        19.71411
566.98        19.78357
567.42        19.82189
567.85        20.07634
568.29        20.03008
568.72        20.28885
569.16        20.64385
569.60        20.90505
570.03         21.0491
570.47        21.20424
570.90        21.26117
571.34        21.58579
571.77        21.51592
572.21        21.67167
572.64        21.89967
573.08        22.08582
573.51        22.59114
573.95        22.88404
574.38        22.98485
574.82        23.04157
575.25        23.06113
575.69        22.94053
576.12        22.93467
576.56        22.93845
576.99        23.01967
577.42        23.16367
577.86        23.06649
578.29        23.06888
578.73        23.41317
579.16        23.02702
579.60        22.93225
580.03        22.80749
580.47        22.92908
580.90        22.66947
581.33        22.45807
581.77        22.63947
582.20        22.76196
582.64        22.31384
583.07        22.00997
583.51        22.07005
583.94        21.73983
584.37        21.67209
584.81        21.29698
585.24        21.16278
585.68        21.17038
586.11        21.08249
586.54        21.04806
586.98        20.97332
587.41        20.91933
587.85        20.84775
588.28        20.74768
588.71        20.61072
589.15        20.50787
589.58        20.21055
590.01        20.29811
590.45        20.73757
590.88        20.50204
591.31        20.41299
591.75        20.16938
592.18         20.2563
592.61        20.19039
593.05         20.5484
593.48        20.47482
593.91        20.91148
594.35        20.65597
594.78        20.93138
595.21        21.11305
595.65         21.3755
596.08        21.24026
596.51        21.32486
596.94        21.41757
597.38        21.59494
597.81        21.83116
598.24        22.13336
598.68        22.61258
599.11        22.84143
599.54        23.52888
599.97        23.53215
600.41        23.72771
600.84        24.60443
601.27        24.80008
601.70        25.21462
602.14        25.42769
602.57        25.95737
603.00        26.75128
603.43        27.33363
603.87        27.68801
604.30        28.12295
604.73        28.67916
605.16        29.03686
605.60        29.57444
606.03        30.10031
606.46        30.63309
606.89        31.27377
607.32        31.94956
607.76        32.16721
608.19        32.72079
608.62         33.1387
609.05        33.27184
609.48        33.71419
609.92        34.39366
610.35        34.34791
610.78         35.2256
611.21         35.8362
611.64        35.97206
612.07        36.18223
612.50        36.71603
612.94        36.84131
613.37        37.42769
613.80        37.82911
614.23        38.23562
614.66        38.81168
615.09        39.14886
615.52        39.54573
615.96        39.83352
616.39        40.15501
616.82        40.58752
617.25        40.42646
617.68        40.93161
618.11        41.38196
618.54        42.01521
618.97        42.09767
619.40         41.6725
619.84        42.00711
620.27        41.80272
620.70         42.2966
621.13        42.93857
621.56        43.20211
621.99        43.17117
622.42        43.29834
622.85        43.63705
623.28        43.77626
623.71        43.72279
624.14        43.75278
624.57        43.80564
625.00         43.4576
625.43        43.70053
625.86        42.97243
626.29        42.99854
626.72        42.72795
627.15        42.60777
627.58        42.49032
628.01        42.30395
628.44        42.30592
628.87        41.84938
629.30        41.44516
629.73        41.08487
630.16        40.51329
630.59        40.20427
631.02         39.7842
631.45        39.39203
631.88        38.95274
632.31        38.46466
632.74        37.93691
633.17        37.37366
633.60        36.79156
634.03        36.19914
634.46        35.59819
634.89        34.99335
635.32        34.39042
635.75        33.79816
636.18        33.22718
636.61        32.68314
637.04        32.16758
637.47        31.67695
637.89        31.20727
638.32        30.75794
638.75        30.34657
639.18        29.97772
639.61        29.65353
640.04        29.34605
640.47        29.00737
640.90        28.63205
641.33        28.23569
641.76        27.87224
642.18        27.63304
642.61        27.53111
643.04        27.53777
643.47          27.594
643.90        27.60068
644.33        27.53499
644.76        27.43593
645.18        27.34178
645.61         27.3197
646.04        27.39175
646.47         27.5313
646.90        27.74975
647.33        28.06635
647.75        28.47435
648.18        28.96638
648.61         29.4776
649.04        29.90982
649.47        30.25237
649.89        30.50565
650.32        30.76451
650.75        31.26999
651.18        32.03362
651.61        32.78556
652.03        33.50288
652.46         34.4529
652.89        35.54241
653.32        36.17762
653.74        36.48797
654.17        37.19891
654.60         38.1702
655.03        39.43442
655.46        39.32103
655.88         41.0963
656.31         42.3049
656.74         48.2657
657.16        46.39046
657.59        43.27976
658.02        43.90478
658.45        44.74027
658.87        46.22501
659.30         46.6439
659.73        47.59429
660.15        48.23973
660.58        48.46761
661.01         48.5823
661.44        48.61012
661.86         49.0381
662.29        49.84247
662.72        50.83249
663.14         51.7757
663.57        52.01934
664.00        51.73587
664.42        51.87864
664.85        52.53442
665.27        53.11608
665.70        53.51817
666.13        53.87865
666.55        54.17879
666.98        54.38784
667.41        54.54876
667.83        54.71936
668.26         54.9045
668.69        55.11365
669.11         55.3512
669.54        55.54442
669.96        55.68082
670.39        56.05889
670.82        56.23471
671.24        56.41365
671.67         56.5138
672.09        56.73015
672.52        57.04616
672.94        57.35656
673.37        57.60025
673.80        57.61558
674.22         57.4846
674.65        57.50988
675.07        57.72892
675.50        57.97224
675.92        58.19123
676.35        58.30684
676.77        58.29424
677.20        58.36975
677.62        58.24067
678.05        58.28089
678.47        58.40648
678.90         58.6091
679.32        58.83969
679.75        59.02278
680.17        59.13351
680.60        59.20541
681.02        59.24077
681.45        59.29725
681.87        59.40958
682.30        59.60254
682.72        59.76211
683.15        60.03886
683.57        59.51978
684.00        59.58438
684.42        60.03493
684.85        60.34204
685.27        60.31684
685.70         60.4554
686.12        60.68744
686.54        60.84902
686.97        60.92936
687.39        60.94344
687.82        60.91492
688.24        61.00109
688.66         61.1648
689.09        61.16813
689.51        61.06422
689.94        61.06758
690.36        61.20342
690.78         61.3984
691.21        61.62932
691.63        61.55534
692.06        62.00847
692.48        61.82659
692.90        61.86577
693.33         62.2188
693.75        62.01087
694.17        62.11049
694.60        62.16995
695.02        62.07189
695.44        61.84542
695.87        61.82981
696.29        61.97981
696.71         61.8932
697.14        61.78544
697.56        61.79918
697.98        62.72801
698.41        63.57706
698.83        63.08792
699.25        62.95689
699.68        62.86893
700.10        62.83112
700.52        62.87835
700.94        63.03596
701.37        63.25003
701.79        63.45288
702.21         63.5932
702.64        63.68156
703.06         63.7352
703.48        63.81271
703.90        63.93116
704.33         63.9903
704.75        64.09379
705.17        64.03454
705.59        63.84951
706.01        63.58047
706.44        63.35487
706.86        63.31917
707.28        63.56844
707.70        63.98978
708.12        64.46181
708.55        64.72104
708.97        64.72639
709.39        64.62656
709.81        64.48576
710.23        64.35637
710.66        64.28659
711.08        64.28561
711.50        64.34563
711.92         64.4488
712.34        64.58555
712.76        64.77588
713.19        64.96435
713.61        65.08385
714.03        65.12936
714.45        65.09056
714.87        65.03876
715.29         65.0742
715.71        65.21713
716.13        65.43386
716.56        65.65488
716.98        65.83859
717.40        65.93153
717.82        65.95448
718.24        65.93036
718.66        65.89832
719.08        65.87728
719.50        65.84968
719.92        65.81113
720.34        65.78025
720.76        65.76522
721.19        65.66595
721.61        65.68985
722.03        65.68866
722.45        65.73783
722.87        65.81567
723.29        65.91731
723.71        66.02236
724.13        66.12322
724.55        66.22359
724.97        66.32874
725.39        66.45026
725.81        66.58585
726.23        66.72296
726.65        66.85085
727.07        66.95691
727.49        67.03655
727.91        67.09426
728.33        67.12744
728.75        67.13124
729.17        67.11148
729.59        67.07783
730.01        67.04766
730.43        67.04642
730.85        67.08115
731.27        67.14267
731.69        67.22782
732.10        67.34016
732.52         67.4653
732.94        67.59528
733.36        67.68213
733.78        67.73978
734.20        67.79031
734.62         67.6652
735.04        67.35445
735.46        67.76645
735.88        67.57597
736.30        67.51676
736.72        67.76322
737.13        67.87943
737.55        67.96236
737.97        68.18028
738.39        68.46455
738.81        68.31676
739.23        67.87247
739.65        67.94971
740.06        68.44124
740.48        68.66247
740.90        68.50535
741.32        68.16432
741.74        67.78338
742.16        67.64648
742.57        67.82319
742.99        68.10294
743.41        68.39565
743.83        68.61731
744.25        68.71868
744.67        68.71763
745.08        68.64002
745.50        68.50235
745.92         68.3412
746.34        68.14241
746.75        67.96259
747.17        67.89645
747.59        67.96902
748.01        68.17492
748.42        68.43588
748.84        68.63368
749.26        68.74526
749.68        68.62729
750.09        68.43818
750.51        68.70161
750.93         69.1967
751.35        69.29114
751.76        69.12967
752.18        68.23793
752.60        68.40121
753.01        69.15432
753.43        68.42409
753.85        68.53716
754.27        68.73698
754.68        69.00247
755.10        69.22114
755.52        69.33085
755.93        69.32801
756.35         69.2223
756.77        69.10741
757.18        69.10269
757.60        69.28153
758.02        69.55601
758.43        69.77713
758.85        69.84304
759.26        70.26173
759.68        69.11177
760.10        69.27105
760.51        68.97076
760.93        69.04054
761.34        68.78094
761.76        68.88585
762.18        68.70666
762.59         68.5947
763.01        68.67037
763.42        69.47463
763.84        69.96548
764.26        70.18945
764.67        70.09042
765.09        69.87472
765.50        70.04568
765.92        70.53956
766.33        70.73434
766.75        70.49432
767.16        70.12167
767.58        69.68387
768.00        69.24773
768.41        68.99945
768.83        69.14086
769.24        69.58344
769.66        70.10162
770.07        70.52531
770.49        70.49942
770.90        70.13158
771.32         70.5219
771.73        70.87894
772.15        71.01248
772.56        70.70345
772.97         70.4569
773.39        70.30788
773.80        70.13184
774.22        69.94371
774.63        69.79961
775.05        69.74645
775.46        69.86489
775.88        70.13368
776.29        70.56062
776.70         70.9669
777.12        71.08175
777.53        70.86716
777.95        70.38013
778.36        69.83579
778.77        69.61075
779.19         69.7919
779.60        70.30363
780.02        70.89196
780.43        71.29748
780.84        71.42957
781.26        71.05933
781.67        70.46986
782.09        70.87867
782.50        71.98248
782.91        71.89772
783.33        70.75886
783.74        70.40181
784.15        70.90096
784.57         71.2714
784.98        71.35611
785.39        71.23833
785.81        70.94456
786.22        70.70887
786.63        70.60439
787.04        70.52837
787.46        70.50996
787.87        70.65683
788.28        70.92306
788.70        71.13687
789.11        71.25816
789.52        71.34569
789.93        71.41864
790.35        71.49374
790.76        71.56838
791.17        71.60695
791.58         71.6134
792.00        71.49326
792.41        71.25631
792.82        71.24726
793.23        71.36435
793.65        70.81973
794.06         69.9908
794.47        70.29942
794.88        71.42921
795.29        72.61755
795.71        72.08346
796.12        71.79706
796.53         72.2236
796.94        71.78725
797.35        70.94875
797.76        70.64393
798.18        70.93407
798.59        71.20934
799.00        71.37978
799.41        71.68699
799.82         72.0463
800.23        72.28249
800.64        72.34276
801.06        72.15417
801.47        71.86695
801.88        71.73977
802.29        71.82417
802.70        72.02955
803.11        72.23177
803.52        72.20941
803.93        71.93139
804.34        71.54796
804.75         71.1889
805.17        70.93187
805.58        71.09837
805.99        71.27787
806.40         71.5185
806.81        72.22122
807.22        73.04552
807.63        72.92056
808.04        72.01976
808.45        71.36117
808.86        71.26895
809.27        71.90834
809.68        73.00664
810.09        73.53586
810.50        73.30698
810.91        72.93063
811.32        72.60025
811.73        72.27041
812.14        72.00143
812.55        71.98211
812.96        72.09922
813.37        71.72452
813.78        71.03025
814.19        71.05228
814.60        71.67059
815.01        71.88545
815.42        71.64289
815.83         71.4672
816.24        71.45901
816.65         71.5359
817.05        71.72396
817.46        71.99612
817.87        72.25056
818.28        72.28634
818.69        72.08669
819.10        71.71949
819.51        71.33139
819.92        71.26528
820.33        71.61872
820.74        72.05568
821.14        72.50895
821.55        73.36566
821.96        74.31809
822.37        74.21168
822.78        73.23129
823.19        72.76939
823.60        72.96795
824.00        73.08185
824.41        72.97847
824.82        72.89812
825.23         72.8221
825.64        72.71939
826.04        72.62957
826.45        72.55169
826.86        72.50469
827.27        72.49627
827.68        72.51472
828.08        72.56032
828.49          72.577
828.90         72.5861
829.31        72.61642
829.72        72.71722
830.12        72.90297
830.53        73.11113
830.94         73.2714
831.35        73.25201
831.75        73.05708
832.16        72.69255
832.57        72.28454
832.97        72.02804
833.38        71.96665
833.79        72.04796
834.20        72.20478
834.60        72.31844
835.01        72.36425
835.42        72.38634
835.82        72.38148
836.23        72.28593
836.64        72.12717
837.04        71.91583
837.45        71.74055
837.86        71.79829
838.26        72.13354
838.67        72.65247
839.08        73.21172
839.48        73.52106
839.89        73.48786
840.29        73.21744
840.70        72.87483
841.11        72.63549
841.51        72.57475
841.92        72.58135
842.33         72.6966
842.73        73.00399
843.14        73.40305
843.54        73.93603
843.95        74.37064
844.35        74.39639
844.76        73.97436
845.17        73.23577
845.57        72.44382
845.98        72.02654
846.38        72.08588
846.79        72.48551
847.19        73.13132
847.60        73.70793
848.00        74.13821
848.41        74.44012
848.81        74.64588
849.22        74.72371
849.62         74.7241
850.03        74.57787
850.43        74.38257
850.84        74.23191
851.24        74.21536
851.65        74.27646
852.05        74.38934
852.46        74.38188
852.86        74.23013
853.27        74.00422
853.67        73.74812
854.07        73.65221
854.48        73.71984
854.88         73.9323
855.29        74.12763
855.69        74.17773
856.10        73.95802
856.50        73.59135
856.90        73.19645
857.31        73.02121
857.71        73.20638
858.12        73.60725
858.52        74.08552
858.92          74.318
859.33        74.21312
859.73        73.89846
860.13        73.50663
860.54        73.30307
860.94        73.43114
861.34        73.75105
861.75        74.09893
862.15        74.31231
862.55         74.2934
862.96        74.14938
863.36        73.90714
863.76        73.58067
864.17        73.20663
864.57        72.78595
864.97        72.48116
865.38        72.53227
865.78        73.01221
866.18        73.79827
866.58        74.56799
866.99        74.73955
867.39         74.2081
867.79         73.1272
868.19         71.7892
868.60        70.65277
869.00        69.84348
869.40        69.27883
869.80        69.01108
870.21        69.09308
870.61         69.5409
871.01        70.31264
871.41        71.10808
871.81        71.43356
872.22        71.21721
872.62        70.58787
873.02        69.82668
873.42        69.62894
873.82        69.93282
874.22        70.04988
874.63          70.061
875.03        70.20809
875.43         70.4499
875.83        71.71571
876.23        71.21123
876.63        70.38203
877.03         68.7622
877.44        66.49213
877.84        130.8499
878.24         66.9656
878.64        68.55117
879.04         72.5265
879.44        69.26484
879.84        67.43738
880.24        71.78693
880.64        71.99227
881.04        69.07729
881.44        67.19006
881.84         66.9845
882.24        67.79806
882.65        69.05519
883.05        69.59454
883.45        69.03908
883.85        68.08003
884.25        67.20725
884.65        66.85187
885.05        67.15289
885.45        67.94114
885.85        68.85162
886.25        69.30526
886.65        69.14248
887.05        68.54811
887.45        67.88187
887.85        67.67998
888.25        68.06421
888.65        68.86461
889.04        69.77871
889.44        70.21438
889.84        70.03822
890.24        69.43221
890.64        68.69777
891.04        68.27831
891.44        68.26294
891.84        68.48244
892.24        68.73695
892.64         68.6916
893.04        68.28398
893.44        67.71894
893.83        67.08335
894.23        66.51184
894.63        66.04586
895.03        65.60689
895.43        65.36766
895.83        65.62929
896.23        66.39516
896.63        67.57022
897.02        68.71747
897.42        69.03543
897.82        68.37699
898.22        67.01748
898.62        65.48969
899.01        64.61207
899.41        64.61789
899.81        65.22533
900.21        66.16933
900.61        67.04684
901.00        67.68919
901.40        68.18118
901.80        68.51112
902.20        68.63485
902.59        68.56823
902.99        68.30499
903.39        67.87152
903.79        67.34221
904.18        66.78295
904.58        66.26087
904.98        65.94559
905.38        66.08019
905.77        66.66518
906.17        67.60436
906.57        68.60091
906.96        69.21223
907.36        69.27472
907.76        68.89007
908.15        68.29731
908.55        67.84225
908.95        67.65369
909.34        67.67542
909.74        67.70406
910.14        67.38081
910.53        66.64691
910.93        65.70763
911.33        64.94614
911.72         64.9603
912.12        65.79703
912.52        67.16112
912.91        68.59586
913.31        69.31718
913.70        69.18533
914.10        68.42593
914.49        67.24751
914.89         66.1893
915.29        65.51878
915.68        65.12767
916.08        65.09718
916.47        65.51727
916.87        66.29178
917.26        67.35698
917.66        68.43449
918.05        69.09203
918.45        69.17684
918.84        68.84783
919.24        68.14042
919.64        67.15622
920.03        66.03277
920.42         64.8014
920.82        63.86556
921.21         63.7887
921.61        64.58513
922.00         66.1255
922.40        67.78378
922.79        68.74905
923.19        68.78931
923.58        67.89852
923.98        66.39423
924.37        65.63974
924.77        66.16608
925.16        64.05698
925.55        65.75474
925.95        65.80481
926.34        66.09641
926.74         66.4778
927.13        66.98536
927.52        67.45171
927.92        67.79596
928.31        68.11497
928.70        68.29974
929.10        68.22358
929.49        67.88889
929.89         67.3355
930.28        66.83919
930.67        66.84065
931.07        67.38165
931.46        68.36421
931.85        69.38868
932.24        69.86328
932.64        69.64129
933.03        68.80495
933.42        67.65092
933.82        66.82622
934.21        66.53533
934.60        66.64143
934.99        66.68465
935.39        66.30585
935.78        65.47153
936.17        63.72328
936.56        61.27394
936.96           62.57
937.35        62.01747
937.74        63.90382
938.13        65.77486
938.53        67.03791
938.92        67.62585
939.31        67.76656
939.70        67.64153
940.09        67.43398
940.49        67.27557
940.88        67.13452
941.27        67.06905
941.66        67.20186
942.05        67.53066
942.44         68.0072
942.84        68.58691
943.23        69.18763
943.62        69.72818
944.01        70.24958
944.40        70.54746
944.79         70.3068
945.18        69.49797
945.57         68.1749
945.97        66.84489
946.36        66.38084
946.75        67.03765
947.14        68.47897
947.53        70.01704
947.92        70.70148
948.31         70.3596
948.70        69.30595
949.09        67.92296
949.48        66.89088
949.87        66.45725
950.26        66.39324
950.65        66.58743
951.04        66.85973
951.43        67.10536
951.82        67.42287
952.21        67.66379
952.60        67.55895
952.99        67.08849
953.38        66.31207
953.77        65.50749
954.16        65.14143
954.55        65.31178
954.94        65.88889
955.33        66.60641
955.72        67.01055
956.11        66.97217
956.50        66.62201
956.89        66.13824
957.28        65.86987
957.66        65.95311
958.05        66.18208
958.44        66.46413
958.83         66.6805
959.22         66.7791
959.61        66.81912
960.00        66.70599
960.39        66.26894
960.78        65.52154
961.16        64.52357
961.55        63.57851
961.94        63.02751
962.33        62.95862
962.72        63.29999
963.11        63.85057
963.49        64.26781
963.88        64.35205
964.27        64.19659
964.66        63.98027
965.04        64.01369
965.43        64.35272
965.82        64.90708
966.21         65.4059
966.60        65.42553
966.98        64.90826
967.37        63.98014
967.76         63.0557
968.15        62.77109
968.53        63.26887
968.92        64.26655
969.31        65.35306
969.69        65.83517
970.08        65.46855
970.47        64.51701
970.86        63.24567
971.24        62.05465
971.63        61.17617
972.02        60.51982
972.40        60.10777
972.79        60.00614
973.17        60.21955
973.56        60.66436
973.95        61.31121
974.33        62.06414
974.72        62.70933
975.11        63.20471
975.49        63.36054
975.88        62.90715
976.26        61.86095
976.65        60.40813
977.04        58.77459
977.42        57.36811
977.81        56.38881
978.19        55.71722
978.58        55.54343
978.96        56.14452
979.35        57.44609
979.74         59.4892
980.12         61.6114
980.51        62.37571
980.89        61.61165
981.28        59.67675
981.66        57.70837
982.05        57.31448
982.43        58.72639
982.82        61.43232
983.20        64.54778
983.59        66.15032
983.97        65.73361
984.35        63.79137
984.74        61.29771
985.12        59.68527
985.51        59.38671
985.89        59.95646
986.28        60.91871
986.66        61.38152
987.04        60.95305
987.43        60.10989
987.81        59.00284
988.20        57.67979
988.58        56.07817
988.96        53.93027
989.35        51.61102
989.73         50.4024
990.12        50.96767
990.50        53.03184
990.88         55.3602
991.27        56.51678
991.65        56.50672
992.03        55.64973
992.42        54.76468
992.80        55.35243
993.18        57.73982
993.56        61.10582
993.95        64.36146
994.33        66.47612
994.71        67.06538
995.10        66.51923
995.48         65.2618
995.86        63.80828
996.24        62.38485
996.63        60.90729
997.01        59.29609
997.39        57.71192
997.77        56.42534
998.15        55.55741
998.54        55.31773
998.92        55.87909
999.30        57.23629
999.68        59.58394
1000.06        62.19082
1000.45        62.56133
1000.83        59.90512
1001.21        55.51523
1001.59        51.55965
1001.97        49.71515
1002.35        49.82393
1002.73        51.34964
1003.12         53.6062
1003.50        54.94767
1003.88        54.51452
1004.26        52.96117
1004.64         50.8867
1005.02        49.06549
1005.40        47.78962
1005.78        46.70387
1006.16        46.31254
1006.54        47.58276
1006.92        50.20567
1007.30        53.39299
1007.69        56.01706
1008.07        57.15065
1008.45        56.58577
1008.83         54.3441
1009.21        49.93679
1009.59        43.87704
1009.97        37.85479
1010.35        32.82444
1010.73        30.57467
1011.11        31.93529
1011.49        36.08257
1011.86         42.6126
1012.24        48.49901
1012.62        50.89217
1013.00        49.61979
1013.38         45.6215
1013.76        40.65719
1014.14        37.93231
1014.52        38.37919
1014.90          41.049
1015.28        44.36082
1015.66        45.62257
1016.04        43.93258
1016.41        39.99536
1016.79        34.90261
1017.17        31.46608
1017.55        31.05403
1017.93        32.43929
1018.31        34.58678
1018.69         36.6911
1019.06        38.50935
1019.44         40.2059
1019.82        41.31444
1020.20         40.4973
1020.58        37.38184
1020.95        32.48435
1021.33         26.5968
1021.71        19.69472
1022.09         10.6622
1022.46       -4.405391
1022.84       -24.91435
1023.22       -29.60453
1023.60       -8.522985
1023.97        14.69802
1024.35        27.71346
1024.73        32.27868
