SpectraSmart Spectrum 2.9.0.0
--------- Device Information -----------
Spectrum Name :  反射率_0
Saving Time :  2024/04/20 00:22:47
Spectro-Module Model Name : SE2030-DUVN
Spectro-Module Serial Number : OS361AC55029948
Wavelength Start : 200
Wavelength End : 1025
Wavelength Unit : Wavelength(nm)
Spectrum Unit : Reflectance(%)
-----------Spectrum Setting ------------
Integration Time : 30ms
Average : 10
Boxcar : 0
Background removal :  enabled
linearity correction :  enabled
SC :  disabled
Intensity correction :  disabled
DWT denoise :  enabled
savitzky-golay :  disabled
FFT :  disabled
Running average :  disabled
Kalman :  disabled
High pass :  disabled
---------------BEGIN--------------------
Wavelength(nm)             Reflectance(%)
200.29               0
200.75        54.34168
201.21        53.11831
201.67        53.62001
202.13        56.93504
202.58        63.47106
203.04        73.65045
203.50        84.37099
203.96        87.45295
204.42        82.11486
204.88        73.24818
205.34         65.1961
205.80        59.91813
206.26        56.53597
206.72         53.7037
207.18        51.07127
207.64        49.22956
208.10        49.26541
208.55        51.67421
209.01         54.4269
209.47        56.38799
209.93        57.41224
210.39        57.66716
210.85        57.28543
211.31        56.44224
211.77         55.1252
212.23         53.1761
212.69        50.67554
213.14        49.04795
213.60        48.86514
214.06        49.88766
214.52        51.37192
214.98        53.01052
215.44        54.80832
215.90        56.73534
216.36        58.72338
216.81        60.23681
217.27        60.73156
217.73          60.433
218.19        58.84544
218.65        55.13628
219.11        49.19889
219.57        40.99426
220.02        31.97944
220.48        26.80945
220.94        27.06206
221.40        32.18551
221.86        39.23563
222.32         43.4621
222.77        43.62169
223.23        41.10551
223.69        38.19698
224.15        38.16801
224.61        40.92083
225.06        44.63699
225.52        47.55992
225.98        48.41619
226.44        47.26042
226.90        44.80715
227.36        41.81646
227.81        39.59103
228.27        38.92011
228.73        39.22258
229.19        40.05879
229.65        40.90223
230.10        41.56192
230.56        42.17548
231.02        42.72692
231.48        43.19101
231.93        43.53546
232.39        43.73046
232.85        43.74084
233.31        43.56388
233.77        43.20688
234.22        42.68298
234.68        42.05533
235.14        41.32553
235.60        40.58382
236.05        39.93901
236.51        39.49096
236.97        39.33123
237.43        39.53875
237.88        40.25872
238.34        41.58195
238.80        43.68656
239.26        46.24892
239.71        48.77303
240.17        50.68717
240.63        51.94373
241.08         52.6732
241.54        52.91107
242.00        52.22687
242.46        49.63768
242.91        44.47543
243.37        35.55424
243.83        23.72228
244.28        17.21308
244.74        23.99973
245.20        42.18957
245.66         59.9918
246.11        67.79333
246.57        65.20651
247.03         53.2049
247.48        34.53927
247.94        26.92402
248.40        34.50731
248.85        45.43841
249.31        53.88614
249.77        58.73059
250.22        61.03112
250.68        62.23619
251.14        62.49723
251.59        61.44813
252.05        59.29118
252.51        56.15131
252.96        52.33509
253.42        49.01903
253.88        46.92126
254.33         45.9784
254.79        47.21186
255.25        51.23665
255.70         57.2153
256.16        63.98226
256.62        69.37973
257.07        71.00966
257.53        69.16444
257.99         64.9721
258.44        59.88658
258.90        56.53768
259.35        54.86168
259.81        54.39885
260.27        54.00024
260.72        52.68872
261.18        50.69346
261.63        48.05209
262.09        45.74935
262.55        44.65133
263.00        44.71377
263.46         45.5863
263.91        46.23023
264.37        45.66002
264.83         43.8883
265.28        41.32571
265.74        39.05453
266.19        38.17478
266.65        38.80136
267.11        40.31457
267.56        41.86696
268.02        42.24042
268.47         41.2303
268.93        39.27077
269.38          36.894
269.84        35.19749
270.30         34.4865
270.75        34.44747
271.21        34.69308
271.66        34.64282
272.12        34.12226
272.57        33.33287
273.03        32.50048
273.48         31.8719
273.94        31.55103
274.39        31.38858
274.85        31.24666
275.31        30.92108
275.76         30.3544
276.22        29.64298
276.67        28.90759
277.13        28.41616
277.58        28.16157
278.04        28.09181
278.49        27.98353
278.95        27.57837
279.40        26.82522
279.86        25.90368
280.31        24.98342
280.77        24.42925
281.22        24.23407
281.68        24.29005
282.13        24.41244
282.59        24.36005
283.04        24.07332
283.50        23.67526
283.95        23.21928
284.41        22.80972
284.86        22.46905
285.32        22.17754
285.77        21.97507
286.22        21.98662
286.68        22.19749
287.13        22.54294
287.59        22.87191
288.04        22.94664
288.50        22.74568
288.95         22.3128
289.41        21.81389
289.86        21.43855
290.32        21.28539
290.77        21.28836
291.22          21.383
291.68        21.43464
292.13        21.42378
292.59        21.41843
293.04        21.50025
293.50        21.80082
293.95        22.32896
294.40        23.01062
294.86        23.75383
295.31         24.4342
295.77        25.00734
296.22        25.50381
296.68        25.93325
297.13        26.29101
297.58        26.60505
298.04        26.88982
298.49        27.19431
298.95        27.63409
299.40        28.21428
299.85        28.89763
300.31        29.62711
300.76        30.30788
301.21        30.90247
301.67        31.45473
302.12        31.92118
302.58        32.29539
303.03        32.56711
303.48        32.75188
303.94         32.9546
304.39        33.30263
304.84        33.81728
305.30        34.44511
305.75        35.03375
306.20        35.36734
306.66        35.42567
307.11        35.27352
307.57        35.05458
308.02        34.91476
308.47        34.92231
308.93        35.02197
309.38        35.17626
309.83        35.37542
310.29        35.58758
310.74        35.81623
311.19        35.98282
311.65        35.95806
312.10        35.72408
312.55        35.32229
313.00        34.87167
313.46         34.5589
313.91        34.41578
314.36        34.40829
314.82          34.453
315.27        34.43386
315.72        34.30395
316.18        34.10755
316.63        33.88523
317.08        33.70451
317.53        33.57841
317.99        33.47261
318.44        33.35269
318.89        33.15846
319.35        32.88052
319.80         32.5468
320.25        32.19992
320.70        31.90613
321.16        31.67909
321.61        31.50124
322.06        31.34298
322.51        31.15818
322.97        30.92502
323.42        30.66491
323.87        30.37878
324.32        30.07299
324.78        29.75305
325.23        29.42971
325.68        29.11274
326.13        28.82525
326.59        28.57728
327.04        28.38526
327.49        28.25048
327.94        28.17471
328.39        28.14921
328.85        28.14837
329.30        28.17987
329.75        28.21464
330.20        28.23196
330.66        28.20775
331.11         28.1364
331.56        27.96094
332.01        27.67514
332.46        27.29717
332.92        26.87447
333.37         26.4939
333.82        26.19581
334.27        25.98667
334.72        25.85182
335.17        25.75576
335.63        25.67715
336.08        25.62444
336.53        25.62714
336.98        25.74371
337.43        25.96746
337.88        26.27003
338.34         26.5076
338.79        26.49783
339.24        26.19222
339.69        25.64628
340.14        25.06536
340.59        24.79651
341.05        24.90909
341.50        25.30695
341.95        25.77188
342.40        25.96071
342.85        25.79455
343.30        25.39459
343.75        24.90979
344.20        24.58279
344.66        24.48254
345.11        24.49917
345.56        24.58831
346.01        24.67982
346.46        24.73114
346.91        24.78484
347.36        24.75971
347.81        24.51813
348.26        24.06676
348.72        23.47553
349.17        22.89822
349.62        22.67242
350.07        22.86703
350.52        23.36247
350.97        23.96601
351.42        24.38686
351.87        24.53713
352.32        24.49282
352.77        24.30695
353.22        24.07095
353.67        23.83025
354.13         23.5686
354.58        23.29468
355.03        23.06449
355.48        22.89732
355.93        22.80838
356.38        22.77629
356.83         22.7525
357.28        22.71688
357.73        22.66055
358.18         22.6109
358.63        22.61746
359.08        22.67805
359.53        22.77353
359.98        22.81195
360.43        22.65659
360.88        22.29815
361.33        21.78973
361.78        21.27622
362.23        20.99406
362.68        20.99035
363.13        21.17818
363.58        21.41802
364.03        21.49255
364.48         21.3409
364.93        21.03312
365.38        20.62608
365.83        20.22045
366.28        19.86908
366.73        19.54457
367.18        19.27772
367.63        19.11847
368.08        19.06208
368.53        19.09528
368.98        19.15332
369.43        19.12478
369.88        18.98659
370.33        18.77484
370.78        18.52607
371.23        18.31136
371.68        18.15983
372.13         18.0407
372.58         17.9804
373.03        18.02329
373.48        18.15493
373.93        18.35233
374.38        18.51162
374.83        18.47297
375.28        18.21066
375.72        17.76703
376.17        17.27267
376.62        16.90296
377.07         16.7188
377.52        16.67458
377.97        16.71635
378.42        16.75535
378.87        16.75608
379.32        16.73998
379.77        16.71891
380.22         16.7058
380.67        16.70287
381.11        16.70406
381.56        16.67201
382.01        16.56995
382.46        16.39507
382.91         16.1575
383.36        15.93031
383.81        15.82051
384.26        15.84346
384.71        15.97424
385.15        16.10111
385.60        16.05357
386.05        15.80449
386.50        15.40935
386.95        15.01294
387.40        14.84416
387.85        14.94279
388.29        15.22331
388.74          15.528
389.19        15.63589
389.64        15.50144
390.09        15.19195
390.54        14.82833
390.98        14.59764
391.43        14.56328
391.88        14.65261
392.33        14.76045
392.78          14.738
393.23        14.56537
393.67        14.29478
394.12        14.04164
394.57        13.91023
395.02        13.92133
395.47        14.03532
395.91        14.18234
396.36        14.22669
396.81        14.13864
397.26        13.95614
397.71        13.76287
398.15         13.6698
398.60         13.7133
399.05        13.84349
399.50        13.97484
399.95        13.98622
400.39        13.85335
400.84        13.61234
401.29        13.35277
401.74        13.23833
402.18         13.3173
402.63        13.52899
403.08        13.75905
403.53        13.82494
403.97        13.68886
404.42        13.42186
404.87        13.13241
405.32        12.99788
405.76        13.05988
406.21         13.2525
406.66        13.48895
407.11         13.6362
407.55        13.65654
408.00        13.59604
408.45        13.48843
408.90        13.35696
409.34        13.24033
409.79        13.19069
410.24        13.19085
410.68        13.15958
411.13        13.09622
411.58          13.059
412.03        13.04565
412.47        13.03071
412.92        13.01062
413.37        12.98191
413.81        12.97866
414.26        13.06764
414.71        13.24613
415.15        13.49789
415.60         13.7182
416.05        13.76031
416.49        13.59232
416.94        13.26966
417.39        12.90816
417.83        12.69618
418.28         12.6881
418.73        12.81913
419.17        13.00703
419.62        13.10875
420.07        13.08869
420.51        12.99476
420.96        12.86472
421.41        12.73848
421.85        12.63336
422.30        12.54537
422.74        12.48363
423.19         12.4884
423.64        12.55482
424.08         12.6807
424.53        12.81873
424.98        12.90439
425.42        12.91796
425.87        12.87713
426.31        12.79927
426.76        12.72422
427.21        12.65712
427.65        12.57917
428.10        12.51873
428.54        12.50318
428.99        12.53925
429.44        12.67855
429.88        12.83162
430.33        12.76829
430.77        12.53007
431.22        12.37891
431.66        12.36936
432.11         12.4452
432.56        12.59517
433.00        12.86824
433.45        13.11302
433.89        13.10038
434.34        12.90063
434.78        12.65605
435.23        12.38235
435.67        12.93734
436.12        12.51836
436.57         12.4653
437.01        12.28651
437.46         12.2025
437.90        12.22063
438.35        12.24277
438.79        12.25072
439.24        12.26957
439.68        12.29295
440.13        12.20999
440.57        12.08298
441.02        12.20935
441.46        12.47071
441.91        12.48886
442.35        11.97779
442.80        11.78676
443.24        11.79511
443.69        11.74114
444.13        11.61872
444.58        11.55437
445.02        11.55512
445.47        11.61971
445.91        11.70579
446.36        11.71733
446.80        11.63632
447.24         11.5066
447.69         11.3773
448.13        11.29645
448.58        11.28503
449.02        11.32395
449.47        11.38117
449.91        11.40043
450.36        11.37141
450.80        11.30866
451.25        11.24649
451.69         11.2236
452.13        11.25224
452.58        11.30963
453.02        11.37241
453.47        11.40242
453.91         11.3925
454.36        11.35549
454.80        11.30174
455.24        11.24986
455.69        11.21244
456.13        11.16956
456.58        11.13902
457.02        11.14055
457.46         11.1736
457.91        11.20902
458.35        11.22746
458.79        11.22286
459.24        11.19099
459.68        11.13322
460.13        11.11109
460.57        11.11065
461.01        11.12845
461.46        11.45162
461.90        11.59881
462.34        11.51024
462.79         11.5579
463.23        11.37187
463.68        11.18158
464.12        11.05843
464.56        11.12002
465.01        11.25623
465.45        11.40473
465.89         11.4854
466.34        11.48447
466.78        11.39482
467.22        11.27021
467.67        11.27669
468.11        11.39773
468.55        11.39637
468.99        11.29077
469.44        11.29589
469.88         11.4174
470.32        11.53607
470.77        11.60721
471.21        11.62129
471.65        11.56916
472.10        11.45895
472.54        11.33582
472.98        11.30223
473.42          11.376
473.87        11.49176
474.31        11.61137
474.75        11.74411
475.20        11.84957
475.64        11.81693
476.08         11.6974
476.52        11.67379
476.97        11.76121
477.41        11.87769
477.85        11.97772
478.29        12.02468
478.74        12.00718
479.18        11.91839
479.62          11.819
480.06        11.80589
480.50        11.87974
480.95        11.95474
481.39        11.99536
481.83        12.00443
482.27         11.9771
482.72        11.91705
483.16        11.85357
483.60        11.84084
484.04         11.8836
484.48        12.01182
484.93         12.2612
485.37        12.40682
485.81          12.478
486.25        13.01554
486.69        13.19794
487.14        12.75435
487.58        12.79486
488.02        13.54214
488.46        13.02919
488.90        13.04885
489.34        12.95173
489.79        13.07374
490.23        13.34348
490.67        13.52794
491.11        13.58154
491.55        13.47604
491.99        13.27501
492.43        13.18194
492.88        13.23589
493.32        13.30451
493.76        13.38845
494.20        13.54975
494.64        13.78093
495.08        14.05458
495.52        14.32694
495.96          14.543
496.41        14.68789
496.85         14.7473
497.29        14.75778
497.73        14.85229
498.17        15.02549
498.61         15.1118
499.05        15.11906
499.49        15.21251
499.93        15.39952
500.37        15.55044
500.82          15.661
501.26        15.85384
501.70        16.08629
502.14         16.1433
502.58        16.05169
503.02        16.03999
503.46        16.12494
503.90        16.18561
504.34        16.20558
504.78        16.21239
505.22        16.20512
505.66        16.18614
506.10        16.16818
506.54        16.16718
506.98        16.19134
507.42        16.24006
507.86        16.31556
508.30        16.41994
508.74        16.54607
509.18        16.68321
509.62        16.82052
510.06        16.94167
510.50         17.0411
510.94        17.12718
511.38        17.18344
511.82         17.1854
512.26        17.13621
512.70         17.0436
513.14        16.96431
513.58        16.98488
514.02        17.11179
514.46        17.31849
514.90         17.5307
515.34        17.57329
515.78         17.4393
516.22         17.2586
516.66        17.12294
517.10        16.82298
517.54        16.38674
517.98        16.98591
518.42        16.85618
518.86        17.11573
519.30        17.21829
519.74        17.33988
520.18        17.44177
520.62        17.43852
521.06        17.34305
521.50        17.16324
521.93        16.95678
522.37        16.82898
522.81        16.80433
523.25         16.8549
523.69        16.93917
524.13        16.98969
524.57        16.98415
525.01        16.94123
525.45        16.87642
525.89        16.81332
526.32        16.76054
526.76        16.71181
527.20        16.65736
527.64        16.58817
528.08        16.50259
528.52        16.40265
528.96        16.31001
529.40        16.25426
529.83        16.23841
530.27        16.25853
530.71        16.27107
531.15        16.20802
531.59        16.06292
532.03        15.86162
532.46        15.66761
532.90        15.59526
533.34        15.65752
533.78        15.81158
534.22        15.99013
534.66         16.0901
535.09        16.07984
535.53        15.99663
535.97        15.86948
536.41        15.74235
536.85        15.63739
537.28        15.55269
537.72        15.50094
538.16        15.45433
538.60        15.48912
539.04        15.53667
539.47         15.6038
539.91        15.70351
540.35        15.83786
540.79        15.86493
541.22        15.98026
541.66        16.05762
542.10        16.16941
542.54        16.05813
542.97        16.16423
543.41        16.21438
543.85        16.33101
544.29         16.4683
544.72        16.59377
545.16        16.70421
545.60        16.78931
546.04        16.79972
546.47         16.8024
546.91        17.00993
547.35        17.38205
547.79        17.68199
548.22        17.85294
548.66         17.9303
549.10        17.94407
549.53        18.03137
549.97        18.22123
550.41        18.22745
550.84        18.39731
551.28        18.53845
551.72        18.75641
552.15        18.99449
552.59        19.24111
553.03        19.49859
553.46        19.72394
553.90        19.87038
554.34         19.9313
554.77        19.92259
555.21        19.88972
555.65         19.8961
556.08        19.95786
556.52         20.0578
556.96        20.17849
557.39        20.31705
557.83         20.4563
558.27        20.54953
558.70        20.60096
559.14        20.65667
559.57        20.71384
560.01        20.77075
560.45        20.81639
560.88        20.80832
561.32        20.79208
561.75        20.82679
562.19        20.98626
562.63        21.08022
563.06        21.12542
563.50        21.19419
563.93        21.28167
564.37        21.40727
564.80        21.47029
565.24        21.56452
565.68        21.64493
566.11        21.71391
566.55         21.7869
566.98        21.82255
567.42        21.82653
567.85        22.08164
568.29        22.02345
568.72        22.32176
569.16         22.7245
569.60        22.98982
570.03        23.07913
570.47        23.13617
570.90        23.09376
571.34         23.4085
571.77        23.33187
572.21        23.71299
572.64         23.8955
573.08        24.11356
573.51        24.15632
573.95        24.63838
574.38        24.70324
574.82        24.89501
575.25         24.9656
575.69        24.80135
576.12          24.696
576.56         24.6707
576.99        24.83675
577.42        24.90201
577.86         25.0284
578.29        24.95435
578.73        25.13821
579.16        24.89427
579.60        24.75334
580.03        24.86116
580.47        24.67293
580.90        24.42574
581.33        24.36691
581.77        24.56709
582.20        24.80746
582.64         24.2075
583.07        23.91765
583.51        24.04714
583.94         23.5132
584.37        23.65109
584.81        23.25732
585.24        23.23102
585.68        23.28504
586.11        23.12118
586.54        23.00293
586.98        22.90438
587.41        22.91861
587.85        22.92741
588.28        22.87446
588.71        22.71346
589.15          22.536
589.58        22.25763
590.01        22.33787
590.45        22.93552
590.88        22.60978
591.31        22.54243
591.75         22.3053
592.18        22.43304
592.61        22.38069
593.05        22.65692
593.48        22.42383
593.91        22.97973
594.35        22.52765
594.78        22.88746
595.21        23.19327
595.65        23.47848
596.08        23.24493
596.51         23.2763
596.94         23.4868
597.38        23.67913
597.81        23.89672
598.24        23.87006
598.68        24.32466
599.11        24.57149
599.54        25.28646
599.97        25.21104
600.41        25.56271
600.84        26.16182
601.27        26.51626
601.70        26.85545
602.14        26.97173
602.57        27.30614
603.00        27.83966
603.43        28.24376
603.87        28.52483
604.30        28.90304
604.73        29.38667
605.16        29.81416
605.60        30.20183
606.03        30.72791
606.46        31.29473
606.89        31.86897
607.32        32.31121
607.76        32.68198
608.19        32.89969
608.62        33.40816
609.05        33.45667
609.48        33.73079
609.92        34.08415
610.35        34.13676
610.78        35.13113
611.21        35.70003
611.64        35.70197
612.07        36.05387
612.50        36.33653
612.94        36.52275
613.37        36.85974
613.80        37.18504
614.23        37.46651
614.66        37.87676
615.09        38.01939
615.52        38.65013
615.96        38.93854
616.39        39.27826
616.82        39.50941
617.25        39.45035
617.68         39.6758
618.11        40.02319
618.54        40.55511
618.97        40.67403
619.40        40.39841
619.84        40.63851
620.27        40.46273
620.70        40.88048
621.13        41.47512
621.56        41.76163
621.99        41.80959
622.42        41.91303
622.85          42.135
623.28        42.30083
623.71        42.39675
624.14        42.35753
624.57        42.28679
625.00        41.92538
625.43        42.23417
625.86        41.52058
626.29        41.62938
626.72        41.40775
627.15        41.34494
627.58        41.29888
628.01        41.19501
628.44        41.24982
628.87         40.8941
629.30         40.5248
629.73        40.17154
630.16        39.78371
630.59        39.69996
631.02        39.35114
631.45        38.85299
631.88        38.44321
632.31        38.12788
632.74        37.75452
633.17        37.30729
633.60        36.84316
634.03        36.36337
634.46        35.85767
634.89        35.33385
635.32         34.8034
635.75        34.27783
636.18        33.76817
636.61        33.28392
637.04        32.83167
637.47        32.40996
637.89         32.0156
638.32        31.64392
638.75        31.30417
639.18        30.99678
639.61         30.7237
640.04        30.45857
640.47        30.15696
640.90        29.81489
641.33        29.44839
641.76          29.107
642.18         28.8753
642.61        28.76642
643.04        28.75429
643.47        28.79246
643.90         28.8022
644.33         28.7623
644.76        28.70243
645.18        28.64262
645.61        28.61974
646.04        28.64919
646.47        28.71704
646.90        28.84483
647.33        29.06827
647.75        29.38964
648.18        29.79748
648.61        30.23783
649.04        30.62634
649.47        30.94819
649.89        31.20242
650.32        31.45581
650.75        31.87919
651.18        32.47267
651.61        33.04084
652.03        33.57233
652.46        34.23188
652.89        34.97816
653.32        35.48815
653.74          35.807
654.17        36.34706
654.60        36.88213
655.03        37.78247
655.46        37.68833
655.88        39.24732
656.31        40.29257
656.74        45.00497
657.16        43.41449
657.59        40.88653
658.02        41.31798
658.45        41.89725
658.87        42.76765
659.30        43.33992
659.73        43.72745
660.15        44.34525
660.58        44.53429
661.01        44.69762
661.44        44.74886
661.86        44.96561
662.29        45.39071
662.72        46.13968
663.14        47.01521
663.57        47.18561
664.00        46.79047
664.42         46.8144
664.85        47.33189
665.27        47.75459
665.70        48.00921
666.13        48.28225
666.55        48.56185
666.98        48.79691
667.41        49.00256
667.83        49.19524
668.26        49.37351
668.69        49.54457
669.11        49.70906
669.54        49.85469
669.96        49.98672
670.39        50.12964
670.82        50.28236
671.24        50.42513
671.67        50.59583
672.09        50.82756
672.52        51.04055
672.94        51.48904
673.37        51.34782
673.80        51.36356
674.22        51.36755
674.65        51.44599
675.07        51.62439
675.50        51.87905
675.92        52.15327
676.35        52.30525
676.77        52.31518
677.20        52.22846
677.62        52.11747
678.05        52.10614
678.47        52.22201
678.90        52.43067
679.32        52.68235
679.75        52.90078
680.17        53.05827
680.60        53.17966
681.02        53.27899
681.45        53.37292
681.87        53.50013
682.30        53.63431
682.72        53.72979
683.15        53.99889
683.57        53.90757
684.00        53.85061
684.42        53.87961
684.85        53.97544
685.27        54.20087
685.70         54.4934
686.12        54.76421
686.54        54.99562
686.97        55.17892
687.39        54.86853
687.82         54.9294
688.24        54.86206
688.66        54.91678
689.09        54.95802
689.51        54.99938
689.94        55.05424
690.36        55.10935
690.78        55.21635
691.21        55.41003
691.63        55.31432
692.06        55.76844
692.48        55.89069
692.90        56.02254
693.33        56.36561
693.75        56.02861
694.17        56.03291
694.60        56.09185
695.02        55.95421
695.44        55.66239
695.87        55.72398
696.29        56.06475
696.71        56.02546
697.14        55.80632
697.56        56.13137
697.98        56.73608
698.41        57.85296
698.83         57.3499
699.25         56.8077
699.68        56.87114
700.10        56.76822
700.52        56.78494
700.94        56.99076
701.37        57.27647
701.79        57.49236
702.21         57.5645
702.64        57.52121
703.06         57.4415
703.48        57.52003
703.90        57.75792
704.33        57.96537
704.75        58.07686
705.17        58.09178
705.59        57.99409
706.01        57.75547
706.44        57.49818
706.86        57.45308
707.28        57.65501
707.70        58.02246
708.12        58.43897
708.55        58.71878
708.97        58.81024
709.39        58.77765
709.81        58.67135
710.23         58.5812
710.66        58.54731
711.08        58.54448
711.50        58.56976
711.92        58.63555
712.34        58.73924
712.76        58.88842
713.19         59.0374
713.61         59.1531
714.03        59.19948
714.45        59.18713
714.87        59.16185
715.29        59.19882
715.71        59.31216
716.13        59.47911
716.56        59.63622
716.98         59.7436
717.40        59.75955
717.82        59.71044
718.24        59.64058
718.66        59.60648
719.08        59.64961
719.50         59.7288
719.92        59.82114
720.34        59.87786
720.76        59.88643
721.19        59.86269
721.61        59.83422
722.03        59.81396
722.45        59.82871
722.87        59.85924
723.29        59.91158
723.71        59.98739
724.13        60.08706
724.55        60.21333
724.97          60.357
725.39        60.50186
725.81        60.63782
726.23        60.75583
726.65        60.86529
727.07        60.98755
727.49        61.12227
727.91        61.26145
728.33        61.36864
728.75        61.38413
729.17        61.30379
729.59        61.15649
730.01        60.99982
730.43        60.93318
730.85        60.98278
731.27        61.08761
731.69        61.21707
732.10        61.40485
732.52        61.58506
732.94        61.59357
733.36        61.45695
733.78        61.39518
734.20        61.45739
734.62        61.46331
735.04         61.4628
735.46        61.51296
735.88        61.66026
736.30        61.32419
736.72        61.40181
737.13        61.62393
737.55        62.08084
737.97        62.32932
738.39        62.29511
738.81        61.96969
739.23        61.53975
739.65        61.63293
740.06        62.11264
740.48        62.33349
740.90        62.26454
741.32        61.87313
741.74         61.9026
742.16        62.12231
742.57        62.01654
742.99        62.16063
743.41        62.30239
743.83        62.38829
744.25         62.3872
744.67         62.3247
745.08        62.24256
745.50         62.1628
745.92        62.11579
746.34        62.09029
746.75        62.07944
747.17        62.07557
747.59        62.07933
748.01        62.10149
748.42        62.15454
748.84        62.24474
749.26        62.37754
749.68        62.47926
750.09        62.55074
750.51        62.71364
750.93        62.90596
751.35        62.86649
751.76        62.61736
752.18        62.44565
752.60         62.3676
753.01        62.23434
753.43        62.08322
753.85         62.0748
754.27        62.22234
754.68        62.54177
755.10        62.90141
755.52        62.97543
755.93        62.78384
756.35        62.66353
756.77        62.67789
757.18        62.71913
757.60        62.82837
758.02         63.0342
758.43        63.21272
758.85         63.5409
759.26        63.34122
759.68        63.15279
760.10        62.88396
760.51        62.69548
760.93        62.61005
761.34        62.60895
761.76        62.76447
762.18        62.43394
762.59        61.87872
763.01          62.014
763.42        62.83278
763.84        63.38044
764.26         63.5185
764.67        63.39811
765.09        63.23383
765.50        63.49197
765.92        64.08717
766.33        64.35964
766.75        64.16528
767.16        63.77531
767.58        63.29623
768.00         62.9332
768.41        62.83389
768.83        63.01286
769.24        63.38037
769.66        63.76807
770.07        64.04009
770.49        64.02401
770.90        63.81805
771.32          63.886
771.73        64.18764
772.15        64.21365
772.56        63.97427
772.97        63.75145
773.39        63.58134
773.80        63.54543
774.22        63.57165
774.63        63.34141
775.05        62.96542
775.46        62.95226
775.88        63.31989
776.29        63.84522
776.70        64.30961
777.12        64.47969
777.53        64.29436
777.95        63.79235
778.36        63.21853
778.77        62.99383
779.19        63.22086
779.60        63.82224
780.02        64.48566
780.43        64.88616
780.84        64.93109
781.26        64.30764
781.67        63.42688
782.09        63.97607
782.50        65.55757
782.91        65.64212
783.33        64.34167
783.74        63.97353
784.15        64.61649
784.57         64.9417
784.98        64.82846
785.39        64.65624
785.81        64.44442
786.22        64.20734
786.63         64.0164
787.04        63.90356
787.46        63.88843
787.87        63.99818
788.28        64.21384
788.70        64.40743
789.11        64.53863
789.52        64.75446
789.93        64.99928
790.35         64.9404
790.76        64.67831
791.17        64.72913
791.58        65.07245
792.00        65.18002
792.41         64.9895
792.82        64.86901
793.23        64.78932
793.65        64.26617
794.06        63.57845
794.47        63.64796
794.88        64.35172
795.29        64.92364
795.71         65.2138
796.12        64.86333
796.53        65.16711
796.94        64.80093
797.35        64.34162
797.76        64.43407
798.18        64.98392
798.59        65.20578
799.00        65.02116
799.41        64.93796
799.82        64.99505
800.23        65.01241
800.64        64.99826
801.06        64.97476
801.47         64.9985
801.88        65.10023
802.29        65.26988
802.70        65.46232
803.11        65.60961
803.52        65.60903
803.93        65.45478
804.34        65.20431
804.75        64.88486
805.17         64.6252
805.58        64.50188
805.99        64.19556
806.40        63.84895
806.81        64.40946
807.22        65.55217
807.63        65.59626
808.04        64.69783
808.45        64.49377
808.86        65.13347
809.27        65.83997
809.68        66.40015
810.09        66.73919
810.50        66.76031
810.91        66.50397
811.32        66.12728
811.73        65.88055
812.14        65.77597
812.55        65.69849
812.96        65.57113
813.37        65.13934
813.78         64.5553
814.19        64.48597
814.60         64.8565
815.01        64.98679
815.42        64.83821
815.83        64.78465
816.24        64.88553
816.65        65.04143
817.05        65.25625
817.46        65.51424
817.87        65.73754
818.28        65.76704
818.69        65.59167
819.10        65.25941
819.51        64.91499
819.92        64.86021
820.33        65.17109
820.74        65.63721
821.14        66.14651
821.55        66.72733
821.96        67.20129
822.37         67.0876
822.78        66.48785
823.19        66.06741
823.60        65.92253
824.00        65.71872
824.41        65.44566
824.82        65.34333
825.23         65.4247
825.64        65.63639
826.04        65.91737
826.45        66.11263
826.86        66.19071
827.27        66.19554
827.68        66.13351
828.08         66.0423
828.49         65.9028
828.90          65.726
829.31        65.59431
829.72        65.65466
830.12        65.94112
830.53        66.36453
830.94        66.79401
831.35        67.00026
831.75        66.95135
832.16        66.67495
832.57        66.28837
832.97        65.97694
833.38        65.80167
833.79        65.72139
834.20        65.71667
834.60        65.74565
835.01         65.8009
835.42        65.90149
835.82        66.02435
836.23        66.07153
836.64        66.03789
837.04        65.93001
837.45         65.7923
837.86        65.74919
838.26        65.83841
838.67        66.00309
839.08        66.16269
839.48        66.14921
839.89        65.93017
840.29        65.58826
840.70        65.28571
841.11        65.19443
841.51        65.36561
841.92        65.68581
842.33        66.11858
842.73        66.60363
843.14        67.00555
843.54        67.39286
843.95        67.61019
844.35        67.48554
844.76        67.02177
845.17        66.30313
845.57         65.5732
845.98        65.22192
846.38        65.33397
846.79        65.80134
847.19        66.47858
847.60        66.96809
848.00        67.18227
848.41        67.16526
848.81         67.0614
849.22        67.02075
849.62        67.12589
850.03        67.26653
850.43        67.41434
850.84        67.45324
851.24        67.40507
851.65        67.27872
852.05        67.14599
852.46        67.06247
852.86        67.06666
853.27        66.98779
853.67        66.83073
854.07        67.11781
854.48        67.64362
854.88        67.52155
855.29        66.80557
855.69        66.55287
856.10         66.7888
856.50        67.00314
856.90        67.08776
857.31        67.16859
857.71        67.28159
858.12        67.33227
858.52        67.35804
858.92        67.30691
859.33        67.16322
859.73        66.96794
860.13        66.77322
860.54        66.68771
860.94        66.78613
861.34        67.00826
861.75        67.20748
862.15        67.23181
862.55        67.00938
862.96        66.63336
863.36        66.20879
863.76        65.89423
864.17        65.74269
864.57         65.7133
864.97        65.82396
865.38        66.08874
865.78        66.52299
866.18        67.04871
866.58        67.47342
866.99        67.46648
867.39        66.98728
867.79        66.11792
868.19        65.00986
868.60        63.89281
869.00        62.84242
869.40        61.87883
869.80        61.17482
870.21        60.98278
870.61        61.38533
871.01        62.26478
871.41        63.30158
871.81        63.97485
872.22        64.17175
872.62        64.01266
873.02        63.63781
873.42        63.56562
873.82        63.66221
874.22        63.16779
874.63        62.38513
875.03        62.03992
875.43        62.26857
875.83        64.14843
876.23        63.90404
876.63        63.07891
877.03        61.00614
877.44        57.86263
877.84        139.1425
878.24        58.36029
878.64        60.72546
879.04        66.35055
879.44        63.05778
879.84        61.22036
880.24        66.33346
880.64        66.27835
881.04        62.36272
881.44        59.79576
881.84        59.49627
882.24        60.59447
882.65        62.35262
883.05        63.22436
883.45        62.73056
883.85        61.75485
884.25        60.84807
884.65        60.47331
885.05        60.79192
885.45         61.5828
885.85        62.50369
886.25        63.03468
886.65        63.01414
887.05        62.62291
887.45        62.11991
887.85        61.87878
888.25         62.0052
888.65        62.38192
889.04        62.86406
889.44        63.14457
889.84        63.15492
890.24        62.97718
890.64        62.74137
891.04        62.63985
891.44        62.69168
891.84        62.79385
892.24         62.8217
892.64        62.57402
893.04        62.04457
893.44        61.40504
893.83        60.71201
894.23        60.04808
894.63        59.45026
895.03        58.86353
895.43        58.51126
895.83        58.76692
896.23        59.64554
896.63        61.02687
897.02        62.38667
897.42        62.78621
897.82        62.04002
898.22        60.46311
898.62        58.68779
899.01        57.69032
899.41        57.73396
899.81        58.48942
900.21        59.60875
900.61        60.56119
901.00        61.15041
901.40        61.50734
901.80         61.6858
902.20        61.74671
902.59        61.73268
902.99        61.60011
903.39        61.32861
903.79        60.91895
904.18        60.41339
904.58        59.90821
904.98         59.5831
905.38        59.69453
905.77        60.25603
906.17        61.15868
906.57        62.13869
906.96        62.80767
907.36        63.00147
907.76         62.8045
908.15        62.39585
908.55        62.02413
908.95        61.79921
909.34        61.69378
909.74        61.56258
910.14        61.14411
910.53        60.40931
910.93        59.52417
911.33        58.84949
911.72         58.9493
912.12        59.84833
912.52        61.27168
912.91         62.7291
913.31        63.37493
913.70        63.06591
914.10        62.04316
914.49        60.58876
914.89        59.41684
915.29        58.82754
915.68        58.64195
916.08        58.83554
916.47        59.35771
916.87        60.07634
917.26        60.99665
917.66        61.85007
918.05         62.2154
918.45        61.98884
918.84        61.34668
919.24        60.44803
919.64        59.59071
920.03        58.92859
920.42        58.39707
920.82        58.24052
921.21        58.79191
921.61        59.97918
922.00        61.70857
922.40        63.35891
922.79        64.14527
923.19        63.88046
923.58         62.5229
923.98        60.43641
924.37        59.22828
924.77         59.5487
925.16        56.75679
925.55        58.61754
925.95        58.60156
926.34        58.97718
926.74        59.53452
927.13        60.26876
927.52        60.92151
927.92        61.38242
928.31        61.77703
928.70        61.97795
929.10        61.84341
929.49        61.38332
929.89        60.64153
930.28        59.99445
930.67        60.04729
931.07        60.86082
931.46        62.28691
931.85        63.76565
932.24        64.45633
932.64        64.15694
933.03        62.99995
933.42        61.41972
933.82        60.34307
934.21        60.06435
934.60        60.35248
934.99        60.59406
935.39        60.28156
935.78        59.35472
936.17        57.30512
936.56        54.36971
936.96        55.77109
937.35        54.92381
937.74        56.92812
938.13         58.9505
938.53        60.36969
938.92        61.10905
939.31        61.42999
939.70        61.51001
940.09        61.47676
940.49        61.43873
940.88         61.3514
941.27        61.31453
941.66        61.52988
942.05        61.99697
942.44        62.62963
942.84        63.31138
943.23        63.83214
943.62        64.09147
944.01        64.19762
944.40        64.00375
944.79        63.27758
945.18        62.02731
945.57        60.28098
945.97        58.63915
946.36        58.11341
946.75        58.98307
947.14          60.865
947.53        62.85397
947.92        63.70121
948.31        63.19149
948.70        61.70833
949.09        59.84588
949.48        58.66393
949.87         58.5093
950.26        59.04283
950.65        59.91166
951.04        60.52729
951.43        60.67834
951.82        60.59518
952.21        60.34504
952.60        60.00881
952.99        59.64522
953.38        59.16491
953.77        58.71148
954.16        58.54599
954.55        58.70484
954.94        59.16734
955.33        59.65428
955.72        59.67263
956.11        59.12671
956.50         58.1435
956.89        57.13786
957.28        56.90149
957.66        57.63535
958.05        58.93503
958.44        60.31507
958.83        61.13541
959.22        61.25267
959.61        60.88499
960.00        60.11626
960.39        59.12803
960.78        58.08296
961.16         56.9255
961.55         55.9493
961.94        55.48244
962.33        55.57352
962.72        56.18745
963.11        56.97805
963.49        57.32188
963.88         56.9809
964.27         56.1321
964.66        55.18604
965.04        54.84434
965.43        55.26965
965.82        56.25406
966.21         57.3703
966.60        57.92593
966.98         57.7623
967.37         57.0823
967.76        56.31376
968.15        56.11889
968.53        56.66032
968.92        57.61864
969.31        58.64008
969.69        59.14922
970.08        58.91737
970.47        58.17685
970.86        57.09187
971.24         55.8829
971.63        54.74822
972.02        53.66281
972.40        52.73321
972.79        52.18621
973.17        52.08011
973.56        52.29435
973.95        52.81579
974.33        53.56338
974.72        54.32396
975.11        55.08651
975.49         55.5326
975.88        55.18925
976.26         54.0345
976.65        52.26184
977.04        50.34431
977.42         49.1158
977.81        48.86895
978.19        49.38398
978.58        50.40553
978.96        51.44589
979.35        52.24425
979.74        53.00811
980.12        53.68784
980.51        53.96556
980.89        53.92485
981.28        53.51086
981.66        53.12546
982.05          53.391
982.43        54.37442
982.82        55.86123
983.20        57.46279
983.59        58.17309
983.97         57.7942
984.35        56.56938
984.74        54.98931
985.12         53.7248
985.51        52.99166
985.89        52.51628
986.28        52.27558
986.66        52.24875
987.04        52.34355
987.43        52.68676
987.81        52.81078
988.20        52.01857
988.58        50.10057
988.96        46.87703
989.35        43.14645
989.73        41.34668
990.12        42.66943
990.50        46.32738
990.88        50.16339
991.27        51.73015
991.65        50.95749
992.03        48.49604
992.42        45.67681
992.80        45.04673
993.18        47.36499
993.56        51.40803
993.95        55.71867
994.33         58.7951
994.71        60.08524
995.10        60.16623
995.48        59.36989
995.86        58.04828
996.24          56.401
996.63        54.24775
997.01        51.78521
997.39        49.95053
997.77        49.24989
998.15         49.5851
998.54        50.42593
998.92        51.06089
999.30        51.30954
999.68        51.35319
1000.06        51.02868
1000.45        50.15575
1000.83        48.98915
1001.21        47.64835
1001.59        46.60664
1001.97        46.21699
1002.35        46.35539
1002.73        46.93615
1003.12        47.57296
1003.50        47.41018
1003.88        46.14227
1004.26         44.1963
1004.64        42.13066
1005.02         40.6414
1005.40        39.91897
1005.78        39.72098
1006.16        40.27442
1006.54        41.85852
1006.92        44.01283
1007.30        46.21751
1007.69        47.72001
1008.07        47.97565
1008.45        46.75135
1008.83        43.90601
1009.21        38.88646
1009.59        32.23978
1009.97         25.8481
1010.35        20.86319
1010.73        19.08255
1011.11        21.18041
1011.49        26.18404
1011.86        33.59217
1012.24        40.16485
1012.62        42.88337
1013.00        41.61363
1013.38        37.43414
1013.76        32.25246
1014.14        29.51372
1014.52        30.25542
1014.90        33.45798
1015.28        37.57554
1015.66        40.01566
1016.04        39.86023
1016.41        37.75494
1016.79        34.42561
1017.17        31.73618
1017.55        30.76801
1017.93        30.83428
1018.31        31.36562
1018.69        31.88005
1019.06        32.16051
1019.44        32.14269
1019.82        31.78951
1020.20        30.86718
1020.58        29.35644
1020.95         27.4851
1021.33        24.83754
1021.71        19.76459
1022.09        10.58108
1022.46       -7.327592
1022.84       -34.57216
1023.22       -45.12765
1023.60       -22.63039
1023.97        4.904885
1024.35        20.94133
1024.73        26.55727
