SpectraSmart Spectrum 2.9.0.0
--------- Device Information -----------
Spectrum Name :  反射率_0
Saving Time :  2024/04/20 00:52:33
Spectro-Module Model Name : SE2030-DUVN
Spectro-Module Serial Number : OS361AC55029948
Wavelength Start : 200
Wavelength End : 1025
Wavelength Unit : Wavelength(nm)
Spectrum Unit : Reflectance(%)
-----------Spectrum Setting ------------
Integration Time : 30ms
Average : 10
Boxcar : 0
Background removal :  enabled
linearity correction :  enabled
SC :  disabled
Intensity correction :  disabled
DWT denoise :  enabled
savitzky-golay :  disabled
FFT :  disabled
Running average :  disabled
Kalman :  disabled
High pass :  disabled
---------------BEGIN--------------------
Wavelength(nm)             Reflectance(%)
200.29               0
200.75        69.38261
201.21         69.3793
201.67        71.28319
202.13        75.74843
202.58        82.89445
203.04        93.08285
203.50        102.8586
203.96         103.867
204.42        96.17993
204.88        85.31695
205.34         76.0078
205.80        70.24912
206.26        66.97379
206.72        64.85916
207.18        63.46943
207.64        62.40822
208.10        61.80359
208.55          62.468
209.01        63.49584
209.47        64.66538
209.93        65.79756
210.39        66.78849
210.85         67.1991
211.31        66.62752
211.77        64.90382
212.23        61.65939
212.69        57.64384
213.14        56.35369
213.60        58.56935
214.06        62.70417
214.52        66.01575
214.98        66.91294
215.44        65.71989
215.90        62.69821
216.36        59.36981
216.81        59.31414
217.27         63.4641
217.73        70.39243
218.19        76.63377
218.65        77.67152
219.11        72.70514
219.57         62.5228
220.02        49.92155
220.48        42.50974
220.94        43.23859
221.40        50.69375
221.86        60.56124
222.32        66.06697
222.77        65.47852
223.23        61.03843
223.69        56.10231
224.15        55.31972
224.61        58.64964
225.06        63.50172
225.52        67.37231
225.98        68.14009
226.44        65.88033
226.90         61.6418
227.36        56.84175
227.81         53.9766
228.27        54.10024
228.73        56.04062
229.19        58.60557
229.65        60.42879
230.10        61.19611
230.56        61.44122
231.02        61.42535
231.48        61.47583
231.93        61.61049
232.39        61.70204
232.85        61.56262
233.31        61.00154
233.77         60.0035
234.22        58.67691
234.68        57.25872
235.14        56.05262
235.60        55.22562
236.05        54.78443
236.51        54.61412
236.97        54.47253
237.43        54.29443
237.88        54.24383
238.34        54.37358
238.80        55.25664
239.26        56.97477
239.71        59.16206
240.17        61.09506
240.63        62.36838
241.08        63.00309
241.54        63.08574
242.00        62.49607
242.46        60.84362
242.91        57.78349
243.37        52.36443
243.83        45.18843
244.28        41.58051
244.74        46.31128
245.20        58.24107
245.66        69.03563
246.11        71.48664
246.57         64.8129
247.03        48.98069
247.48        27.75209
247.94        21.86996
248.40        33.97301
248.85        49.24321
249.31        60.50852
249.77        66.37429
250.22        68.42564
250.68        68.40861
251.14         66.8664
251.59        64.59598
252.05        62.40625
252.51        60.13557
252.96        57.61748
253.42        55.04638
253.88        52.82222
254.33         51.3355
254.79        51.79989
255.25        54.93879
255.70        60.00654
256.16        65.81439
256.62        70.44957
257.07        71.81687
257.53        70.15533
257.99        66.42966
258.44        61.77647
258.90        58.45825
259.35        56.47585
259.81        55.60816
260.27        54.89339
260.72        53.50587
261.18         51.6349
261.63        49.21035
262.09        47.12318
262.55        46.10813
263.00         46.1123
263.46        46.87126
263.91        47.38837
264.37        46.72919
264.83         44.9192
265.28        42.34672
265.74        40.12274
266.19        39.38219
266.65        40.23265
267.11        42.03693
267.56        43.88617
268.02        44.48341
268.47        43.61609
268.93        41.74405
269.38        39.46062
269.84        37.96332
270.30        37.56868
270.75        37.91196
271.21        38.53008
271.66        38.73801
272.12        38.33912
272.57        37.56239
273.03        36.67922
273.48        36.00262
273.94        35.66455
274.39        35.50091
274.85        35.35639
275.31         34.9915
275.76        34.34668
276.22        33.54111
276.67        32.73104
277.13        32.24166
277.58        32.06323
278.04        32.12147
278.49        32.13649
278.95        31.78238
279.40        30.99348
279.86        29.98569
280.31         28.9637
280.77         28.3546
281.22        28.15837
281.68        28.24864
282.13        28.41889
282.59        28.40669
283.04        28.13613
283.50        27.73733
283.95        27.25411
284.41        26.78714
284.86        26.35221
285.32        25.92962
285.77         25.5618
286.22         25.3874
286.68        25.40188
287.13         25.5449
287.59        25.66857
288.04        25.52344
288.50        25.09786
288.95        24.45217
289.41        23.77149
289.86        23.27308
290.32        23.06089
290.77        23.04442
291.22        23.15999
291.68        23.27732
292.13        23.35558
292.59        23.44814
293.04        23.57291
293.50        23.76823
293.95        24.03569
294.40        24.34496
294.86        24.68417
295.31        25.05324
295.77        25.45012
296.22        25.88096
296.68        26.33147
297.13        26.75006
297.58        27.14139
298.04        27.52901
298.49        27.95468
298.95         28.5203
299.40        29.22481
299.85        30.02728
300.31        30.85891
300.76        31.61491
301.21         32.2607
301.67        32.84296
302.12        33.35475
302.58        33.84549
303.03        34.31034
303.48        34.75169
303.94        35.21762
304.39        35.74468
304.84        36.33946
305.30        36.97554
305.75        37.56851
306.20        38.01001
306.66        38.29785
307.11        38.45532
307.57        38.55013
308.02        38.61176
308.47        38.68544
308.93        38.75358
309.38        38.84628
309.83        39.05924
310.29        39.38632
310.74        39.79989
311.19        40.15917
311.65         40.2381
312.10        39.99727
312.55        39.50956
313.00        38.96704
313.46        38.66704
313.91        38.66215
314.36        38.88382
314.82        39.16266
315.27        39.24306
315.72        39.04848
316.18        38.67642
316.63        38.25994
317.08        38.00905
317.53        37.96985
317.99        38.05999
318.44        38.17927
318.89        38.15869
319.35        37.95118
319.80        37.61644
320.25        37.22958
320.70        36.90812
321.16        36.68431
321.61        36.52637
322.06        36.38749
322.51        36.19838
322.97        35.93248
323.42         35.6225
323.87        35.29693
324.32        35.00492
324.78        34.75383
325.23        34.53606
325.68        34.31406
326.13        34.03421
326.59        33.68871
327.04        33.32706
327.49        32.98813
327.94        32.73516
328.39        32.58678
328.85        32.50407
329.30        32.51332
329.75         32.6043
330.20        32.75219
330.66        32.92506
331.11         33.0732
331.56        33.06483
332.01          32.871
332.46        32.51707
332.92        32.07686
333.37        31.69929
333.82        31.43972
334.27        31.28687
334.72        31.19963
335.17        31.09844
335.63        30.94946
336.08        30.78372
336.53        30.65867
336.98        30.67662
337.43        30.84719
337.88        31.13476
338.34        31.37396
338.79        31.34859
339.24        30.99979
339.69        30.39054
340.14        29.75302
340.59        29.47838
341.05        29.64354
341.50        30.13642
341.95         30.6942
342.40        30.90707
342.85        30.68686
343.30        30.17867
343.75        29.58331
344.20        29.22859
344.66        29.20143
345.11        29.35789
345.56        29.60831
346.01        29.81107
346.46        29.89934
346.91        29.93867
347.36        29.85995
347.81        29.54212
348.26        29.00652
348.72        28.32345
349.17        27.66671
349.62        27.40739
350.07        27.62118
350.52        28.17582
350.97         28.8676
351.42        29.38711
351.87        29.63273
352.32        29.68001
352.77        29.55655
353.22        29.31458
353.67        28.99953
354.13         28.6145
354.58        28.20449
355.03        27.88845
355.48        27.69892
355.93        27.62467
356.38        27.63323
356.83        27.65588
357.28        27.65878
357.73        27.64488
358.18         27.5984
358.63        27.49898
359.08        27.34396
359.53        27.13977
359.98        26.89155
360.43        26.60954
360.88        26.30902
361.33         25.9989
361.78        25.72155
362.23        25.54374
362.68        25.47089
363.13        25.46944
363.58        25.48423
364.03        25.42888
364.48        25.27348
364.93        25.03993
365.38        24.73071
365.83        24.35907
366.28        23.95163
366.73        23.51873
367.18        23.11779
367.63        22.83495
368.08        22.68365
368.53        22.63865
368.98        22.64472
369.43        22.60792
369.88         22.5021
370.33        22.35653
370.78        22.18354
371.23        22.01027
371.68        21.85283
372.13        21.69256
372.58        21.56749
373.03        21.54541
373.48        21.62519
373.93        21.77902
374.38        21.91671
374.83        21.89837
375.28         21.6979
375.72        21.35193
376.17        20.96412
376.62        20.66331
377.07        20.49866
377.52        20.43699
377.97        20.44561
378.42        20.47163
378.87        20.48812
379.32        20.50175
379.77        20.51427
380.22        20.52488
380.67        20.52924
381.11        20.52599
381.56        20.47245
382.01        20.32405
382.46        20.08029
382.91        19.75797
383.36        19.44177
383.81        19.25524
384.26        19.22152
384.71        19.31643
385.15        19.42881
385.60        19.38906
386.05        19.16652
386.50        18.81272
386.95        18.46816
387.40        18.35504
387.85        18.50625
388.29        18.83076
388.74        19.16607
389.19         19.2796
389.64        19.12643
390.09         18.7786
390.54         18.3695
390.98        18.10572
391.43        18.05936
391.88        18.15292
392.33        18.27535
392.78        18.26733
393.23        18.10702
393.67        17.84944
394.12        17.61642
394.57        17.51118
395.02        17.55604
395.47         17.7089
395.91         17.9046
396.36        18.01043
396.81        17.99388
397.26        17.88744
397.71        17.76065
398.15        17.70339
398.60        17.75583
399.05        17.87499
399.50        17.99158
399.95        18.00817
400.39        17.90742
400.84        17.71894
401.29        17.52528
401.74         17.4748
402.18        17.60698
402.63          17.862
403.08        18.12451
403.53        18.21149
403.97        18.08588
404.42        17.81937
404.87        17.52208
405.32        17.37546
405.76        17.42439
406.21        17.60696
406.66        17.83981
407.11        17.99341
407.55        18.03158
408.00        18.00025
408.45        17.93338
408.90        17.84058
409.34        17.75999
409.79        17.76707
410.24        17.82848
410.68         17.8202
411.13        17.74085
411.58        17.66716
412.03        17.61847
412.47        17.60067
412.92        17.61726
413.37        17.65594
413.81        17.72795
414.26        17.86577
414.71         18.0582
415.15        18.30092
415.60        18.50294
416.05        18.54427
416.49        18.40073
416.94        18.11604
417.39         17.7981
417.83        17.62281
418.28        17.63991
418.73        17.79016
419.17        17.98923
419.62        18.09196
420.07        18.06535
420.51        17.96029
420.96        17.82614
421.41        17.71762
421.85        17.65207
422.30        17.61996
422.74        17.62265
423.19        17.69614
423.64        17.83037
424.08         18.0277
424.53        18.22527
424.98        18.33665
425.42        18.34139
425.87        18.26642
426.31        18.15425
426.76        18.08393
427.21        18.06782
427.65        18.07266
428.10        18.11383
428.54        18.18889
428.99        18.29047
429.44            18.5
429.88        18.70037
430.33        18.58384
430.77        18.21659
431.22        17.97485
431.66        17.92872
432.11        17.98038
432.56         18.1143
433.00        18.41111
433.45        18.67681
433.89        18.62144
434.34        18.35969
434.78        18.08096
435.23        17.78874
435.67        18.70319
436.12         18.2138
436.57        18.25706
437.01        18.11031
437.46         18.0823
437.90        18.17841
438.35        18.24806
438.79        18.27036
439.24         18.2944
439.68        18.31739
440.13        18.17937
440.57        17.96681
441.02        18.11237
441.46        18.44225
441.91        18.40325
442.35        17.60812
442.80        17.33983
443.24        17.42468
443.69        17.46121
444.13        17.40437
444.58        17.37889
445.02        17.38313
445.47        17.43394
445.91         17.5003
446.36        17.49129
446.80        17.39511
447.24        17.25759
447.69        17.13457
448.13        17.07662
448.58        17.10324
449.02        17.19321
449.47        17.29581
449.91        17.31999
450.36        17.25391
450.80        17.12834
451.25        17.00056
451.69        16.94124
452.13        16.97337
452.58         17.0603
453.02        17.17992
453.47        17.30124
453.91        17.40915
454.36        17.51289
454.80        17.58379
455.24        17.57237
455.69        17.48287
456.13        17.31379
456.58        17.14327
457.02        17.07835
457.46        17.13494
457.91        17.24245
458.35        17.34711
458.79        17.41026
459.24        17.41065
459.68        17.36617
460.13        17.35667
460.57         17.3398
461.01        17.30993
461.46        17.72468
461.90        17.86859
462.34        17.71474
462.79        17.84546
463.23        17.67477
463.68        17.51725
464.12        17.41873
464.56        17.53936
465.01        17.72898
465.45        17.91306
465.89        18.00402
466.34        17.99001
466.78        17.84524
467.22        17.64891
467.67        17.65305
468.11        17.83008
468.55        17.81773
468.99        17.64162
469.44         17.6308
469.88        17.79372
470.32        17.94514
470.77        18.03311
471.21        18.06651
471.65        18.03585
472.10        17.94264
472.54         17.8328
472.98        17.81993
473.42        17.92135
473.87        18.04914
474.31        18.17193
474.75        18.35301
475.20        18.53946
475.64        18.54461
476.08        18.41981
476.52         18.4083
476.97        18.52666
477.41        18.65922
477.85        18.76468
478.29        18.83418
478.74        18.85949
479.18        18.81189
479.62        18.75382
480.06        18.78913
480.50        18.90932
480.95        18.99637
481.39        19.01867
481.83         19.0187
482.27        18.99751
482.72        18.94309
483.16        18.88671
483.60        18.89079
484.04        18.96787
484.48        19.12812
484.93        19.40788
485.37        19.57882
485.81        19.76696
486.25        20.14483
486.69        20.76916
487.14        20.12061
487.58        19.75665
488.02        20.99752
488.46        20.30954
488.90        20.48694
489.34        20.30332
489.79        20.47142
490.23        20.88778
490.67        21.05363
491.11        20.98779
491.55        20.93429
491.99        20.93872
492.43        20.94843
492.88        20.98149
493.32        21.04585
493.76        21.14853
494.20        21.30077
494.64        21.50084
495.08        21.74368
495.52        21.99142
495.96        22.19155
496.41        22.34049
496.85        22.43016
497.29        22.49754
497.73        22.68689
498.17        22.97417
498.61        23.12746
499.05         23.1474
499.49        23.26335
499.93        23.48605
500.37        23.62311
500.82        23.69395
501.26        23.92192
501.70        24.25319
502.14        24.35509
502.58         24.2509
503.02        24.25599
503.46        24.38698
503.90         24.4691
504.34        24.48584
504.78        24.49219
505.22        24.48998
505.66        24.47551
506.10        24.46072
506.54        24.46066
506.98        24.48388
507.42        24.53082
507.86        24.61044
508.30        24.73415
508.74        24.89502
509.18        25.07917
509.62        25.26108
510.06        25.40092
510.50        25.48908
510.94        25.54115
511.38        25.55806
511.82        25.54503
512.26        25.51214
512.70        25.45652
513.14         25.4215
513.58        25.47039
514.02        25.60327
514.46         25.8054
514.90        26.00556
515.34        26.02289
515.78        25.87802
516.22        25.67013
516.66        25.50691
517.10        25.22857
517.54        24.86566
517.98        25.46119
518.42        25.41025
518.86        25.68451
519.30        25.78535
519.74        25.88138
520.18        25.94876
520.62        25.92904
521.06        25.83962
521.50        25.67934
521.93        25.50133
522.37        25.40281
522.81        25.40434
523.25        25.48303
523.69        25.58737
524.13         25.6335
524.57        25.59921
525.01        25.50742
525.45         25.3975
525.89        25.33208
526.32        25.32584
526.76        25.35988
527.20        25.39408
527.64        25.37022
528.08        25.27545
528.52        25.12873
528.96        24.97576
529.40        24.88382
529.83        24.86507
530.27        24.90289
530.71        24.94314
531.15        24.90342
531.59        24.77057
532.03        24.57699
532.46        24.37937
532.90         24.2835
533.34         24.3033
533.78        24.40082
534.22        24.52581
534.66         24.6019
535.09        24.60257
535.53        24.56054
535.97        24.48971
536.41        24.40859
536.85        24.33022
537.28        24.26009
537.72        24.22144
538.16        24.17789
538.60        24.25045
539.04        24.32772
539.47        24.41041
539.91        24.50848
540.35        24.62919
540.79        24.56302
541.22        24.64349
541.66        24.72034
542.10        24.91257
542.54         24.8088
542.97        25.05615
543.41        25.17835
543.85        25.34898
544.29        25.50769
544.72         25.6266
545.16        25.73697
545.60        25.83215
546.04        25.82731
546.47        25.80572
546.91        26.06469
547.35        26.54115
547.79         26.8781
548.22        27.02211
548.66        27.10068
549.10        27.14811
549.53        27.29296
549.97         27.5622
550.41        27.55109
550.84        27.77704
551.28        27.92717
551.72        28.14933
552.15        28.35374
552.59        28.53528
553.03        28.70819
553.46        28.85707
553.90        28.98727
554.34         29.0971
554.77        29.18585
555.21        29.27008
555.65         29.3631
556.08        29.46438
556.52         29.5675
556.96        29.67141
557.39        29.81087
557.83        29.97448
558.27         30.0822
558.70        30.13271
559.14        30.18745
559.57        30.23928
560.01        30.28881
560.45        30.32998
560.88        30.31449
561.32        30.30748
561.75        30.38934
562.19        30.64512
562.63         30.7734
563.06        30.79632
563.50        30.80264
563.93          30.816
564.37        30.97965
564.80        31.12625
565.24        31.23262
565.68        31.25015
566.11        31.32956
566.55        31.49386
566.98        31.60032
567.42        31.62837
567.85        31.98307
568.29        31.83904
568.72        32.16421
569.16        32.62648
569.60        32.91735
570.03        32.98551
570.47        33.05948
570.90        33.01846
571.34        33.36378
571.77        33.05402
572.21        33.58007
572.64          33.618
573.08        33.79274
573.51        33.89574
573.95        34.51923
574.38        34.61288
574.82        34.80851
575.25        34.82019
575.69        34.67371
576.12        34.73899
576.56        34.67461
576.99        34.87202
577.42        34.95076
577.86        34.88055
578.29        35.01432
578.73        35.25414
579.16        34.89328
579.60        34.75835
580.03        34.51119
580.47        34.77127
580.90        34.40937
581.33        34.18111
581.77        34.42276
582.20        34.85271
582.64        34.40126
583.07        33.88523
583.51         34.0247
583.94        33.73884
584.37        33.47618
584.81        33.25474
585.24        33.24618
585.68        33.45813
586.11        33.34719
586.54        32.97763
586.98         32.8396
587.41         32.9675
587.85        33.08398
588.28        33.07169
588.71        32.88379
589.15        32.62836
589.58        32.22464
590.01         32.3043
590.45        32.89024
590.88        32.83337
591.31        32.71398
591.75        32.22417
592.18         32.3322
592.61        32.31333
593.05         32.8607
593.48        32.61783
593.91        33.46827
594.35        33.19257
594.78        33.19129
595.21        33.42674
595.65        33.82848
596.08        33.87821
596.51        33.88603
596.94        33.79698
597.38        33.78917
597.81        33.93406
598.24        34.35736
598.68        34.97997
599.11        35.01028
599.54        35.82286
599.97        35.60165
600.41          35.923
600.84        36.45654
601.27        37.00123
601.70        37.28878
602.14        37.54677
602.57        37.83815
603.00        38.27426
603.43        38.79333
603.87           39.17
604.30        39.54211
604.73        39.87391
605.16        40.22254
605.60        40.56419
606.03        41.07933
606.46         41.6131
606.89        42.16062
607.32        42.55987
607.76        42.68564
608.19        43.04962
608.62        43.59827
609.05        43.68382
609.48        43.95914
609.92        44.26642
610.35        44.18983
610.78        45.10441
611.21        45.84261
611.64        45.45719
612.07        45.94557
612.50        46.18881
612.94        46.21582
613.37        46.70817
613.80        47.10754
614.23        47.64674
614.66        47.72137
615.09         47.9031
615.52        48.15766
615.96        48.58665
616.39        48.82519
616.82        48.91193
617.25        49.00808
617.68          49.282
618.11        49.69528
618.54        50.07772
618.97        50.09456
619.40        49.76887
619.84        49.86181
620.27        49.66162
620.70        50.09119
621.13        50.75372
621.56        50.91899
621.99        50.70372
622.42        50.74153
622.85        51.08747
623.28        51.22376
623.71         51.1556
624.14        51.35489
624.57        51.14974
625.00        51.39661
625.43        51.30705
625.86        50.76335
626.29        50.80092
626.72        50.56114
627.15        50.41964
627.58        50.32367
628.01        50.25909
628.44        50.13354
628.87        49.91325
629.30        49.68045
629.73         49.4682
630.16        49.04724
630.59        48.92043
631.02        48.59898
631.45        48.23594
631.88        47.88437
632.31        47.54805
632.74        47.18396
633.17        46.78553
633.60        46.37342
634.03        45.95202
634.46        45.52474
634.89        45.09354
635.32        44.66464
635.75        44.24627
636.18        43.82701
636.61        43.42417
637.04        43.10184
637.47        42.83982
637.89        42.53761
638.32         42.1863
638.75        41.88364
639.18        41.63383
639.61        41.38332
640.04        41.11981
640.47        40.84763
640.90        40.56804
641.33        40.28694
641.76        40.02726
642.18         39.8298
642.61        39.69826
643.04        39.62261
643.47        39.59467
643.90        39.59721
644.33         39.6222
644.76        39.67836
645.18        39.74594
645.61        39.79513
646.04        39.82379
646.47        39.83681
646.90        39.88207
647.33        40.04085
647.75        40.32666
648.18        40.70824
648.61        41.12324
649.04        41.46885
649.47        41.73103
649.89        41.94275
650.32        42.15719
650.75        42.50853
651.18        43.02434
651.61         43.5049
652.03        43.97634
652.46        44.79365
652.89        45.81398
653.32        46.22147
653.74        46.14816
654.17        46.43649
654.60        47.27875
655.03        48.05455
655.46        47.69717
655.88        49.55375
656.31        50.42224
656.74        57.10841
657.16         53.5527
657.59        49.26098
658.02        50.00508
658.45        50.90884
658.87        52.07203
659.30        52.49295
659.73        53.13516
660.15        53.85257
660.58        53.59754
661.01         53.4911
661.44        53.31792
661.86        53.50051
662.29        54.01681
662.72        54.75381
663.14        55.49881
663.57         55.5765
664.00        55.15436
664.42        55.15574
664.85        55.65691
665.27        56.08112
665.70        56.33479
666.13        56.57595
666.55        56.78695
666.98        56.91661
667.41        57.00734
667.83         57.1241
668.26        57.27822
668.69        57.46891
669.11        57.66092
669.54        57.79295
669.96        57.85914
670.39        57.87544
670.82        57.90574
671.24        58.03991
671.67        58.28812
672.09        58.63209
672.52        58.98255
672.94        59.14624
673.37        59.12464
673.80        59.04819
674.22        58.99696
674.65        59.00391
675.07        59.10898
675.50        59.31506
675.92        59.56385
676.35        59.70517
676.77         59.7141
677.20        59.64863
677.62        59.56901
678.05        59.55524
678.47        59.62692
678.90        59.84412
679.32         60.0236
679.75         60.2374
680.17        60.42073
680.60        60.58384
681.02        60.74148
681.45        60.90771
681.87        61.09623
682.30        61.28101
682.72        61.44254
683.15        61.54455
683.57         61.5951
684.00        61.53545
684.42        61.54196
684.85        61.59818
685.27        61.75854
685.70        61.98561
686.12        62.21929
686.54        62.42938
686.97        62.59927
687.39        62.56462
687.82        62.65888
688.24        62.72152
688.66        62.84487
689.09        62.92779
689.51        62.98008
689.94        63.07559
690.36        63.20454
690.78         63.2309
691.21        63.18102
691.63        63.23983
692.06        63.58099
692.48        63.62459
692.90        63.76446
693.33        64.24677
693.75        64.08043
694.17        64.15627
694.60        64.15698
695.02        64.10696
695.44        64.00252
695.87         63.9728
696.29        64.02928
696.71        63.94103
697.14         63.8834
697.56        64.23945
697.98        65.10664
698.41        65.72611
698.83        65.47791
699.25        65.08568
699.68        64.95198
700.10        64.82894
700.52        64.91071
700.94        65.17464
701.37        65.50439
701.79        65.73919
702.21        65.79951
702.64        65.74001
703.06        65.65641
703.48        65.70869
703.90        65.93246
704.33        66.26744
704.75         66.5936
705.17        66.68786
705.59        66.50906
706.01        66.13831
706.44        65.75986
706.86        65.66441
707.28        65.90897
707.70        66.38957
708.12        66.94431
708.55        67.31709
708.97        67.43631
709.39        67.38759
709.81        67.24327
710.23        67.13058
710.66        67.10358
711.08        67.12517
711.50        67.17937
711.92        67.26379
712.34        67.37107
712.76        67.51299
713.19        67.65461
713.61        67.78696
714.03        67.87349
714.45        67.91873
714.87        67.94452
715.29        67.98969
715.71        68.06509
716.13        68.16184
716.56        68.24757
716.98        68.34812
717.40        68.43221
717.82        68.49883
718.24        68.56092
718.66        68.63844
719.08        68.73206
719.50         68.8345
719.92        68.91335
720.34        68.91688
720.76         68.8407
721.19         68.7018
721.61        68.56613
722.03        68.50513
722.45        68.56042
722.87        68.69715
723.29        68.87765
723.71        69.02705
724.13        69.12607
724.55        69.19916
724.97         69.2734
725.39        69.39445
725.81        69.56989
726.23        69.76915
726.65        69.97765
727.07        70.18027
727.49        70.36551
727.91        70.53863
728.33        70.67126
728.75        70.71582
729.17        70.67183
729.59        70.55521
730.01        70.41362
730.43        70.37146
730.85         70.4603
731.27        70.55511
731.69        70.59432
732.10        70.94958
732.52        70.89447
732.94        70.90869
733.36        70.77738
733.78         70.7397
734.20        70.85788
734.62         70.7535
735.04        70.33859
735.46        71.15551
735.88        70.69537
736.30         70.5884
736.72        70.79528
737.13        70.98178
737.55         71.2688
737.97          71.636
738.39        71.98476
738.81        72.03767
739.23        71.83217
739.65        71.63183
740.06        71.46484
740.48        71.53732
740.90        71.46939
741.32        71.24169
741.74        71.22556
742.16        71.22085
742.57        71.37566
742.99        71.54916
743.41        71.71629
743.83        71.84985
744.25        71.92591
744.67        71.94065
745.08        71.92613
745.50        71.90656
745.92        71.90697
746.34        71.91448
746.75        71.92175
747.17         71.9152
747.59        71.89862
748.01        71.90746
748.42        71.95095
748.84        71.99899
749.26        72.08273
749.68         72.1741
750.09        72.29567
750.51        72.59161
750.93        72.92986
751.35        72.94199
751.76        72.70225
752.18        72.33932
752.60        72.44625
753.01        72.55527
753.43        72.36493
753.85         72.4651
754.27        72.72351
754.68        73.09443
755.10        73.45059
755.52        73.62794
755.93        73.59393
756.35        73.39864
756.77        73.16746
757.18        73.11342
757.60        73.31167
758.02        73.61542
758.43        73.84624
758.85        74.08957
759.26        74.33126
759.68        73.69624
760.10        73.26151
760.51        73.59061
760.93        73.27913
761.34        72.71408
761.76        72.86781
762.18        72.63596
762.59        72.52821
763.01        72.63959
763.42        73.03667
763.84        73.46878
764.26        73.85278
764.67        74.01897
765.09        74.06325
765.50        74.28715
765.92        74.65562
766.33        74.81879
766.75        74.67479
767.16        74.31982
767.58        73.84518
768.00        73.56238
768.41        73.57465
768.83        73.75562
769.24         74.0474
769.66        74.35654
770.07        74.59151
770.49         74.7478
770.90        74.82802
771.32        74.84084
771.73        74.82635
772.15         74.7857
772.56        74.75021
772.97        74.77549
773.39        74.79345
773.80         74.7056
774.22        74.48264
774.63        74.18221
775.05        73.92361
775.46        73.91086
775.88        74.15749
776.29        74.64392
776.70        75.15259
777.12        75.34337
777.53        75.15136
777.95        74.65127
778.36        74.07781
778.77        73.83439
779.19        74.02267
779.60        74.56736
780.02        75.18151
780.43        75.59167
780.84        75.71115
781.26        75.21779
781.67        74.48244
782.09        75.10557
782.50        76.67643
782.91        76.72369
783.33        75.38367
783.74         74.9749
784.15        75.58668
784.57        75.94269
784.98         75.8834
785.39        75.64359
785.81        75.26595
786.22        74.93436
786.63        74.76186
787.04        74.73775
787.46        74.89523
787.87        75.26379
788.28        75.69283
788.70        76.12463
789.11        76.04985
789.52        75.91283
789.93        75.70476
790.35         75.6586
790.76         75.8069
791.17        75.97861
791.58        76.11726
792.00        76.16862
792.41        76.08519
792.82        75.96935
793.23         75.8238
793.65        75.35277
794.06        74.86449
794.47        75.27596
794.88        76.27732
795.29        77.36946
795.71        76.74621
796.12        76.70915
796.53        76.78662
796.94        76.32372
797.35         75.5093
797.76        75.32676
798.18        75.75438
798.59        75.94816
799.00        75.85083
799.41        75.98053
799.82        76.29819
800.23        76.47628
800.64         76.4794
801.06        76.35545
801.47        76.22602
801.88        76.23451
802.29        76.40705
802.70        76.66434
803.11        76.91202
803.52        77.00291
803.93        76.92033
804.34        76.74548
804.75           76.51
805.17         76.3663
805.58        76.39509
805.99        76.18187
806.40        75.88469
806.81        76.63988
807.22        78.03442
807.63        78.04463
808.04        76.86005
808.45        76.39445
808.86        76.89093
809.27        77.64556
809.68        78.40597
810.09        78.82463
810.50        78.76714
810.91        78.51118
811.32        78.18566
811.73        77.79784
812.14        77.40345
812.55        77.13915
812.96        76.99384
813.37        76.64172
813.78        76.22334
814.19        76.41758
814.60        77.05254
815.01        77.31066
815.42         77.1225
815.83        76.87165
816.24        76.69801
816.65        76.68833
817.05        76.90361
817.46        77.25848
817.87        77.61632
818.28        77.72304
818.69        77.54353
819.10        77.16814
819.51        76.74696
819.92        76.62873
820.33        76.92122
820.74         77.2733
821.14        77.63599
821.55        78.46351
821.96        79.43575
822.37        79.30615
822.78        78.26727
823.19        77.79527
823.60        78.03582
824.00        78.20361
824.41        78.13166
824.82        78.03717
825.23        77.89565
825.64        77.67921
826.04        77.49146
826.45        77.43365
826.86        77.54093
827.27        77.79119
827.68        78.08149
828.08        78.25729
828.49        78.21507
828.90        78.02103
829.31        77.79491
829.72        77.75048
830.12        77.95504
830.53        78.29479
830.94        78.63266
831.35        78.73152
831.75        78.56728
832.16        78.18365
832.57        77.73306
832.97        77.45231
833.38        77.39679
833.79        77.48895
834.20        77.66679
834.60        77.82401
835.01         77.9361
835.42        78.05709
835.82        78.13963
836.23        78.04189
836.64        77.77634
837.04        77.35954
837.45        76.97733
837.86        76.98695
838.26         77.4679
838.67        78.29852
839.08        79.17215
839.48        79.50836
839.89        79.16293
840.29        78.34729
840.70        77.48609
841.11        77.12708
841.51        77.41451
841.92        78.12094
842.33        79.05321
842.73        79.87473
843.14        80.33897
843.54        80.61219
843.95        80.64005
844.35        80.42298
844.76        80.01652
845.17        79.43942
845.57        78.86136
845.98        78.58411
846.38        78.66887
846.79        79.03904
847.19        79.61253
847.60        80.06913
848.00        80.35183
848.41        80.46592
848.81        80.49599
849.22        80.49408
849.62         80.5282
850.03        80.51495
850.43        80.48007
850.84        80.36842
851.24        80.23308
851.65        80.04247
852.05        79.88232
852.46        79.75854
852.86        79.68897
853.27        79.69857
853.67        79.69157
854.07        79.66067
854.48        79.56798
854.88        79.44298
855.29        79.28383
855.69        79.25091
856.10        79.28581
856.50        79.44424
856.90        79.60841
857.31        79.60876
857.71        79.49137
858.12        79.25395
858.52        79.03892
858.92        78.95271
859.33        79.00742
859.73        79.19987
860.13        79.48529
860.54        79.78857
860.94        80.11349
861.34        80.41096
861.75        80.56306
862.15        80.49129
862.55        80.15538
862.96        79.63608
863.36        79.05068
863.76        78.56573
864.17        78.26155
864.57        78.12772
864.97        78.22831
865.38        78.63378
865.78        79.36408
866.18        80.30528
866.58        81.21043
866.99        81.63743
867.39        81.49986
867.79         80.8847
868.19        79.90513
868.60        78.74639
869.00        77.50155
869.40        76.19409
869.80        75.12838
870.21        74.78444
870.61        75.30542
871.01        76.51582
871.41        77.92131
871.81         78.7131
872.22        78.70403
872.62        78.11575
873.02        77.27989
873.42        76.92266
873.82        77.06731
874.22        77.11376
874.63        77.10272
875.03         77.2234
875.43        77.43384
875.83        78.47515
876.23        78.19175
876.63        77.65649
877.03        76.50794
877.44        74.78069
877.84         123.282
878.24         75.2617
878.64        76.54447
879.04        79.73088
879.44        77.47606
879.84        75.97342
880.24        78.77032
880.64        78.35191
881.04        75.52291
881.44        73.79626
881.84        73.83701
882.24        75.04369
882.65        76.71251
883.05        77.57847
883.45        77.21654
883.85        76.24368
884.25        75.24292
884.65         74.8792
885.05        75.33118
885.45        76.35078
885.85        77.48944
886.25        78.02409
886.65        77.76263
887.05        76.97101
887.45        76.06051
887.85        75.63148
888.25        75.83624
888.65        76.47472
889.04        77.30503
889.44        77.82969
889.84         77.9154
890.24        77.70807
890.64        77.35133
891.04        77.05238
891.44        76.86143
891.84        76.67326
892.24        76.45361
892.64        76.16661
893.04        75.82517
893.44        75.52749
893.83        75.21523
894.23         74.8228
894.63        74.34481
895.03        73.79546
895.43        73.39782
895.83        73.52761
896.23         74.2284
896.63        75.36536
897.02        76.56187
897.42        77.11794
897.82        76.87276
898.22        76.04073
898.62        74.99139
899.01        74.28947
899.41        74.13721
899.81        74.35719
900.21        74.80675
900.61        75.27198
901.00        75.65747
901.40        75.99601
901.80        76.31277
902.20        76.61952
902.59        76.91429
902.99        77.16521
903.39        77.24125
903.79        76.94919
904.18        76.28093
904.58        75.36137
904.98        74.51899
905.38        74.25133
905.77        74.63375
906.17        75.53104
906.57        76.53565
906.96        77.02769
907.36        76.81814
907.76        76.07051
908.15         75.1883
908.55        74.76393
908.95        74.96709
909.34        75.66469
909.74        76.41125
910.14        76.44344
910.53        75.59702
910.93        74.20409
911.33        72.90501
911.72        72.69855
912.12        73.72679
912.52        75.55016
912.91        77.52927
913.31        78.62323
913.70        78.61729
914.10        77.80497
914.49        76.46976
914.89        75.26235
915.29        74.50694
915.68        74.04574
916.08         73.9293
916.47        74.19172
916.87        74.74185
917.26        75.56063
917.66        76.41276
918.05        76.92471
918.45        76.96807
918.84        76.68463
919.24        76.10771
919.64        75.33773
920.03        74.48513
920.42        73.55321
920.82        72.89397
921.21        72.99696
921.61        73.85323
922.00        75.34242
922.40        76.85523
922.79         77.6127
923.19        77.38227
923.58        76.24001
923.98         74.5307
924.37        73.46191
924.77        73.55918
925.16        71.73345
925.55        73.05621
925.95        73.24593
926.34        73.76503
926.74        74.46008
927.13        75.29794
927.52        76.06355
927.92        76.66145
928.31        77.17393
928.70        77.48085
929.10        77.43877
929.49        77.05862
929.89        76.39069
930.28        75.73083
930.67        75.54581
931.07        75.90577
931.46        76.72498
931.85        77.65258
932.24        78.16274
932.64        78.10845
933.03        77.55959
933.42        76.73507
933.82        76.12775
934.21        75.87943
934.60        75.88564
934.99        75.76892
935.39         75.1945
935.78        74.13499
936.17        72.27511
936.56        69.85405
936.96         70.5704
937.35        70.13555
937.74        71.81907
938.13        73.58824
938.53        74.85351
938.92        75.53387
939.31        75.85083
939.70        75.87672
940.09         75.6225
940.49        75.19969
940.88        74.66412
941.27        74.24456
941.66        74.31674
942.05         74.9193
942.44        75.89497
942.84        77.09618
943.23        78.27021
943.62        79.23244
944.01          80.052
944.40        80.44848
944.79        79.99313
945.18        78.65157
945.57         76.5006
945.97        74.22686
946.36        73.09418
946.75         73.5154
947.14        75.10358
947.53        77.01182
947.92        78.04221
948.31         77.9546
948.70        77.11258
949.09        75.98064
949.48        75.36773
949.87        75.53187
950.26        76.17695
950.65        77.00941
951.04        77.57964
951.43        77.71704
951.82        77.57697
952.21        77.26095
952.60        76.90573
952.99        76.57729
953.38        76.22707
953.77        75.84852
954.16        75.44662
954.55        75.03831
954.94        74.67143
955.33         74.3908
955.72        74.23677
956.11        74.23529
956.50        74.38998
956.89        74.68154
957.28        75.06442
957.66        75.48179
958.05        75.80495
958.44        76.05257
958.83        76.27166
959.22        76.45602
959.61        76.61539
960.00        76.53947
960.39        75.88358
960.78        74.64679
961.16        72.96938
961.55        71.40122
961.94        70.62889
962.33        70.79707
962.72        71.74227
963.11        72.97081
963.49        73.62601
963.88        73.36929
964.27        72.45927
964.66        71.38692
965.04        70.98203
965.43        71.43638
965.82        72.48312
966.21        73.64816
966.60        74.17354
966.98        73.89191
967.37        73.06082
967.76        72.12482
968.15        71.75971
968.53        72.15112
968.92         72.9651
969.31        73.93444
969.69        74.62112
970.08        74.80355
970.47        74.68099
970.86        74.23743
971.24        73.40498
971.63        72.30685
972.02        70.98229
972.40        69.75974
972.79        69.23357
973.17        69.57355
973.56        70.52738
973.95        71.83985
974.33        72.99904
974.72        73.66066
975.11        73.96999
975.49         73.8353
975.88        73.12318
976.26         71.9302
976.65        70.37164
977.04        68.81697
977.42        67.93457
977.81        67.92276
978.19        68.57468
978.58        69.72865
978.96        71.09849
979.35         72.4077
979.74        73.80149
980.12        74.87094
980.51        74.68277
980.89        73.28864
981.28        70.95367
981.66        68.67152
982.05        67.83868
982.43        68.61971
982.82        70.60429
983.20         73.0179
983.59        74.11592
983.97        73.48091
984.35        71.54839
984.74        69.19364
985.12        67.70193
985.51        67.44936
985.89        68.04268
986.28        69.06943
986.66        69.79526
987.04        69.81357
987.43        69.50197
987.81        68.89284
988.20        67.96793
988.58        66.67971
988.96        64.81517
989.35        62.70401
989.73        61.61227
990.12        62.13924
990.50        64.03475
990.88        66.16531
991.27        67.23192
991.65        67.22775
992.03        66.46188
992.42        65.65891
992.80        66.17793
993.18        68.30379
993.56        71.30021
993.95        74.18715
994.33        76.04583
994.71        76.52607
995.10        75.97816
995.48        74.79543
995.86        73.45817
996.24        72.18916
996.63        70.92798
997.01        69.60667
997.39        68.28721
997.77        67.17542
998.15        66.36195
998.54        66.19746
998.92        67.04398
999.30        68.99005
999.68        72.29945
1000.06        76.03059
1000.45        76.84323
1000.83        73.61888
1001.21        68.03247
1001.59        62.97947
1001.97        60.73668
1002.35        61.15113
1002.73        63.55714
1003.12        66.99779
1003.50        69.19547
1003.88        68.88969
1004.26        66.87325
1004.64         64.1497
1005.02        62.11193
1005.40        61.18816
1005.78        60.84735
1006.16        61.20415
1006.54        62.46357
1006.92        64.25126
1007.30        66.29353
1007.69        67.92773
1008.07        68.60474
1008.45        68.23242
1008.83        66.78053
1009.21        64.11095
1009.59        61.05247
1009.97        58.83466
1010.35        57.69448
1010.73        57.99776
1011.11        59.57164
1011.49        61.90741
1011.86        65.09096
1012.24        67.43134
1012.62         67.5424
1013.00        65.49188
1013.38        61.87511
1013.76        57.87939
1014.14        55.72183
1014.52        56.03734
1014.90        58.10073
1015.28        60.96953
1015.66        63.03775
1016.04        63.69374
1016.41        63.45122
1016.79        62.06664
1017.17         59.5617
1017.55        56.60464
1017.93        53.51335
1018.31        51.28061
1018.69        50.82223
1019.06        51.97242
1019.44        54.37011
1019.82        57.22079
1020.20        58.35311
1020.58        56.82685
1020.95        53.23809
1021.33        48.63009
1021.71        43.73779
1022.09        38.13464
1022.46        29.26766
1022.84        17.44304
1023.22        14.71834
1023.60        26.71497
1023.97        40.17217
1024.35        47.73465
1024.73        50.31986
