SpectraSmart Spectrum 2.9.0.0
--------- Device Information -----------
Spectrum Name :  反射率_0
Saving Time :  2024/04/20 00:55:44
Spectro-Module Model Name : SE2030-DUVN
Spectro-Module Serial Number : OS361AC55029948
Wavelength Start : 200
Wavelength End : 1025
Wavelength Unit : Wavelength(nm)
Spectrum Unit : Reflectance(%)
-----------Spectrum Setting ------------
Integration Time : 30ms
Average : 10
Boxcar : 0
Background removal :  enabled
linearity correction :  enabled
SC :  disabled
Intensity correction :  disabled
DWT denoise :  enabled
savitzky-golay :  disabled
FFT :  disabled
Running average :  disabled
Kalman :  disabled
High pass :  disabled
---------------BEGIN--------------------
Wavelength(nm)             Reflectance(%)
200.29               0
200.75         60.1219
201.21        60.72845
201.67        63.55861
202.13        69.31281
202.58        78.03206
203.04        89.92421
203.50        101.2479
203.96        103.0962
204.42        95.38235
204.88        84.01389
205.34        74.02201
205.80        67.45765
206.26        63.17815
206.72        59.69357
207.18        56.75467
207.64        55.39539
208.10        56.90881
208.55        61.27678
209.01        65.96808
209.47        69.71053
209.93        72.33856
210.39         73.8506
210.85        74.36238
211.31        74.13716
211.77         73.2524
212.23        71.71911
212.69        69.40176
213.14        67.13883
213.60        65.66212
214.06        65.32059
214.52        65.94972
214.98        67.51265
215.44        69.84448
215.90        72.80343
216.36        75.91689
216.81        77.63579
217.27        77.07439
217.73        74.99399
218.19         71.5622
218.65        66.74152
219.11        60.64918
219.57        53.10296
220.02        45.67653
220.48        43.00599
220.94         46.4252
221.40        55.11589
221.86        65.54671
222.32        72.25983
222.77        73.81035
223.23         71.7983
223.69        68.48821
224.15        67.27206
224.61        68.55436
225.06        70.80125
225.52        72.89497
225.98        73.97178
226.44        74.02277
226.90         73.5201
227.36        72.82931
227.81        72.37717
228.27        72.52576
228.73        72.88332
229.19        73.14425
229.65        72.97462
230.10        72.35884
230.56        71.65535
231.02        70.98329
231.48        70.54141
231.93        70.29926
232.39        70.17213
232.85        70.13737
233.31        70.23493
233.77        70.42786
234.22        70.72981
234.68        70.89867
235.14        70.42158
235.60        69.28206
236.05        67.70473
236.51        66.22167
236.97        65.62156
237.43        66.16367
237.88        67.98955
238.34        70.75019
238.80        73.51346
239.26        75.25599
239.71        75.89507
240.17        75.42632
240.63        74.68809
241.08        74.08895
241.54        73.35634
242.00        72.30116
242.46        70.39648
242.91        67.27197
243.37        62.29285
243.83        56.06634
244.28        53.21337
244.74        57.74662
245.20        68.31538
245.66        78.05623
246.11        81.52947
246.57         78.2466
247.03        68.43461
247.48        53.68118
247.94        46.83052
248.40        51.34567
248.85        58.74136
249.31        64.58193
249.77        67.75936
250.22        68.94659
250.68        69.22461
251.14        68.61595
251.59        66.83215
252.05        64.23478
252.51        61.07977
252.96        58.15699
253.42        57.14207
253.88         58.5139
254.33        61.64122
254.79        66.52417
255.25         72.8961
255.70        80.06768
256.16        87.31576
256.62        93.40702
257.07        97.02621
257.53        98.37506
257.99        97.90501
258.44        95.67043
258.90        92.85973
259.35        89.72856
259.81        87.30022
260.27        85.33109
260.72        83.55981
261.18        82.22227
261.63        80.77592
262.09        79.81413
262.55        79.51312
263.00        79.64166
263.46        80.19177
263.91        80.32001
264.37        79.50037
264.83        77.70005
265.28        75.16715
265.74        72.80275
266.19        71.29177
266.65        70.85491
267.11        71.04132
267.56        71.32941
268.02        70.99982
268.47        69.87619
268.93        68.24277
269.38        66.34959
269.84        64.81984
270.30        63.81823
270.75        63.15926
271.21        62.67165
271.66        62.06357
272.12        61.23778
272.57        60.26763
273.03        59.24793
273.48         58.2064
273.94        57.24738
274.39         56.3224
274.85        55.44948
275.31        54.57183
275.76        53.65095
276.22          52.729
276.67        51.86326
277.13        51.29277
277.58        50.94505
278.04        50.79837
278.49        50.53281
278.95        49.82273
279.40        48.58767
279.86          47.074
280.31        45.52588
280.77        44.48111
281.22        43.93632
281.68        43.77194
282.13        43.70081
282.59        43.37471
283.04        42.69851
283.50        41.85633
283.95        40.97909
284.41        40.32247
284.86         39.9039
285.32        39.65995
285.77        39.50152
286.22        39.38771
286.68        39.28766
287.13        39.18781
287.59        39.06437
288.04        38.81771
288.50        38.46909
288.95         38.0028
289.41        37.51997
289.86        37.09429
290.32        36.80458
290.77        36.61713
291.22        36.52446
291.68        36.47407
292.13        36.45113
292.59        36.49916
293.04        36.64819
293.50        36.97021
293.95        37.45631
294.40        38.06578
294.86        38.74372
295.31        39.41596
295.77        40.05704
296.22        40.68067
296.68         41.2821
297.13        41.83822
297.58         42.3562
298.04        42.84174
298.49        43.33321
298.95        43.93981
299.40        44.65751
299.85        45.45937
300.31        46.27178
300.76        46.95909
301.21        47.50449
301.67        47.99038
302.12          48.439
302.58         48.9694
303.03        49.57379
303.48         50.2296
303.94         50.9721
304.39        51.80386
304.84        52.71222
305.30        53.67376
305.75        54.54551
306.20        55.14806
306.66        55.47992
307.11        55.58032
307.57        55.60753
308.02        55.70654
308.47        55.95308
308.93        56.29535
309.38        56.68444
309.83        57.11296
310.29        57.54765
310.74         57.9822
311.19        58.32324
311.65         58.4142
312.10        58.22764
312.55        57.81778
313.00        57.33498
313.46        57.01451
313.91         56.8977
314.36        56.94014
314.82        57.03106
315.27        57.01522
315.72        56.83272
316.18         56.5519
316.63        56.22564
317.08         55.9543
317.53         55.7589
317.99        55.58913
318.44        55.40899
318.89        55.15178
319.35        54.80202
319.80        54.39342
320.25        53.95402
320.70        53.52754
321.16        53.12378
321.61        52.73721
322.06        52.36142
322.51         51.9924
322.97        51.61578
323.42        51.24482
323.87        50.85678
324.32        50.42211
324.78        49.92778
325.23        49.40187
325.68        48.85458
326.13        48.31819
326.59        47.80816
327.04        47.34732
327.49         46.9385
327.94        46.59158
328.39         46.2965
328.85        46.01641
329.30        45.77888
329.75        45.55595
330.20         45.3344
330.66        45.09894
331.11        44.83067
331.56        44.43345
332.01        43.89704
332.46        43.24656
332.92        42.57446
333.37        42.06855
333.82        41.77938
334.27        41.68161
334.72        41.68057
335.17        41.60422
335.63        41.38644
336.08        41.08363
336.53        40.78303
336.98         40.6527
337.43        40.72483
337.88        40.94013
338.34        41.13285
338.79         41.0888
339.24        40.74154
339.69        40.16202
340.14        39.54495
340.59        39.21597
341.05        39.24411
341.50        39.53291
341.95        39.88322
342.40        39.98673
342.85           39.77
343.30        39.34232
343.75        38.83508
344.20        38.46118
344.66        38.28397
345.11        38.20839
345.56        38.19811
346.01        38.19586
346.46        38.16533
346.91         38.1416
347.36        38.05645
347.81        37.79145
348.26        37.35053
348.72        36.79556
349.17        36.24516
349.62        35.97514
350.07         36.0436
350.52        36.35053
350.97        36.75417
351.42        37.03995
351.87        37.13485
352.32        37.09324
352.77        36.92556
353.22        36.65367
353.67        36.31093
354.13        35.91262
354.58        35.50273
355.03        35.19703
355.48        35.02828
355.93        34.98502
356.38        35.02618
356.83        35.07555
357.28        35.09652
357.73        35.08398
358.18         35.0469
358.63        35.00682
359.08        34.95962
359.53         34.8951
359.98        34.75396
360.43        34.44859
360.88         33.9847
361.33        33.41138
361.78        32.85524
362.23        32.51839
362.68        32.44457
363.13        32.56202
363.58        32.75425
364.03        32.83987
364.48        32.75577
364.93        32.54061
365.38        32.22406
365.83          31.866
366.28        31.50027
366.73        31.11592
367.18        30.72367
367.63        30.34264
368.08        29.98642
368.53         29.6699
368.98        29.40969
369.43        29.21566
369.88        29.08432
370.33        29.01026
370.78        28.96109
371.23        28.88548
371.68        28.76865
372.13        28.61459
372.58        28.45936
373.03        28.37082
373.48        28.35707
373.93        28.38551
374.38        28.40224
374.83         28.3266
375.28        28.13918
375.72        27.85972
376.17        27.54407
376.62        27.24046
377.07        26.97986
377.52        26.75671
377.97        26.58026
378.42        26.46219
378.87        26.39667
379.32        26.37511
379.77        26.37929
380.22        26.37749
380.67        26.35711
381.11        26.32751
381.56        26.26141
382.01        26.14008
382.46        25.96375
382.91        25.73215
383.36        25.50092
383.81        25.35352
384.26        25.30429
384.71        25.34225
385.15        25.37633
385.60        25.27296
386.05        25.01079
386.50        24.63229
386.95        24.27243
387.40          24.143
387.85        24.27576
388.29         24.5864
388.74        24.91477
389.19        25.01838
389.64         24.8501
390.09        24.47514
390.54        24.04299
390.98        23.78623
391.43        23.77808
391.88        23.92765
392.33        24.08094
392.78         24.0175
393.23        23.71562
393.67         23.2571
394.12         22.8245
394.57        22.58574
395.02        22.57456
395.47        22.72687
395.91        22.94728
396.36        23.04463
396.81         22.9729
397.26        22.78624
397.71        22.57558
398.15        22.45831
398.60        22.48403
399.05        22.58921
399.50        22.69573
399.95        22.69588
400.39        22.56649
400.84        22.34099
401.29        22.09002
401.74        21.94321
402.18        21.94399
402.63        22.04393
403.08        22.16055
403.53        22.15648
403.97        22.00265
404.42        21.75852
404.87        21.50672
405.32        21.38341
405.76        21.41815
406.21        21.55963
406.66        21.73785
407.11        21.84488
407.55        21.85043
408.00        21.79286
408.45         21.6955
408.90         21.5438
409.34        21.37856
409.79        21.30431
410.24        21.29493
410.68        21.21858
411.13        21.07547
411.58        20.94737
412.03        20.84796
412.47        20.77111
412.92        20.71935
413.37        20.68818
413.81        20.69308
414.26        20.77187
414.71        20.91559
415.15        21.11912
415.60        21.29411
416.05        21.32765
416.49        21.19386
416.94        20.92881
417.39        20.63171
417.83        20.46461
418.28         20.4722
418.73        20.59945
419.17        20.75722
419.62        20.79592
420.07        20.68554
420.51        20.47912
420.96        20.24922
421.41        20.08448
421.85        20.00645
422.30        19.99718
422.74        20.02599
423.19        20.08238
423.64        20.14489
424.08        20.22742
424.53        20.29481
424.98        20.31678
425.42         20.2905
425.87        20.22645
426.31        20.13415
426.76        20.04021
427.21        19.94309
427.65        19.82619
428.10        19.73546
428.54        19.71951
428.99        19.78741
429.44        20.00953
429.88        20.23968
430.33        20.11797
430.77        19.70849
431.22        19.42954
431.66        19.36019
432.11        19.39938
432.56        19.53142
433.00        19.83454
433.45        20.10457
433.89        20.04113
434.34        19.76688
434.78        19.48184
435.23        19.16754
435.67         20.1047
436.12        19.48009
436.57        19.38695
437.01        19.08369
437.46        18.95131
437.90        19.01163
438.35        19.09745
438.79        19.15858
439.24        19.19826
439.68        19.20156
440.13        19.01331
440.57        18.75553
441.02        18.92779
441.46        19.35439
441.91        19.43167
442.35        18.69806
442.80         18.4499
443.24         18.4991
443.69        18.44103
444.13        18.26331
444.58        18.15353
445.02        18.12571
445.47        18.17688
445.91        18.26131
446.36        18.26227
446.80        18.15738
447.24        18.00528
447.69        17.85248
448.13        17.73119
448.58        17.66394
449.02         17.6364
449.47        17.62721
449.91        17.59486
450.36        17.53633
450.80        17.46381
451.25        17.40696
451.69        17.39145
452.13        17.42697
452.58        17.49226
453.02        17.56946
453.47        17.63497
453.91        17.67982
454.36         17.7081
454.80        17.71133
455.24        17.67536
455.69        17.60927
456.13        17.50137
456.58        17.39391
457.02         17.3396
457.46        17.34487
457.91        17.35529
458.35        17.35194
458.79        17.34918
459.24         17.3369
459.68         17.3161
460.13        17.33754
460.57        17.31422
461.01        17.23116
461.46         17.5587
461.90         17.6122
462.34         17.4075
462.79         17.5253
463.23        17.37667
463.68         17.2484
464.12        17.14841
464.56        17.22783
465.01        17.35678
465.45        17.48162
465.89        17.54159
466.34        17.52943
466.78        17.40767
467.22        17.24907
467.67        17.29411
468.11        17.51063
468.55        17.54511
468.99        17.40632
469.44        17.39423
469.88        17.51547
470.32        17.59461
470.77        17.60694
471.21        17.60398
471.65        17.58465
472.10        17.53589
472.54        17.48072
472.98        17.49423
473.42        17.58285
473.87        17.67414
474.31        17.74415
474.75        17.86371
475.20        17.98773
475.64        17.93338
476.08        17.76471
476.52        17.73715
476.97        17.86909
477.41        18.04486
477.85        18.20609
478.29         18.3116
478.74        18.34375
479.18        18.28145
479.62         18.2026
480.06        18.23426
480.50        18.37445
480.95        18.50291
481.39        18.57008
481.83        18.58569
482.27        18.54552
482.72        18.45414
483.16        18.36725
483.60        18.35867
484.04        18.43197
484.48        18.66426
484.93        19.08398
485.37        19.18831
485.81        19.16095
486.25        19.83495
486.69        20.79172
487.14        19.91051
487.58        19.47449
488.02        20.36226
488.46        19.76332
488.90        19.96911
489.34        19.87342
489.79        20.13712
490.23        20.61488
490.67        20.82306
491.11        20.77431
491.55        20.70389
491.99        20.68237
492.43        20.70325
492.88        20.79871
493.32        20.97306
493.76        21.20648
494.20        21.45783
494.64        21.71107
495.08        21.97545
495.52        22.23092
495.96        22.45103
496.41        22.64063
496.85        22.78643
497.29          22.905
497.73         23.1107
498.17         23.3747
498.61        23.47247
499.05        23.44129
499.49        23.57045
499.93          23.882
500.37        24.16225
500.82        24.38263
501.26        24.69965
501.70        25.04234
502.14        25.08894
502.58        24.90834
503.02         24.8949
503.46        25.08334
503.90        25.27324
504.34        25.41279
504.78        25.50333
505.22        25.53042
505.66        25.50647
506.10        25.47098
506.54        25.48199
506.98        25.55919
507.42        25.68929
507.86        25.85427
508.30        26.02344
508.74        26.18118
509.18        26.32878
509.62        26.47126
510.06        26.61634
510.50        26.76418
510.94        26.91258
511.38        27.03273
511.82         27.0818
512.26        27.05579
512.70        26.96763
513.14        26.87887
513.58        26.88151
514.02        26.98641
514.46        27.17064
514.90        27.36094
515.34        27.37208
515.78        27.22627
516.22        27.02172
516.66        26.86285
517.10        26.58589
517.54        26.22014
517.98        26.79116
518.42        26.72759
518.86        26.99268
519.30        27.09803
519.74        27.20484
520.18        27.28569
520.62        27.27743
521.06        27.19363
521.50        27.03332
521.93         26.8459
522.37        26.72308
522.81        26.68567
523.25        26.71398
523.69        26.76179
524.13        26.75334
524.57        26.66962
525.01        26.53245
525.45        26.38252
525.89        26.28362
526.32        26.24978
526.76        26.26192
527.20        26.27498
527.64        26.22289
528.08        26.09087
528.52        25.89921
528.96        25.69942
529.40         25.5677
529.83         25.5188
530.27        25.53586
530.71         25.5581
531.15        25.49244
531.59        25.32471
532.03        25.09039
532.46        24.85919
532.90         24.7575
533.34        24.80039
533.78        24.94008
534.22        25.10587
534.66        25.19076
535.09         25.1611
535.53        25.05924
535.97        24.91522
536.41        24.77332
536.85        24.65599
537.28        24.56458
537.72        24.51492
538.16        24.45737
538.60        24.51195
539.04        24.57129
539.47        24.64665
539.91        24.76291
540.35        24.92821
540.79        24.92257
541.22        25.06785
541.66        25.18752
542.10        25.39815
542.54        25.28961
542.97        25.53488
543.41         25.6698
543.85        25.87706
544.29        26.08623
544.72        26.26473
545.16        26.43909
545.60        26.59809
546.04         26.6567
546.47        26.69043
546.91        26.98608
547.35        27.47666
547.79        27.81072
548.22        27.95147
548.66        28.03278
549.10         28.1107
549.53        28.37162
549.97        28.81629
550.41        28.91938
550.84        29.20542
551.28        29.38864
551.72        29.65227
552.15        29.93046
552.59         30.2237
553.03        30.53338
553.46        30.80475
553.90        30.98925
554.34        31.07751
554.77        31.08905
555.21        31.08463
555.65        31.14658
556.08        31.29016
556.52         31.4866
556.96        31.69678
557.39        31.89832
557.83        32.06503
558.27        32.13238
558.70        32.12635
559.14        32.15393
559.57        32.21863
560.01        32.30707
560.45        32.39677
560.88        32.40795
561.32        32.40084
561.75        32.48343
562.19        32.75558
562.63        32.86855
563.06        32.86091
563.50        32.91809
563.93        33.03656
564.37        33.19789
564.80        33.25303
565.24         33.3863
565.68        33.52084
566.11        33.65485
566.55        33.81543
566.98        33.87042
567.42        33.84414
567.85        34.37677
568.29        34.49989
568.72        34.85786
569.16        35.14724
569.60        35.44215
570.03        35.69877
570.47        35.93064
570.90        35.95796
571.34        36.38784
571.77        36.08506
572.21        36.60568
572.64        36.79925
573.08        37.16036
573.51        37.09024
573.95        37.76632
574.38        38.09822
574.82        38.52983
575.25        38.70472
575.69        38.47659
576.12        38.17268
576.56         38.0265
576.99        38.17709
577.42         38.5171
577.86        38.44328
578.29        38.60455
578.73        39.18757
579.16        38.70927
579.60        38.27008
580.03        38.07814
580.47        38.19723
580.90        37.67922
581.33        37.59362
581.77        37.74212
582.20        38.45977
582.64        37.94346
583.07        37.41719
583.51        37.35766
583.94        36.53331
584.37        36.43321
584.81        36.15163
585.24        36.16843
585.68        36.21489
586.11        36.03849
586.54        36.00145
586.98        35.56926
587.41        35.55209
587.85        35.59337
588.28        35.76924
588.71        35.64231
589.15        35.30837
589.58        34.67498
590.01        34.96357
590.45        35.20587
590.88        35.03096
591.31        35.01061
591.75        34.66782
592.18        34.80523
592.61        34.54914
593.05        35.04444
593.48        35.18879
593.91        35.71009
594.35        35.26266
594.78        35.42292
595.21        35.74641
595.65        36.20304
596.08        36.08717
596.51        36.14205
596.94        36.27194
597.38        36.41711
597.81        36.62154
598.24        36.89887
598.68        37.72383
599.11         37.5979
599.54        38.99712
599.97        38.90827
600.41        39.10266
600.84        39.65326
601.27        40.32835
601.70        40.67411
602.14        40.99493
602.57        41.46297
603.00        42.19928
603.43        42.81018
603.87        43.10301
604.30        43.65808
604.73        44.45303
605.16        44.45847
605.60        44.92724
606.03        45.52734
606.46        46.42907
606.89        47.04098
607.32        47.39613
607.76        47.53674
608.19        48.06635
608.62         48.7396
609.05         48.9223
609.48        49.26366
609.92        49.63512
610.35          49.505
610.78        50.88754
611.21        51.45573
611.64        51.29821
612.07        51.77557
612.50        52.18284
612.94        52.14336
613.37        52.64345
613.80        53.08049
614.23        53.48603
614.66        53.64979
615.09        54.15202
615.52        54.54701
615.96        54.93728
616.39        55.23768
616.82        55.51403
617.25        55.45937
617.68          55.674
618.11        56.30189
618.54        56.73192
618.97         56.7974
619.40        56.41196
619.84        56.25638
620.27        56.10118
620.70        56.71995
621.13        57.74385
621.56        57.91721
621.99        57.39815
622.42        57.37144
622.85        57.92731
623.28        58.08954
623.71         57.8531
624.14        58.18799
624.57        58.08144
625.00        58.09156
625.43        58.33306
625.86        57.37708
626.29        57.54289
626.72        57.21765
627.15        57.08622
627.58        57.03471
628.01        57.01218
628.44         56.8933
628.87        56.62298
629.30        56.23961
629.73         55.9114
630.16        55.37988
630.59        55.24604
631.02        54.84427
631.45        54.33072
631.88         53.9596
632.31         53.4634
632.74        52.98421
633.17        52.43538
633.60        51.86437
634.03        51.27686
634.46        50.67173
634.89        50.06775
635.32         49.4848
635.75        48.93412
636.18        48.42135
636.61        47.93521
637.04        47.45016
637.47        46.95649
637.89        46.45994
638.32        45.97017
638.75        45.53436
639.18         45.1638
639.61        44.85115
640.04        44.55427
640.47        44.20234
640.90        43.78502
641.33         43.3289
641.76        42.89738
642.18        42.59718
642.61        42.44573
643.04        42.41171
643.47        42.44061
643.90        42.44032
644.33        42.38702
644.76         42.3176
645.18        42.25837
645.61        42.25235
646.04        42.31775
646.47        42.43387
646.90        42.62249
647.33         42.9224
647.75         43.3301
648.18        43.82722
648.61        44.34797
649.04        44.78688
649.47        45.13401
649.89        45.40915
650.32        45.68412
650.75        46.15469
651.18        46.83786
651.61        47.46264
652.03        48.06127
652.46        49.03495
652.89         50.2555
653.32        50.92696
653.74        51.14145
654.17        51.66863
654.60        52.45254
655.03        53.55859
655.46        52.92527
655.88        55.56554
656.31         57.0391
656.74        67.11098
657.16        63.31486
657.59        58.12306
658.02        58.31645
658.45        58.58148
658.87        59.07912
659.30        59.98845
659.73         60.7252
660.15        61.64735
660.58        61.55978
661.01        61.42448
661.44        61.17882
661.86        61.41964
662.29        62.12985
662.72        62.96333
663.14        63.69954
663.57        63.81684
664.00        63.48962
664.42        63.57304
664.85        64.14295
665.27        64.62807
665.70        64.93398
666.13        65.22491
666.55        65.48446
666.98        65.65744
667.41        65.77345
667.83        65.88064
668.26        65.98835
668.69        66.10229
669.11        66.22808
669.54        66.36021
669.96        66.50223
670.39        66.68015
670.82        66.89863
671.24        67.08722
671.67        67.26765
672.09        67.57495
672.52        67.93779
672.94        68.13049
673.37        68.12434
673.80        67.94282
674.22        67.70587
674.65        67.63212
675.07        67.77569
675.50        68.04366
675.92        68.35361
676.35        68.51211
676.77        68.47623
677.20        68.49715
677.62        68.30586
678.05        68.28307
678.47        68.35386
678.90        68.49249
679.32        68.68372
679.75         68.8743
680.17        69.03363
680.60          69.279
681.02        69.57903
681.45        69.48889
681.87        69.34141
682.30        69.49282
682.72        69.92619
683.15        69.98163
683.57        69.74121
684.00        69.63676
684.42        69.73508
684.85        70.36831
685.27        70.09484
685.70        70.30474
686.12         70.5324
686.54         70.7233
686.97        70.85286
687.39        70.82677
687.82        70.85129
688.24        70.87017
688.66        70.92265
689.09         70.8506
689.51        70.68574
689.94         70.6222
690.36        70.70665
690.78        70.70135
691.21        70.62917
691.63        70.96706
692.06         71.6349
692.48        71.50675
692.90        71.29676
693.33        71.59534
693.75           71.41
694.17         71.4599
694.60        71.38828
695.02        71.25425
695.44        71.08811
695.87        71.12733
696.29        71.66434
696.71        71.38773
697.14        70.69664
697.56        71.04828
697.98        72.20126
698.41        72.97018
698.83        72.51204
699.25        72.24895
699.68        72.08582
700.10        72.10237
700.52        71.99058
700.94        72.09093
701.37         72.2224
701.79        72.31599
702.21         72.3191
702.64        72.26069
703.06        72.20677
703.48        72.26566
703.90        72.45808
704.33        72.73428
704.75        73.00081
705.17         73.0753
705.59        72.92312
706.01        72.60628
706.44        72.27492
706.86        72.16838
707.28        72.33419
707.70        72.69017
708.12        73.10873
708.55         73.3829
708.97        73.45534
709.39        73.39881
709.81        73.27078
710.23        73.17296
710.66        73.14852
711.08        73.16871
711.50        73.22341
711.92        73.30671
712.34        73.41032
712.76        73.56853
713.19        73.74479
713.61        73.80372
714.03        73.91507
714.45        73.91969
714.87        73.91857
715.29        73.97107
715.71        74.09129
716.13        74.25799
716.56        74.41136
716.98        74.54268
717.40        74.60758
717.82        74.61989
718.24        74.60836
718.66        74.62001
719.08        74.66567
719.50        74.72674
719.92        74.77895
720.34        74.78349
720.76        74.73238
721.19        74.63976
721.61        74.53949
722.03        74.44521
722.45        74.39291
722.87         74.3681
723.29        74.38055
723.71        74.43232
724.13        74.52567
724.55        74.66211
724.97          74.841
725.39        75.05958
725.81        75.30365
726.23        75.55277
726.65        75.78949
727.07        75.99543
727.49         76.1609
727.91        76.28838
728.33        76.36023
728.75         76.3504
729.17        76.26577
729.59        76.12661
730.01        75.98653
730.43         75.9268
730.85        75.96728
731.27         76.0845
731.69        76.24144
732.10        76.38526
732.52        76.48034
732.94        76.54007
733.36         76.5574
733.78        76.53288
734.20        76.50713
734.62        76.43188
735.04        76.29491
735.46        76.32164
735.88        76.55351
736.30        75.96539
736.72        76.35911
737.13        76.39672
737.55        76.53342
737.97        77.03651
738.39        77.66163
738.81        77.29955
739.23        76.20896
739.65        76.05284
740.06        76.76097
740.48        77.23409
740.90        77.29518
741.32         76.6692
741.74        76.34767
742.16        76.16621
742.57        76.45231
742.99        76.77589
743.41        77.03262
743.83        77.22465
744.25        77.29678
744.67          77.234
745.08        77.09772
745.50        76.97036
745.92        76.89603
746.34        76.83976
746.75        76.79146
747.17        76.74068
747.59        76.69672
748.01         76.6925
748.42        76.71825
748.84        76.78848
749.26         76.9248
749.68         76.8704
750.09        76.72185
750.51        77.19088
750.93        78.01867
751.35        77.92484
751.76        77.04305
752.18        76.67735
752.60        76.88954
753.01        76.96034
753.43        76.86091
753.85        76.92538
754.27        77.14598
754.68         77.4966
755.10        77.86237
755.52        77.92884
755.93        77.69445
756.35        77.63816
756.77        77.47417
757.18        77.52357
757.60        77.74721
758.02        78.08228
758.43        78.33044
758.85        78.71618
759.26        78.91862
759.68        78.11478
760.10        77.84785
760.51        77.93744
760.93        78.11315
761.34        77.64472
761.76        77.48672
762.18        77.12484
762.59        77.00058
763.01        76.98072
763.42        77.14911
763.84        77.57477
764.26        78.13129
764.67         78.2127
765.09        77.98997
765.50        78.23103
765.92        78.84676
766.33        79.11977
766.75        78.87656
767.16        78.26634
767.58        77.48843
768.00        77.05218
768.41        77.14516
768.83         77.6692
769.24        78.39719
769.66        78.88823
770.07        79.00921
770.49        78.85575
770.90        78.59207
771.32        78.62629
771.73        78.92461
772.15        78.98659
772.56        78.76656
772.97         78.4776
773.39        78.15481
773.80        77.87407
774.22        77.64564
774.63        77.43924
775.05         77.3101
775.46        77.34923
775.88        77.57436
776.29        78.13721
776.70        78.80532
777.12        79.06301
777.53        78.83646
777.95        78.29709
778.36        77.70126
778.77        77.44451
779.19         77.6348
779.60        78.20339
780.02        78.85229
780.43        79.27367
780.84        79.36749
781.26        78.86304
781.67        78.13335
782.09        78.66258
782.50        80.10066
782.91          80.243
783.33        79.14564
783.74        78.76391
784.15          79.154
784.57        79.21426
784.98        78.89291
785.39        78.55486
785.81        78.26434
786.22        78.10678
786.63        78.10497
787.04        78.15627
787.46        78.27254
787.87        78.50191
788.28        78.78571
788.70        79.07424
789.11        79.34752
789.52         79.1525
789.93        79.34068
790.35        79.33076
790.76         79.3638
791.17        79.31884
791.58        79.19839
792.00        78.98665
792.41        78.70958
792.82          78.575
793.23        78.55026
793.65        78.22159
794.06        77.83286
794.47        78.16734
794.88         79.0144
795.29         79.9952
795.71        80.03545
796.12        79.72305
796.53        80.12692
796.94        79.46448
797.35        78.41811
797.76        78.17179
798.18        78.70617
798.59        78.91891
799.00         78.7225
799.41        78.80441
799.82        79.13377
800.23        79.32475
800.64        79.33495
801.06        79.21245
801.47         79.0694
801.88        79.03976
802.29        79.14841
802.70        79.32059
803.11        79.46074
803.52        79.42596
803.93        79.20669
804.34         78.8847
804.75        78.53671
805.17        78.36258
805.58        78.43245
805.99        78.41084
806.40        78.39733
806.81        79.15435
807.22        80.21368
807.63        80.59458
808.04        78.98253
808.45        78.63086
808.86        79.30795
809.27         80.2515
809.68        81.11863
810.09        81.53265
810.50        81.34841
810.91        80.79755
811.32        80.12791
811.73         79.5745
812.14        79.23793
812.55        79.19317
812.96        79.32763
813.37        79.11037
813.78        78.64445
814.19        78.74457
814.60        79.29589
815.01        79.49554
815.42        79.29605
815.83        79.09093
816.24        78.99731
816.65        79.03754
817.05        79.25588
817.46        79.60031
817.87        79.93515
818.28        79.99803
818.69        79.75922
819.10        79.30489
819.51        78.82815
819.92        78.74698
820.33        79.17348
820.74          79.758
821.14        80.37129
821.55        81.25368
821.96         82.0972
822.37        81.89483
822.78        80.84055
823.19        80.23787
823.60        80.24416
824.00        80.18517
824.41        79.96706
824.82        79.87399
825.23        79.90098
825.64        80.00513
826.04         80.1711
826.45         80.3093
826.86        80.40269
827.27         80.4576
827.68         80.4815
828.08        80.51973
828.49        80.52185
828.90        80.50896
829.31        80.46262
829.72        80.35809
830.12        80.21621
830.53        80.01627
830.94        79.82018
831.35        79.68138
831.75        79.63731
832.16        79.64201
832.57        79.67288
832.97        79.66357
833.38        79.57722
833.79        79.43058
834.20        79.29874
834.60        79.29112
835.01         79.4413
835.42        79.72412
835.82        80.01932
836.23        80.06842
836.64         79.8438
837.04        79.41185
837.45        78.97772
837.86        78.92234
838.26        79.34087
838.67        80.09134
839.08        80.89664
839.48        81.23415
839.89        80.96378
840.29         80.2804
840.70        79.54492
841.11        79.20518
841.51        79.38722
841.92        79.88818
842.33        80.57677
842.73        81.23213
843.14        81.64336
843.54        81.94551
843.95        82.03362
844.35        81.82147
844.76        81.34441
845.17        80.66264
845.57        79.97527
845.98        79.62305
846.38        79.68161
846.79         80.0543
847.19        80.67437
847.60        81.24876
848.00        81.71247
848.41          82.054
848.81        82.30218
849.22        82.42485
849.62        82.47523
850.03        82.39207
850.43        82.25294
850.84        82.09508
851.24         82.0142
851.65        81.95525
852.05        81.97968
852.46        82.07825
852.86        82.24275
853.27        82.39999
853.67        82.46004
854.07        82.62597
854.48        82.76447
854.88        82.46725
855.29         81.7799
855.69        81.36822
856.10        81.24167
856.50         81.1901
856.90        81.12276
857.31         81.0553
857.71        81.03992
858.12        81.00826
858.52        81.03228
858.92        81.10403
859.33        81.20001
859.73        81.36261
860.13        81.53024
860.54        81.60751
860.94        81.63103
861.34        81.56217
861.75        81.42756
862.15        81.38346
862.55        81.41645
862.96        81.51919
863.36        81.60268
863.76         81.4779
864.17         81.1229
864.57         80.6403
864.97        80.20935
865.38        80.08266
865.78         80.3615
866.18        80.88566
866.58        81.47313
866.99         81.8008
867.39        81.80059
867.79        81.54027
868.19        81.00005
868.60        80.13247
869.00         78.9601
869.40        77.54513
869.80         76.2618
870.21        75.73354
870.61        76.15768
871.01        77.31778
871.41        78.69387
871.81        79.43991
872.22        79.35659
872.62        78.68968
873.02        77.79409
873.42        77.41385
873.82        77.58285
874.22        77.71056
874.63         77.7952
875.03        77.94933
875.43        78.10458
875.83        78.98642
876.23        78.58311
876.63        78.06955
877.03        77.12582
877.44        75.79507
877.84         122.057
878.24        76.50252
878.64        77.26657
879.04        79.72527
879.44        76.78893
879.84        74.99364
880.24         78.1482
880.64        78.23866
881.04        76.00983
881.44        74.67104
881.84         74.7052
882.24        75.60894
882.65        76.82124
883.05         77.3255
883.45        76.78469
883.85        75.75715
884.25        74.77596
884.65        74.42226
885.05        74.85229
885.45        75.85979
885.85        77.02876
886.25         77.6776
886.65        77.60361
887.05        77.01828
887.45        76.28995
887.85        75.96413
888.25        76.18604
888.65        76.80423
889.04        77.54893
889.44        77.87894
889.84        77.68694
890.24        77.13039
890.64         76.5303
891.04        76.36346
891.44         76.6873
891.84        77.28631
892.24          77.829
892.64        77.76397
893.04        76.99731
893.44        75.84755
893.83        74.52317
894.23        73.32955
894.63        72.37778
895.03        71.57246
895.43        71.14871
895.83        71.50231
896.23        72.63495
896.63        74.40673
897.02        76.26165
897.42        77.17287
897.82        76.89079
898.22        75.70435
898.62        74.14816
899.01        73.07273
899.41         72.7647
899.81        72.96291
900.21        73.48148
900.61        74.03647
901.00        74.49648
901.40        74.92822
901.80        75.31498
902.20        75.58474
902.59        75.72635
902.99        75.73023
903.39        75.54034
903.79         75.0979
904.18        74.43815
904.58        73.65359
904.98        73.02435
905.38        72.97275
905.77        73.53841
906.17        74.58701
906.57        75.72324
906.96        76.34336
907.36         76.2603
907.76        75.64086
908.15        74.83064
908.55          74.338
908.95        74.32718
909.34        74.67913
909.74        75.09634
910.14         75.0715
910.53        74.47774
910.93        73.55249
911.33        72.70217
911.72        72.55977
912.12        73.21351
912.52        74.38307
912.91        75.62825
913.31        76.19337
913.70        75.95196
914.10        75.11265
914.49        73.95488
914.89        73.11126
915.29        72.83247
915.68        72.93459
916.08        73.31738
916.47        73.81771
916.87        74.32082
917.26        74.85114
917.66        75.29134
918.05        75.48595
918.45        75.37666
918.84        75.05183
919.24        74.49328
919.64        73.70422
920.03        72.77064
920.42        71.75597
920.82        71.02555
921.21        71.07177
921.61         71.9043
922.00        73.40218
922.40        74.99234
922.79        75.97007
923.19        76.09866
923.58        75.37584
923.98        74.09905
924.37        73.39912
924.77        73.73133
925.16        72.05472
925.55         73.2913
925.95        73.05339
926.34        72.82462
926.74        72.55614
927.13        72.49337
927.52        72.79748
927.92        73.43883
928.31        74.41144
928.70        75.38393
929.10        75.80875
929.49        75.54709
929.89        74.74422
930.28         73.8359
930.67        73.53118
931.07        73.96558
931.46        74.95715
931.85        76.05859
932.24        76.61275
932.64        76.44002
933.03        75.66481
933.42        74.58199
933.82        73.81717
934.21        73.56479
934.60        73.67857
934.99        73.70776
935.39        73.24605
935.78        72.25027
936.17        70.39282
936.56        67.94077
936.96        68.82148
937.35         68.4722
937.74        70.35217
938.13        72.28699
938.53        73.63338
938.92        74.31197
939.31        74.56121
939.70        74.51561
940.09        74.29912
940.49        74.03551
940.88        73.71674
941.27        73.48175
941.66         73.5768
942.05        74.01765
942.44        74.71301
942.84        75.54313
943.23        76.30096
943.62        76.86018
944.01        77.29961
944.40        77.44462
944.79        77.03207
945.18        76.04966
945.57        74.52178
945.97        72.98465
946.36        72.38538
946.75        73.00143
947.14         74.5164
947.53        76.15369
947.92        76.82666
948.31        76.34991
948.70        75.06017
949.09        73.49944
949.48        72.62421
949.87        72.72844
950.26        73.49087
950.65        74.52399
951.04        75.19312
951.43        75.27656
951.82        74.99519
952.21        74.48835
952.60        73.96034
952.99         73.5121
953.38        73.05847
953.77        72.65715
954.16        72.42319
954.55        72.37024
954.94        72.50828
955.33        72.72677
955.72        72.80796
956.11        72.70962
956.50          72.492
956.89        72.28551
957.28        72.34527
957.66        72.73328
958.05        73.24797
958.44        73.78129
958.83        74.20538
959.22        74.46895
959.61        74.62176
960.00        74.54014
960.39        74.01618
960.78        73.07024
961.16        71.79118
961.55        70.55742
961.94        69.81216
962.33        69.66177
962.72        70.00376
963.11        70.59078
963.49        70.99262
963.88        70.97968
964.27         70.6935
964.66         70.3134
965.04        70.15068
965.43        70.27991
965.82         70.6085
966.21         70.9657
966.60        71.08776
966.98        70.93809
967.37         70.5977
967.76        70.30685
968.15        70.42072
968.53        71.01115
968.92        71.84927
969.31        72.70622
969.69        73.20158
970.08        73.15884
970.47        72.74619
970.86        72.01472
971.24        71.02241
971.63        69.91739
972.02        68.72134
972.40        67.68331
972.79         67.2401
973.17        67.51955
973.56        68.33052
973.95        69.46673
974.33        70.50858
974.72         71.1489
975.11        71.47846
975.49        71.43616
975.88        70.94859
976.26        70.08582
976.65        68.92773
977.04        67.68916
977.42        66.77497
977.81        66.32655
978.19         66.2234
978.58        66.47434
978.96        67.07885
979.35         67.8872
979.74        69.00761
980.12        70.03065
980.51        69.99037
980.89        68.89111
981.28        66.98809
981.66        65.19345
982.05        64.80158
982.43        65.95291
982.82        68.21751
983.20        70.83792
983.59        72.11568
983.97         71.6293
984.35        69.80613
984.74        67.45702
985.12        65.76074
985.51         65.0912
985.89         65.0946
986.28         65.5311
986.66        66.00275
987.04        66.22015
987.43        66.42464
987.81        66.43467
988.20        65.98743
988.58        64.97832
988.96        63.22478
989.35        61.05049
989.73        59.72844
990.12        59.90791
990.50        61.38837
990.88        63.02958
991.27        63.44252
991.65        62.61182
992.03        60.88203
992.42        59.21104
992.80        59.41218
993.18         61.9046
993.56        65.74445
993.95         69.6228
994.33        72.19291
994.71         73.0022
995.10        72.52686
995.48        71.25981
995.86        69.84743
996.24        68.56473
996.63        67.26206
997.01        65.90606
997.39        64.66966
997.77        63.77246
998.15         63.3176
998.54        63.42538
998.92        64.17049
999.30        65.56973
999.68        67.79269
1000.06        70.18941
1000.45        70.55674
1000.83        68.21606
1001.21        64.28388
1001.59        60.63034
1001.97        58.65207
1002.35        58.19434
1002.73        58.78409
1003.12         59.9202
1003.50         60.5784
1003.88        60.19407
1004.26        59.24051
1004.64        58.03207
1005.02        56.93123
1005.40        56.11251
1005.78        55.36922
1006.16        55.13096
1006.54        56.23667
1006.92        58.44073
1007.30        61.01975
1007.69        63.16283
1008.07        64.28302
1008.45        64.27825
1008.83        63.32233
1009.21        60.87844
1009.59        56.46878
1009.97        50.74301
1010.35        44.56897
1010.73        40.72922
1011.11        41.65841
1011.49        46.71377
1011.86        54.83093
1012.24        62.28051
1012.62        65.32603
1013.00        63.73835
1013.38        58.91411
1013.76        52.93002
1014.14        49.50404
1014.52        49.75383
1014.90        52.46237
1015.28        56.09485
1015.66        58.07248
1016.04        57.47379
1016.41        55.17519
1016.79         51.5209
1017.17         47.7951
1017.55        45.21556
1017.93        43.45082
1018.31        42.89876
1018.69        44.09192
1019.06        46.75377
1019.44        50.60738
1019.82        54.62027
1020.20        55.89302
1020.58        53.19816
1020.95         47.4547
1021.33        39.91997
1021.71        31.19138
1022.09        20.13503
1022.46         1.90592
1022.84       -23.34664
1023.22       -29.90924
1023.60       -5.062011
1023.97        22.88408
1024.35        38.95355
1024.73        44.84871
