SpectraSmart Spectrum 2.9.0.0
--------- Device Information -----------
Spectrum Name :  反射率_0
Saving Time :  2024/04/20 00:37:09
Spectro-Module Model Name : SE2030-DUVN
Spectro-Module Serial Number : OS361AC55029948
Wavelength Start : 200
Wavelength End : 1025
Wavelength Unit : Wavelength(nm)
Spectrum Unit : Reflectance(%)
-----------Spectrum Setting ------------
Integration Time : 30ms
Average : 10
Boxcar : 0
Background removal :  enabled
linearity correction :  enabled
SC :  disabled
Intensity correction :  disabled
DWT denoise :  enabled
savitzky-golay :  disabled
FFT :  disabled
Running average :  disabled
Kalman :  disabled
High pass :  disabled
---------------BEGIN--------------------
Wavelength(nm)             Reflectance(%)
200.29               0
200.75        58.49046
201.21        59.34344
201.67        62.95983
202.13        69.04427
202.58        77.14466
203.04        87.52476
203.50        97.56369
203.96        100.6058
204.42        96.15607
204.88         88.3227
205.34        80.82417
205.80        75.20828
206.26        70.51528
206.72        65.14172
207.18        58.82782
207.64        54.51082
208.10        55.65496
208.55        61.90158
209.01        68.36652
209.47         71.2485
209.93        70.72242
210.39        68.19598
210.85        65.07097
211.31        62.83834
211.77        61.64145
212.23        60.84976
212.69        60.41267
213.14        60.58681
213.60        60.95603
214.06        61.96756
214.52        63.07907
214.98        64.02862
215.44        64.93242
215.90        65.65168
216.36        66.80755
216.81        69.44278
217.27        73.30223
217.73        77.87873
218.19        81.29779
218.65        81.16151
219.11         77.1772
219.57        69.59906
220.02         60.5205
220.48         55.8725
220.94         57.7161
221.40        65.01366
221.86        74.07468
222.32        79.07603
222.77        78.64721
223.23        74.86188
223.69        70.57937
224.15        69.82917
224.61        72.65221
225.06        76.73244
225.52        80.35829
225.98        82.15332
226.44        82.12241
226.90        80.99313
227.36        79.16695
227.81        77.23579
228.27         75.8768
228.73        74.81659
229.19        74.16262
229.65        74.01526
230.10        74.22108
230.56        74.85168
231.02        75.55392
231.48        75.95608
231.93        75.95586
232.39        75.65666
232.85        75.26074
233.31        75.16911
233.77        75.42709
234.22        75.91503
234.68        76.23434
235.14        75.62262
235.60         74.0151
236.05        71.77866
236.51        69.56683
236.97        68.28838
237.43        68.21413
237.88        69.39534
238.34        71.50298
238.80         73.8187
239.26         75.4582
239.71        76.33208
240.17        76.18118
240.63        75.39473
241.08        74.26363
241.54        72.63964
242.00        70.41927
242.46         67.1977
242.91        62.58285
243.37        55.64315
243.83        47.09705
244.28        42.94622
244.74         48.7067
245.20        62.83628
245.66        76.43192
246.11        82.55587
246.57        80.88243
247.03        71.88251
247.48         57.2662
247.94        50.24734
248.40        54.64881
248.85        62.06815
249.31        67.83793
249.77        70.59996
250.22        71.05421
250.68        70.25105
251.14         68.7203
251.59        67.41011
252.05        67.11809
252.51        67.71628
252.96        68.36218
253.42        67.92944
253.88        66.38478
254.33        64.34834
254.79        63.74179
255.25        66.11238
255.70        70.83945
256.16        76.54673
256.62        81.24431
257.07        82.74326
257.53        81.27921
257.99        77.83799
258.44        73.40824
258.90         70.1394
259.35        68.00067
259.81        66.94307
260.27        66.09781
260.72        64.71858
261.18        63.05176
261.63        60.96839
262.09        59.26157
262.55        58.47146
263.00        58.50977
263.46        59.18654
263.91        59.67568
264.37        59.34173
264.83        58.14376
265.28         56.3228
265.74        54.71109
266.19        53.98968
266.65         54.3032
267.11        55.21307
267.56        56.13691
268.02        56.25079
268.47        55.40142
268.93        53.89083
269.38         52.0992
269.84        50.85873
270.30        50.37207
270.75        50.40406
271.21        50.60027
271.66        50.41307
272.12        49.70852
272.57        48.65588
273.03        47.55631
273.48        46.76954
273.94        46.43064
274.39        46.35374
274.85        46.32162
275.31        45.97211
275.76        45.21706
276.22        44.21551
276.67         43.1649
277.13        42.48634
277.58        42.17376
278.04        42.12633
278.49        42.01644
278.95        41.48497
279.40         40.4417
279.86        39.13773
280.31        37.78136
280.77        36.82442
281.22         36.2729
281.68        36.02549
282.13         35.8697
282.59        35.55574
283.04        35.00885
283.50        34.35793
283.95        33.68274
284.41        33.14986
284.86          32.757
285.32        32.45749
285.77        32.18139
286.22        31.90732
286.68        31.61952
287.13        31.32005
287.59        30.98684
288.04        30.53744
288.50        29.99532
288.95        29.35356
289.41        28.73251
289.86        28.24192
290.32        27.95242
290.77        27.80957
291.22        27.75478
291.68        27.66178
292.13        27.49801
292.59        27.31228
293.04        27.15761
293.50        27.13926
293.95        27.26232
294.40        27.47198
294.86        27.70596
295.31        27.87935
295.77        27.97112
296.22        28.02105
296.68        28.04117
297.13        28.02627
297.58        28.00767
298.04        27.99799
298.49        28.06836
298.95        28.36559
299.40        28.88094
299.85        29.54994
300.31        30.24106
300.76        30.74989
301.21        31.02884
301.67        31.17155
302.12        31.21118
302.58        31.25425
303.03        31.32275
303.48        31.39795
303.94        31.56545
304.39        31.92171
304.84        32.46873
305.30        33.16155
305.75        33.82191
306.20         34.1903
306.66        34.23964
307.11        34.04228
307.57        33.77372
308.02        33.63692
308.47        33.70879
308.93        33.91234
309.38        34.18433
309.83        34.47297
310.29        34.73694
310.74        35.00005
311.19        35.19108
311.65        35.19085
312.10        34.98963
312.55        34.62266
313.00        34.22904
313.46        34.02901
313.91        34.05545
314.36         34.2632
314.82        34.52597
315.27        34.65378
315.72        34.58236
316.18        34.37896
316.63        34.12668
317.08        33.96186
317.53        33.91574
317.99        33.93113
318.44        33.95291
318.89        33.88569
319.35        33.70456
319.80        33.44943
320.25        33.15997
320.70        32.89587
321.16        32.67493
321.61         32.4828
322.06        32.30546
322.51        32.12556
322.97        31.92778
323.42        31.72328
323.87        31.50687
324.32        31.27287
324.78        31.01816
325.23        30.75819
325.68        30.48245
326.13        30.18061
326.59        29.86145
327.04        29.55468
327.49        29.30353
327.94        29.17923
328.39        29.19065
328.85        29.29348
329.30        29.46372
329.75        29.60907
330.20        29.68531
330.66        29.68674
331.11        29.61748
331.56        29.43752
332.01        29.15042
332.46        28.76416
332.92        28.34149
333.37        28.00105
333.82        27.78562
334.27        27.69434
334.72         27.6785
335.17        27.64066
335.63        27.54279
336.08         27.4133
336.53        27.31277
336.98        27.35461
337.43        27.55298
337.88         27.8664
338.34          28.144
338.79        28.19097
339.24        27.95067
339.69        27.48288
340.14         26.9828
340.59        26.77808
341.05        26.93131
341.50          27.346
341.95         27.8124
342.40        28.00414
342.85         27.8489
343.30        27.46713
343.75        27.00288
344.20        26.68997
344.66          26.596
345.11        26.61279
345.56        26.70804
346.01        26.83067
346.46         26.9364
346.91        27.05654
347.36        27.08645
347.81        26.85189
348.26        26.35695
348.72         25.6925
349.17        25.03053
349.62        24.74007
350.07        24.90167
350.52        25.37778
350.97        25.99512
351.42        26.49171
351.87        26.77279
352.32        26.90688
352.77        26.87182
353.22        26.63828
353.67        26.23788
354.13        25.69695
354.58        25.13319
355.03        24.77771
355.48        24.68366
355.93         24.8045
356.38        25.02307
356.83        25.13792
357.28        25.08679
357.73        24.91422
358.18        24.68924
358.63        24.53107
359.08        24.47087
359.53         24.4654
359.98        24.44094
360.43         24.2916
360.88        24.00278
361.33         23.6196
361.78        23.23597
362.23        22.99948
362.68        22.93909
363.13        22.99621
363.58        23.07727
364.03        23.03876
364.48        22.84113
364.93        22.53111
365.38        22.15232
365.83        21.78295
366.28          21.462
366.73        21.16891
367.18         20.9219
367.63        20.74818
368.08        20.64307
368.53        20.60289
368.98         20.5796
369.43         20.4898
369.88        20.31907
370.33        20.09422
370.78        19.85595
371.23        19.68098
371.68        19.59272
372.13        19.55675
372.58        19.57014
373.03        19.62781
373.48        19.70768
373.93        19.80568
374.38        19.85299
374.83        19.74399
375.28        19.46817
375.72        19.05145
376.17        18.61355
376.62         18.3108
377.07        18.19058
377.52        18.20839
377.97        18.29643
378.42        18.34452
378.87        18.31525
379.32        18.23786
379.77        18.13817
380.22        18.05125
380.67        17.98846
381.11        17.94117
381.56        17.87675
382.01        17.76547
382.46        17.60287
382.91        17.39435
383.36        17.20093
383.81        17.11052
384.26        17.13182
384.71        17.24379
385.15         17.3351
385.60        17.23811
386.05        16.93117
386.50        16.47378
386.95        16.02267
387.40        15.82529
387.85        15.92553
388.29        16.23077
388.74        16.57744
389.19        16.73362
389.64        16.64846
390.09        16.39026
390.54        16.07144
390.98        15.86533
391.43        15.83446
391.88        15.90992
392.33        15.99853
392.78        15.97026
393.23        15.80809
393.67        15.55587
394.12        15.32382
394.57        15.20539
395.02        15.21842
395.47        15.32695
395.91        15.46001
396.36        15.47897
396.81        15.35719
397.26         15.1355
397.71        14.90629
398.15        14.79191
398.60        14.83219
399.05        14.97397
399.50        15.12521
399.95        15.15486
400.39        15.03635
400.84        14.80777
401.29        14.56221
401.74        14.46922
402.18        14.57694
402.63        14.81982
403.08        15.07762
403.53        15.16053
403.97        15.02912
404.42        14.75747
404.87        14.45781
405.32        14.31342
405.76        14.36897
406.21        14.55923
406.66         14.7973
407.11        14.94899
407.55        14.97719
408.00        14.92945
408.45        14.84171
408.90        14.73634
409.34        14.65047
409.79        14.63853
410.24        14.67553
410.68        14.66399
411.13         14.6007
411.58        14.55007
412.03        14.51137
412.47        14.46055
412.92        14.39875
413.37        14.32775
413.81        14.28714
414.26        14.35057
414.71        14.51818
415.15        14.77324
415.60        15.01352
416.05        15.09611
416.49        14.98522
416.94        14.72954
417.39        14.43228
417.83        14.26247
418.28        14.27038
418.73        14.39895
419.17        14.57078
419.62        14.65237
420.07        14.61481
420.51        14.50441
420.96        14.37363
421.41         14.2833
421.85         14.2489
422.30        14.25703
422.74        14.29046
423.19        14.35289
423.64        14.43109
424.08        14.53356
424.53        14.62796
424.98        14.68087
425.42        14.68532
425.87        14.65161
426.31        14.59037
426.76        14.53033
427.21         14.4725
427.65        14.40285
428.10        14.35431
428.54        14.35743
428.99        14.41962
429.44         14.5978
429.88        14.78891
430.33          14.732
430.77        14.47343
431.22        14.31252
431.66        14.31387
432.11        14.41347
432.56        14.59864
433.00        14.92959
433.45        15.22243
433.89        15.19343
434.34        14.92673
434.78        14.59725
435.23        14.24884
435.67        14.90583
436.12        14.49648
436.57        14.55091
437.01         14.4718
437.46        14.46842
437.90        14.53412
438.35         14.5626
438.79        14.54811
439.24        14.54706
439.68         14.5626
440.13        14.45858
440.57         14.3027
441.02        14.43892
441.46        14.72669
441.91        14.72484
442.35        14.11233
442.80        13.90541
443.24        13.96395
443.69        13.97148
444.13        13.89944
444.58        13.86357
445.02        13.86446
445.47        13.90807
445.91        13.96568
446.36        13.95893
446.80        13.87453
447.24        13.75314
447.69         13.6313
448.13        13.53349
448.58        13.47911
449.02        13.46111
449.47        13.46208
449.91          13.447
450.36        13.41282
450.80        13.36586
451.25        13.33693
451.69        13.35766
452.13        13.43478
452.58        13.54523
453.02        13.65534
453.47         13.7138
453.91        13.71025
454.36        13.65898
454.80        13.58037
455.24         13.5106
455.69          13.469
456.13        13.43095
456.58        13.40727
457.02        13.40568
457.46        13.42333
457.91        13.43027
458.35        13.42006
458.79        13.41222
459.24        13.40456
459.68        13.39245
460.13        13.42254
460.57        13.43746
461.01        13.42519
461.46        13.74572
461.90        13.85332
462.34        13.73538
462.79        13.84583
463.23        13.72623
463.68        13.60971
464.12        13.51299
464.56        13.56232
465.01        13.65157
465.45        13.74448
465.89        13.79981
466.34        13.81106
466.78        13.74757
467.22        13.65481
467.67        13.70328
468.11        13.86275
468.55        13.85854
468.99        13.71156
469.44        13.68057
469.88        13.77606
470.32        13.85269
470.77        13.88019
471.21        13.88361
471.65        13.85662
472.10        13.79597
472.54        13.72423
472.98        13.70939
473.42        13.76141
473.87        13.82258
474.31        13.87377
474.75        13.96795
475.20        14.06868
475.64         14.0308
476.08        13.90928
476.52        13.91226
476.97        14.05219
477.41        14.23462
477.85        14.39434
478.29        14.46836
478.74        14.43935
479.18        14.30342
479.62        14.14864
480.06        14.11495
480.50        14.20961
480.95        14.32504
481.39         14.4066
481.83        14.43896
482.27        14.40954
482.72        14.32403
483.16        14.22953
483.60         14.2033
484.04        14.25043
484.48        14.41571
484.93        14.71085
485.37        14.81199
485.81        14.78996
486.25        15.33284
486.69        15.41375
487.14        15.06183
487.58        14.99037
488.02        15.61497
488.46        15.36947
488.90        15.40492
489.34        15.21088
489.79        15.29521
490.23        15.60795
490.67        15.81852
491.11        15.87096
491.55        15.76607
491.99        15.55982
492.43        15.44756
492.88        15.46793
493.32        15.48475
493.76        15.51006
494.20        15.63241
494.64        15.84947
495.08        16.12367
495.52        16.40584
495.96        16.63352
496.41        16.78787
496.85        16.85477
497.29         16.8642
497.73        16.94748
498.17        17.09592
498.61        17.12633
499.05        17.07214
499.49        17.16049
499.93        17.40762
500.37         17.6534
500.82        17.86494
501.26        18.13847
501.70        18.41382
502.14        18.45583
502.58        18.31264
503.02        18.27325
503.46        18.36489
503.90        18.44153
504.34         18.4745
504.78        18.47951
505.22        18.45233
505.66        18.40316
506.10        18.35706
506.54        18.34757
506.98        18.38646
507.42        18.46497
507.86        18.57575
508.30        18.70598
508.74        18.84283
509.18        18.98032
509.62        19.10748
510.06        19.20772
510.50        19.27852
510.94        19.32952
511.38        19.35353
511.82        19.34183
512.26        19.30061
512.70         19.2323
513.14        19.18509
513.58        19.23063
514.02        19.36971
514.46        19.57981
514.90        19.78602
515.34        19.81006
515.78         19.6536
516.22        19.44052
516.66        19.27134
517.10         18.9568
517.54        18.52864
517.98        19.12506
518.42        19.02262
518.86        19.30289
519.30         19.4289
519.74        19.57178
520.18        19.69105
520.62        19.69939
521.06         19.6094
521.50        19.43157
521.93        19.22208
522.37        19.08451
522.81        19.04543
523.25        19.07744
523.69        19.15145
524.13        19.21906
524.57        19.25845
525.01        19.28038
525.45        19.27858
525.89        19.24147
526.32        19.17079
526.76        19.07341
527.20        18.95876
527.64        18.84932
528.08        18.75371
528.52        18.66399
528.96         18.5975
529.40        18.57685
529.83        18.59941
530.27        18.66375
530.71        18.71572
531.15        18.67033
531.59        18.51811
532.03         18.2882
532.46        18.05718
532.90        17.96301
533.34         18.0238
533.78        18.19036
534.22        18.38473
534.66        18.48631
535.09        18.45983
535.53        18.35122
535.97        18.19697
536.41        18.05196
536.85         17.9419
537.28        17.86101
537.72        17.82143
538.16        17.78812
538.60        17.84567
539.04        17.91429
539.47        17.99618
539.91        18.09883
540.35        18.22439
540.79        18.21327
541.22        18.29918
541.66        18.35133
542.10        18.45682
542.54        18.31936
542.97        18.43648
543.41        18.48729
543.85        18.60804
544.29        18.74699
544.72        18.87112
545.16        18.98264
545.60         19.0701
546.04        19.07631
546.47        19.06762
546.91         19.2698
547.35        19.63684
547.79        19.90816
548.22        20.03923
548.66          20.098
549.10         20.1205
549.53        20.24916
549.97        20.49883
550.41        20.51867
550.84        20.69002
551.28         20.8051
551.72        20.98888
552.15        21.18806
552.59        21.39786
553.03        21.62064
553.46         21.8166
553.90        21.94585
554.34        22.00234
554.77        22.00186
555.21        21.98661
555.65        22.01192
556.08        22.08903
556.52        22.20467
556.96        22.34414
557.39        22.49676
557.83        22.64064
558.27        22.78477
558.70        22.81584
559.14        22.86979
559.57         22.9097
560.01        22.93644
560.45        22.94253
560.88        22.90051
561.32        22.86049
561.75        22.86239
562.19        22.99386
562.63        23.08096
563.06        23.14009
563.50        23.22044
563.93        23.31497
564.37        23.45982
564.80        23.54162
565.24        23.65454
565.68         23.7453
566.11        23.80547
566.55        23.85058
566.98        23.85617
567.42        23.84138
567.85         24.0482
568.29        24.00443
568.72        24.31839
569.16        24.75405
569.60        25.03543
570.03        25.11579
570.47        25.17012
570.90        25.11903
571.34        25.40082
571.77        25.20317
572.21        25.59462
572.64        25.66725
573.08         25.7901
573.51        26.11836
573.95        26.43416
574.38        26.68413
574.82        26.83179
575.25        26.85389
575.69         26.6639
576.12        26.58298
576.56        26.55904
576.99        26.70083
577.42        26.81846
577.86        26.97038
578.29        26.89184
578.73        27.33796
579.16        26.99916
579.60        26.71402
580.03        26.70039
580.47        26.80471
580.90        26.61386
581.33        26.42054
581.77        26.48727
582.20        26.83854
582.64        26.53845
583.07        26.09065
583.51        26.19533
583.94        25.78821
584.37        25.76266
584.81          25.507
585.24        25.41732
585.68         25.3918
586.11         25.2561
586.54        25.13133
586.98        25.04392
587.41        25.03946
587.85        25.08103
588.28        25.10143
588.71        24.93732
589.15        24.67192
589.58        24.48876
590.01        24.53348
590.45        25.08637
590.88        24.71352
591.31        24.65907
591.75        24.47922
592.18        24.65531
592.61        24.65573
593.05         24.6531
593.48        24.82747
593.91        25.37085
594.35        24.87001
594.78        25.10105
595.21        25.44665
595.65        25.80568
596.08        25.63647
596.51        25.62447
596.94        25.69682
597.38         25.7461
597.81        25.85008
598.24        25.98291
598.68        26.56256
599.11         26.7648
599.54        27.26314
599.97        27.26399
600.41        27.49808
600.84        28.02346
601.27        28.46206
601.70        28.83798
602.14        29.01071
602.57        29.41208
603.00        29.98956
603.43        30.47816
603.87        30.54029
604.30        30.90578
604.73        31.45773
605.16         31.7704
605.60        32.02291
606.03        32.51275
606.46        33.12818
606.89        33.91232
607.32        34.26014
607.76         34.3224
608.19        34.82399
608.62        35.23375
609.05         35.3069
609.48        35.50827
609.92        35.89677
610.35        36.13408
610.78        37.03913
611.21        37.39914
611.64        37.40434
612.07        38.04266
612.50        38.10722
612.94        38.29035
613.37        38.71624
613.80        39.01484
614.23        39.30238
614.66        39.70543
615.09        40.03032
615.52        40.36599
615.96        40.59657
616.39        40.96059
616.82        41.24711
617.25        41.17166
617.68         41.6048
618.11        41.95559
618.54        42.40489
618.97        42.37386
619.40        41.93639
619.84        42.25148
620.27        42.15315
620.70        42.61837
621.13        43.14663
621.56        43.35262
621.99        43.31169
622.42        43.36081
622.85        43.58562
623.28        43.70851
623.71         43.6688
624.14        44.04268
624.57        43.51303
625.00        43.62394
625.43        43.65927
625.86        43.31132
626.29        43.31715
626.72        43.22424
627.15        43.15033
627.58        43.09061
628.01        42.93193
628.44        42.94077
628.87        42.66134
629.30        42.13988
629.73        41.73859
630.16        41.55938
630.59        41.22846
631.02        40.94969
631.45        40.56771
631.88        40.19829
632.31        39.82861
632.74        39.39701
633.17        38.92288
633.60        38.44472
634.03        38.01228
634.46        37.57696
634.89         37.1438
635.32        36.70128
635.75        36.25007
636.18        35.80517
636.61        35.36552
637.04         34.9239
637.47        34.47897
637.89         34.0304
638.32        33.59667
638.75        33.22888
639.18        32.93816
639.61        32.71766
640.04        32.51484
640.47        32.24148
640.90         31.8822
641.33        31.46431
641.76        31.06187
642.18        30.79941
642.61        30.69937
643.04        30.72371
643.47        30.79875
643.90        30.80257
644.33        30.70471
644.76        30.54936
645.18         30.3886
645.61        30.30948
646.04         30.3391
646.47        30.44694
646.90        30.62271
647.33        30.85143
647.75        31.12141
648.18        31.43628
648.61        31.76881
649.04        32.07706
649.47        32.36007
649.89        32.60424
650.32        32.85418
650.75        33.25805
651.18        33.80711
651.61        34.28107
652.03        34.69154
652.46         35.3395
652.89        36.20305
653.32        36.73735
653.74         36.9218
654.17        37.72477
654.60        38.14701
655.03        38.76508
655.46        38.57923
655.88        40.26123
656.31        41.39919
656.74        46.92329
657.16        44.70988
657.59        41.83735
658.02        42.42064
658.45        43.00226
658.87        43.43973
659.30        44.51459
659.73         44.7836
660.15        45.66897
660.58        45.72028
661.01        45.78543
661.44        45.72742
661.86         45.9782
662.29         46.5595
662.72        47.31451
663.14        48.05724
663.57        48.20919
664.00        47.90673
664.42        47.95468
664.85        48.42265
665.27        48.80499
665.70        49.03785
666.13        49.29067
666.55        49.55496
666.98        49.78393
667.41        49.98647
667.83        50.16873
668.26        50.33039
668.69        50.48568
669.11         50.6463
669.54        50.81672
669.96        51.00035
670.39        51.21455
670.82        51.46541
671.24        51.67651
671.67        51.86868
672.09        52.21883
672.52        52.63528
672.94        52.77891
673.37        52.66189
673.80        52.51649
674.22         52.4509
674.65        52.49308
675.07        52.68576
675.50        53.03744
675.92        53.44807
676.35        53.69514
676.77        53.73583
677.20        53.63979
677.62        53.49353
678.05        53.44388
678.47        53.53049
678.90        53.71136
679.32        53.94153
679.75        54.15708
680.17        54.32843
680.60        54.47229
681.02        54.60382
681.45        54.71868
681.87        54.83564
682.30        54.98066
682.72        55.11673
683.15         55.1733
683.57        55.03732
684.00        55.00648
684.42        55.20466
684.85         55.3581
685.27        55.50256
685.70        55.74765
686.12        56.02881
686.54        56.19552
686.97        56.22181
687.39         56.1581
687.82         56.0618
688.24         56.0521
688.66         56.1553
689.09         56.3361
689.51        56.55231
689.94        56.71521
690.36        56.81871
690.78        56.85643
691.21        56.85438
691.63        56.99187
692.06        57.31022
692.48        57.31847
692.90        57.53111
693.33        57.98623
693.75        57.84773
694.17        57.91557
694.60        57.91072
695.02        57.87696
695.44        57.81361
695.87        57.75789
696.29        57.90048
696.71        57.78357
697.14        57.63272
697.56        58.03704
697.98        58.78829
698.41        59.51739
698.83        59.19194
699.25        59.05073
699.68        58.92733
700.10        58.84497
700.52        58.85674
700.94        58.97464
701.37        59.14753
701.79         59.3195
702.21        59.44242
702.64         59.5318
703.06        59.61847
703.48         59.7589
703.90        59.96346
704.33        60.20673
704.75        60.41623
705.17         60.4523
705.59        60.29708
706.01         59.9991
706.44        59.71172
706.86        59.67885
707.28        59.94101
707.70        60.41323
708.12        60.93567
708.55        61.25296
708.97        61.30065
709.39        61.16354
709.81        60.93678
710.23        60.78899
710.66        60.78297
711.08        60.86956
711.50        61.00784
711.92        61.15232
712.34        61.28368
712.76        61.42641
713.19        61.55491
713.61        61.67347
714.03        61.75852
714.45          61.797
714.87         61.8131
715.29         61.8925
715.71        62.05337
716.13        62.13799
716.56         62.3037
716.98        62.46816
717.40        62.48348
717.82        62.49743
718.24        62.48519
718.66        62.49144
719.08        62.52397
719.50        62.57259
719.92        62.62022
720.34        62.63352
720.76        62.60795
721.19         62.5579
721.61          62.511
722.03        62.47717
722.45        62.48508
722.87        62.51883
723.29         62.5886
723.71        62.70063
724.13        62.85009
724.55         63.0351
724.97        63.25387
725.39        63.43573
725.81        63.55297
726.23        63.73289
726.65        64.00371
727.07        63.75714
727.49        64.04695
727.91         64.0287
728.33        64.02367
728.75        64.02042
729.17        64.03432
729.59        64.05654
730.01        64.07434
730.43        64.10281
730.85        64.14093
731.27        64.15892
731.69         64.1643
732.10        64.24474
732.52        64.35975
732.94        64.34911
733.36        64.23042
733.78        64.18816
734.20          64.269
734.62        64.32453
735.04        64.30773
735.46        64.42792
735.88        64.72136
736.30        64.19788
736.72        64.54723
737.13         64.6741
737.55        64.98373
737.97        65.35757
738.39        65.65249
738.81        65.49679
739.23        65.02383
739.65         64.8538
740.06        64.98405
740.48         65.2606
740.90        65.55514
741.32        64.95248
741.74        64.66919
742.16        64.47894
742.57        64.78003
742.99         65.1069
743.41        65.36201
743.83        65.54729
744.25        65.60873
744.67        65.54567
745.08        65.41792
745.50        65.30456
745.92        65.24796
746.34        65.21948
746.75        65.21329
747.17        65.21033
747.59        65.20754
748.01        65.25938
748.42        65.34722
748.84        65.35681
749.26        65.32608
749.68        65.32995
750.09        65.40445
750.51        65.64411
750.93        65.95565
751.35        66.01235
751.76        65.82906
752.18        65.68536
752.60        65.71701
753.01        65.62167
753.43        65.48627
753.85        65.45029
754.27        65.52053
754.68        65.83919
755.10        66.35365
755.52        66.03709
755.93        66.38015
756.35        66.20316
756.77        66.04529
757.18        66.08017
757.60        66.37697
758.02        66.68308
758.43         66.8085
758.85        67.30808
759.26        67.12012
759.68        66.66936
760.10         66.4119
760.51        66.10927
760.93        66.10033
761.34        65.57651
761.76        66.16569
762.18        65.94363
762.59        65.54342
763.01        65.62989
763.42        66.24244
763.84        66.71079
764.26        66.90277
764.67         66.8226
765.09        66.64142
765.50         66.7417
765.92        67.18826
766.33        67.37959
766.75        67.22318
767.16        66.99808
767.58        66.73302
768.00        66.37959
768.41        66.12184
768.83        66.29862
769.24        66.82036
769.66        67.31635
770.07        67.60709
770.49        67.47994
770.90        67.09008
771.32        67.15729
771.73        67.64321
772.15        67.76519
772.56        67.51715
772.97        67.41609
773.39         67.4355
773.80        67.30334
774.22        67.00211
774.63        66.64036
775.05        66.34158
775.46        66.30908
775.88        66.55885
776.29        67.05966
776.70        67.59245
777.12        67.81635
777.53        67.65734
777.95        67.18585
778.36        66.62587
778.77        66.36447
779.19        66.50305
779.60        66.97416
780.02        67.51023
780.43        67.85274
780.84        67.92616
781.26        67.43748
781.67        66.74804
782.09         67.3709
782.50        68.92118
782.91        69.08364
783.33        67.96346
783.74        67.66823
784.15        68.26096
784.57        68.59573
784.98        68.53191
785.39        68.21135
785.81        67.72622
786.22         67.4623
786.63        67.46259
787.04        67.41525
787.46        67.33498
787.87        67.45004
788.28        67.71908
788.70        67.93021
789.11        68.04791
789.52        68.12199
789.93        68.17472
790.35        68.29797
790.76        68.45602
791.17        68.50916
791.58        68.46455
792.00        68.47326
792.41        68.50191
792.82        68.44769
793.23         68.2394
793.65        67.79749
794.06         67.4501
794.47        67.55911
794.88        67.86285
795.29         69.5785
795.71        69.30225
796.12        68.75124
796.53        68.59305
796.94        68.17989
797.35         68.0983
797.76        68.15484
798.18        68.30109
798.59        68.44775
799.00        68.55836
799.41        68.42993
799.82        68.65528
800.23         68.6345
800.64        68.54591
801.06        68.36591
801.47         68.2283
801.88        68.27582
802.29        68.52109
802.70        68.91357
803.11        69.28675
803.52        69.36263
803.93        69.09693
804.34        68.59686
804.75        68.03254
805.17         67.7509
805.58        67.87379
805.99        68.04218
806.40        68.22603
806.81        69.01038
807.22        70.03767
807.63         69.8689
808.04        68.76429
808.45        68.45647
808.86        69.09267
809.27        69.71262
809.68        70.11388
810.09          70.394
810.50        70.46325
810.91        70.30553
811.32        70.00642
811.73        69.67821
812.14        69.37015
812.55        69.12871
812.96        68.96215
813.37        68.72269
813.78        68.49084
814.19        68.62847
814.60        69.02466
815.01        69.20744
815.42         69.1282
815.83        68.99793
816.24        68.89435
816.65        68.86581
817.05        68.95117
817.46        69.11846
817.87        69.31314
818.28         69.3373
818.69        69.15379
819.10        69.10029
819.51        68.78409
819.92        68.82224
820.33        69.11223
820.74        69.56976
821.14        70.07608
821.55        70.47244
821.96        70.68913
822.37        70.66093
822.78        70.46799
823.19        70.34191
823.60        70.33553
824.00        70.37821
824.41        70.38303
824.82        70.33009
825.23        70.20734
825.64        70.04041
826.04        69.91418
826.45        69.91035
826.86        70.05274
827.27        70.30747
827.68        70.57079
828.08        70.69105
828.49         70.5746
828.90        70.29292
829.31        69.95274
829.72        69.74926
830.12        69.76253
830.53        69.89722
830.94        70.08823
831.35        70.20603
831.75         70.2336
832.16         70.1762
832.57        70.08201
832.97        70.00389
833.38        69.94798
833.79        69.89333
834.20        69.85075
834.60         69.8354
835.01        69.86178
835.42        69.93642
835.82        70.02065
836.23          69.993
836.64        69.85186
837.04        69.62035
837.45        69.39366
837.86        69.37128
838.26         69.6031
838.67        70.00706
839.08        70.42226
839.48        70.53677
839.89        70.27876
840.29        69.77667
840.70        69.28039
841.11        69.08831
841.51        69.28416
841.92        69.71398
842.33          70.298
842.73        70.90114
843.14        71.34992
843.54        71.73535
843.95        71.91589
844.35        71.74279
844.76        71.23492
845.17        70.48103
845.57        69.71221
845.98        69.30328
846.38        69.34369
846.79        69.73058
847.19        70.38272
847.60        71.00186
848.00        71.50871
848.41        71.89707
848.81        72.19709
849.22        72.38335
849.62        72.50347
850.03        72.49747
850.43        72.41265
850.84        72.26265
851.24           72.12
851.65        71.94268
852.05         71.8191
852.46        71.76634
852.86        71.79019
853.27        71.90176
853.67        71.97977
854.07        71.96193
854.48        71.81061
854.88        71.58733
855.29        71.29929
855.69        71.11185
856.10        70.99319
856.50        70.97495
856.90        71.04119
857.31        71.18899
857.71        71.46584
858.12        71.80759
858.52        72.13466
858.92        72.21616
859.33        71.99693
859.73        71.55257
860.13        71.05033
860.54        70.83042
860.94        71.04728
861.34         71.5718
861.75        72.12918
862.15        72.36079
862.55        72.13199
862.96        71.59486
863.36        70.95522
863.76         70.5302
864.17        70.42313
864.57        70.54528
864.97        70.83168
865.38        71.17455
865.78        71.55623
866.18        71.92501
866.58        72.17877
866.99        72.13891
867.39        71.81171
867.79        71.24323
868.19        70.43055
868.60        69.35868
869.00        68.05644
869.40        66.60131
869.80        65.39213
870.21        65.06866
870.61        65.79614
871.01        67.32532
871.41        69.03847
871.81        69.94696
872.22        69.83947
872.62        69.01236
873.02        67.87955
873.42        67.35623
873.82        67.45149
874.22          67.341
874.63        67.16977
875.03         67.3345
875.43        67.81022
875.83        69.56748
876.23        69.41343
876.63        68.67672
877.03         66.7989
877.44        63.88696
877.84        133.8408
878.24        63.66405
878.64        65.42953
879.04        70.15559
879.44        67.08086
879.84        65.45696
880.24        70.16489
880.64        70.36602
881.04        67.21261
881.44        65.16837
881.84        64.96414
882.24        65.85571
882.65        67.23856
883.05         67.8807
883.45        67.38962
883.85        66.52149
884.25        65.73719
884.65        65.40559
885.05        65.66428
885.45        66.33842
885.85          67.169
886.25        67.75952
886.65        67.96647
887.05        67.90978
887.45        67.74259
887.85         67.6899
888.25         67.8213
888.65        68.06148
889.04        68.33517
889.44        68.45351
889.84        68.39755
890.24        68.22182
890.64        68.01794
891.04        67.91849
891.44        67.92629
891.84        67.95744
892.24        67.92293
892.64        67.67719
893.04        67.21718
893.44        66.68285
893.83        66.07047
894.23        65.38702
894.63        64.66002
895.03        63.87611
895.43         63.3107
895.83        63.41983
896.23        64.25398
896.63        65.67381
897.02        67.15913
897.42         67.7681
897.82        67.28819
898.22        66.00459
898.62         64.4966
899.01        63.66287
899.41        63.75164
899.81        64.46082
900.21        65.44215
900.61        66.16978
901.00        66.47173
901.40        66.48604
901.80        66.36167
902.20        66.31252
902.59        66.41226
902.99        66.58047
903.39           66.66
903.79        66.41302
904.18        65.81962
904.58        65.04215
904.98        64.39361
905.38        64.33954
905.77        64.93797
906.17        66.01064
906.57         67.1893
906.96        67.92588
907.36        68.02019
907.76        67.61609
908.15        66.97266
908.55        66.45728
908.95        66.21191
909.34        66.17005
909.74        66.13193
910.14        65.75281
910.53        64.97641
910.93        64.00255
911.33        63.22581
911.72        63.25367
912.12        64.13261
912.52        65.57652
912.91        67.07875
913.31        67.78029
913.70        67.52685
914.10        66.54036
914.49        65.13367
914.89        64.05635
915.29        63.60651
915.68        63.59668
916.08        63.89326
916.47        64.28442
916.87        64.64204
917.26        65.02592
917.66        65.36661
918.05        65.57566
918.45         65.6124
918.84        65.53709
919.24        65.27828
919.64        64.75105
920.03        64.00789
920.42        63.11724
920.82        62.47232
921.21        62.63068
921.61        63.60001
922.00         65.2131
922.40        66.85191
922.79        67.74123
923.19        67.66346
923.58        66.61728
923.98        64.89023
924.37        63.82583
924.77        64.00237
925.16        61.29896
925.55        62.73863
925.95        62.62716
926.34        63.04198
926.74        63.75148
927.13        64.68615
927.52        65.51656
927.92        66.11163
928.31        66.60069
928.70        66.89001
929.10        66.88778
929.49        66.60392
929.89        66.05247
930.28        65.51185
930.67        65.43687
931.07        65.88339
931.46        66.77832
931.85        67.71912
932.24        68.09827
932.64        67.76681
933.03        66.79314
933.42        65.53113
933.82        64.73033
934.21        64.60328
934.60        64.97777
934.99        65.24075
935.39        64.84362
935.78        63.73238
936.17        61.45321
936.56        58.36568
936.96        59.58913
937.35        59.18881
937.74        61.65754
938.13        64.12811
938.53        65.69736
938.92         66.2515
939.31         66.1216
939.70        65.60497
940.09        65.10468
940.49        64.85564
940.88        64.76405
941.27        64.83118
941.66        65.10385
942.05        65.54194
942.44        66.10426
942.84        66.76971
943.23        67.48017
943.62        68.14825
944.01        68.80731
944.40        69.14154
944.79        68.66597
945.18        67.32554
945.57        65.21202
945.97        63.08458
946.36        62.27783
946.75        63.18517
947.14        65.33914
947.53        67.70141
947.92        68.84082
948.31         68.4998
948.70        67.11532
949.09        65.34924
949.48         64.3632
949.87         64.5206
950.26        65.43269
950.65        66.63674
951.04         67.3817
951.43        67.41417
951.82        67.00659
952.21        66.36688
952.60        65.79528
952.99         65.4136
953.38        65.09599
953.77        64.83684
954.16        64.65884
954.55         64.5479
954.94        64.53796
955.33         64.5626
955.72        64.47397
956.11        64.25426
956.50        63.95332
956.89        63.66759
957.28        63.59586
957.66        63.80275
958.05        64.11579
958.44        64.49745
958.83        64.90598
959.22        65.30003
959.61        65.70846
960.00         65.9192
960.39        65.56302
960.78        64.60919
961.16        63.17901
961.55        61.76997
961.94        61.01829
962.33        61.06617
962.72        61.75603
963.11        62.68989
963.49        63.17578
963.88        62.92877
964.27        62.17819
964.66        61.28868
965.04        60.86412
965.43        61.06758
965.82        61.72659
966.21        62.52529
966.60         62.9635
966.98        62.92315
967.37        62.53436
967.76        62.14351
968.15        62.27549
968.53        63.03791
968.92        64.15114
969.31        65.22489
969.69        65.63052
970.08        65.14584
970.47        64.00827
970.86        62.51421
971.24        61.10976
971.63        60.03569
972.02        59.21831
972.40        58.60095
972.79        58.10328
973.17        57.71606
973.56        57.41924
973.95        57.36808
974.33        57.77421
974.72        58.51692
975.11        59.47582
975.49        60.26628
975.88        60.31838
976.26        59.55102
976.65        58.18995
977.04        56.59925
977.42         55.4261
977.81        54.92403
978.19        54.90371
978.58        55.30967
978.96         56.0234
979.35        56.88209
979.74        58.02828
980.12        59.19368
980.51        59.63588
980.89        59.34336
981.28         58.4314
981.66        57.53827
982.05        57.60754
982.43        58.75719
982.82        60.65859
983.20        62.79308
983.59        63.91185
983.97        63.71723
984.35        62.50769
984.74         60.8412
985.12        59.49916
985.51        58.73466
985.89        58.25891
986.28        57.99707
986.66        57.88227
987.04         57.8139
987.43        57.96924
987.81        57.97751
988.20         57.2676
988.58        55.65932
988.96        52.99356
989.35         49.9196
989.73         48.4761
990.12        49.62334
990.50        52.71144
990.88        55.92163
991.27        57.20621
991.65        56.50746
992.03        54.34888
992.42         51.8623
992.80        51.22807
993.18        53.11116
993.56        56.50854
993.95        60.11705
994.33        62.60139
994.71        63.48099
995.10        63.26606
995.48        62.40164
995.86        61.42982
996.24        60.59132
996.63        59.73953
997.01        58.79611
997.39        57.89128
997.77        57.16335
998.15        56.67275
998.54        56.54614
998.92        56.87119
999.30         57.6285
999.68        58.95536
1000.06           60.22
1000.45        59.60334
1000.83        56.81826
1001.21        52.97993
1001.59        49.80096
1001.97        48.54005
1002.35        49.02464
1002.73        50.85847
1003.12        53.42321
1003.50        55.15239
1003.88        55.15882
1004.26        53.95689
1004.64        52.10665
1005.02        50.39974
1005.40        49.12987
1005.78        47.96728
1006.16        47.30872
1006.54         47.9704
1006.92        49.74744
1007.30        52.02115
1007.69        53.89331
1008.07        54.61392
1008.45        53.96917
1008.83        52.03371
1009.21        48.25959
1009.59        42.70509
1009.97        36.66578
1010.35        31.05422
1010.73        28.33082
1011.11        30.32019
1011.49        36.17149
1011.86        44.97485
1012.24        52.82238
1012.62        55.82535
1013.00        53.81005
1013.38        48.19623
1013.76        41.45908
1014.14        38.01881
1014.52        39.16804
1014.90         43.5708
1015.28        49.05271
1015.66         51.9726
1016.04        51.05831
1016.41        47.19407
1016.79        41.50798
1017.17        37.13805
1017.55        35.80404
1017.93        36.36148
1018.31        37.76861
1018.69        39.10946
1019.06        40.07785
1019.44        40.79324
1019.82        41.11942
1020.20        40.47163
1020.58        38.69168
1020.95        36.04874
1021.33        32.41288
1021.71        26.55278
1022.09        16.86374
1022.46       -1.271231
1022.84       -28.25899
1023.22       -37.70277
1023.60       -14.02346
1023.97        14.15819
1024.35        30.62061
1024.73        36.71899
