SpectraSmart Spectrum 2.9.0.0
--------- Device Information -----------
Spectrum Name :  反射率_0
Saving Time :  2024/04/20 00:40:38
Spectro-Module Model Name : SE2030-DUVN
Spectro-Module Serial Number : OS361AC55029948
Wavelength Start : 200
Wavelength End : 1025
Wavelength Unit : Wavelength(nm)
Spectrum Unit : Reflectance(%)
-----------Spectrum Setting ------------
Integration Time : 30ms
Average : 10
Boxcar : 0
Background removal :  enabled
linearity correction :  enabled
SC :  disabled
Intensity correction :  disabled
DWT denoise :  enabled
savitzky-golay :  disabled
FFT :  disabled
Running average :  disabled
Kalman :  disabled
High pass :  disabled
---------------BEGIN--------------------
Wavelength(nm)             Reflectance(%)
200.29               0
200.75        60.72206
201.21        59.73861
201.67        60.64962
202.13        64.18033
202.58        70.50096
203.04        79.87353
203.50         89.4017
203.96        91.63165
204.42        86.10774
204.88        77.55564
205.34        69.70918
205.80        63.98037
206.26        59.39017
206.72        54.34142
207.18        48.81957
207.64        46.18853
208.10        49.55276
208.55        57.69979
209.01         65.3886
209.47        69.01939
209.93        68.93186
210.39        66.55483
210.85        63.18597
211.31        60.10615
211.77        57.40554
212.23        54.36828
212.69        51.36132
213.14        50.60553
213.60        52.37341
214.06        55.69939
214.52        58.82414
214.98        60.94317
215.44        62.30215
215.90         62.9812
216.36        63.46899
216.81        64.63392
217.27        66.39027
217.73        68.44701
218.19        69.25552
218.65        66.63221
219.11         60.2291
219.57        50.30136
220.02        39.01708
220.48        32.58874
220.94        33.28878
221.40        40.13913
221.86        49.26545
222.32        54.51686
222.77        54.29673
223.23        50.48295
223.69         46.0615
224.15          45.275
224.61         48.1475
225.06        52.43019
225.52        55.88731
225.98        56.72184
226.44         55.0195
226.90        51.72489
227.36        48.06475
227.81        46.12969
228.27        46.77445
228.73        48.91093
229.19         51.5003
229.65        53.38511
230.10        54.29601
230.56        54.67307
231.02        54.71082
231.48        54.64341
231.93        54.50801
232.39        54.23958
232.85        53.76641
233.31        53.05113
233.77        52.12601
234.22        51.06757
234.68         50.0351
235.14         49.1873
235.60        48.62201
236.05        48.33773
236.51        48.31999
236.97        48.50714
237.43         48.9197
237.88        49.78868
238.34        50.97978
238.80        52.31463
239.26        53.43382
239.71        54.04589
240.17        54.31541
240.63        55.18248
241.08        56.90731
241.54        59.26857
242.00        61.23384
242.46        60.77665
242.91        56.88387
243.37        48.53116
243.83          36.373
244.28        28.44542
244.74        32.92843
245.20        48.45113
245.66        64.31773
246.11        71.37856
246.57         69.0564
247.03         58.3709
247.48        42.22069
247.94        36.87569
248.40        45.16755
248.85        55.97121
249.31        63.85639
249.77        67.62971
250.22        68.40813
250.68        67.54921
251.14         65.6693
251.59        63.89913
252.05        63.14622
252.51        63.10173
252.96        63.21175
253.42        62.81263
253.88         61.9021
254.33        61.06628
254.79        61.37054
255.25        63.44959
255.70        66.89101
256.16        70.76692
256.62        74.14751
257.07        76.07207
257.53        76.52641
257.99        75.72273
258.44        73.50404
258.90        70.65154
259.35        67.46846
259.81        64.89642
260.27        62.70691
260.72        60.62437
261.18        58.77958
261.63        56.73069
262.09        55.18331
262.55        54.60809
263.00        54.83796
263.46        55.71054
263.91        56.21447
264.37        55.44452
264.83        53.43713
265.28         50.5948
265.74          48.054
266.19        46.95041
266.65        47.43484
267.11        48.86478
267.56        50.40054
268.02         50.8543
268.47        49.99629
268.93        48.24254
269.38        46.05558
269.84         44.4147
270.30        43.59621
270.75        43.32264
271.21        43.26527
271.66        42.92486
272.12        42.16126
272.57        41.15212
273.03        40.14294
273.48          39.396
273.94        39.02346
274.39        38.87783
274.85        38.77508
275.31        38.42566
275.76        37.75168
276.22        36.85994
276.67        35.94479
277.13        35.40671
277.58        35.23451
278.04        35.33571
278.49        35.33907
278.95        34.79784
279.40        33.64495
279.86        32.16354
280.31         30.6841
280.77        29.81336
281.22        29.57277
281.68        29.77339
282.13         30.0983
282.59        30.12312
283.04         29.7392
283.50        29.14177
283.95        28.45434
284.41        27.89163
284.86        27.49795
285.32        27.21806
285.77        27.04611
286.22        27.05307
286.68        27.20985
287.13        27.46116
287.59        27.69478
288.04        27.71282
288.50        27.50101
288.95        27.08652
289.41        26.58295
289.86        26.09539
290.32        25.72172
290.77        25.43396
291.22        25.25481
291.68         25.1772
292.13        25.19901
292.59        25.34108
293.04         25.6098
293.50        26.02431
293.95        26.55844
294.40        27.17478
294.86        27.81079
295.31        28.38659
295.77        28.88002
296.22        29.31044
296.68        29.69402
297.13        30.04152
297.58        30.37954
298.04        30.71577
298.49        31.09358
298.95        31.61602
299.40        32.27768
299.85         33.0455
300.31        33.83119
300.76         34.4917
301.21        34.99129
301.67         35.3908
302.12        35.71161
302.58        36.05247
303.03        36.41187
303.48        36.77103
303.94        37.15454
304.39        37.56113
304.84        37.98975
305.30         38.4342
305.75        38.81239
306.20        39.02008
306.66        39.06697
307.11        38.97841
307.57        38.85714
308.02        38.78353
308.47        38.80584
308.93        38.88763
309.38        39.00683
309.83        39.17875
310.29        39.37849
310.74        39.59918
311.19        39.74367
311.65         39.6571
312.10        39.31899
312.55         38.7824
313.00         38.2024
313.46        37.81826
313.91        37.67056
314.36        37.71121
314.82        37.81204
315.27        37.78381
315.72        37.56437
316.18        37.22476
316.63        36.85389
317.08        36.59422
317.53        36.47492
317.99        36.43584
318.44        36.40429
318.89        36.25785
319.35        35.96639
319.80        35.57454
320.25        35.14876
320.70        34.79322
321.16        34.53291
321.61        34.34021
322.06         34.1642
322.51        33.92668
322.97        33.59925
323.42        33.21455
323.87        32.80487
324.32        32.42662
324.78        32.09285
325.23        31.79734
325.68        31.50648
326.13        31.17166
326.59        30.78681
327.04        30.39707
327.49        30.04309
327.94        29.78951
328.39        29.64971
328.85        29.58077
329.30        29.58768
329.75        29.63126
330.20        29.68204
330.66         29.7212
331.11        29.72071
331.56        29.58523
332.01        29.29852
332.46        28.87897
332.92        28.40207
333.37        28.01042
333.82        27.75774
334.27        27.63838
334.72        27.59467
335.17        27.51783
335.63        27.36564
336.08        27.16389
336.53        26.99897
336.98        27.02438
337.43        27.25667
337.88        27.64422
338.34        27.97007
338.79        27.93278
339.24        27.45999
339.69        26.64695
340.14        25.79124
340.59        25.39374
341.05        25.56184
341.50        26.14689
341.95        26.84087
342.40        27.16344
342.85         27.0011
343.30        26.51949
343.75        25.91928
344.20        25.52803
344.66        25.43904
345.11         25.5048
345.56        25.65937
346.01        25.80367
346.46        25.87955
346.91        25.94328
347.36        25.90116
347.81        25.58999
348.26        25.02228
348.72        24.28473
349.17         23.5669
349.62        23.26751
350.07        23.47282
350.52        24.04047
350.97        24.76464
351.42         25.3342
351.87        25.64233
352.32        25.76227
352.77        25.70795
353.22         25.5104
353.67        25.20738
354.13        24.80271
354.58        24.35394
355.03        23.99867
355.48        23.77846
355.93        23.68639
356.38        23.67808
356.83        23.66434
357.28        23.61171
357.73        23.52933
358.18        23.44212
358.63         23.3935
359.08        23.38647
359.53        23.40222
359.98        23.37511
360.43        23.21004
360.88        22.90357
361.33        22.49747
361.78         22.1012
362.23        21.89263
362.68        21.90253
363.13        22.05642
363.58        22.24906
364.03        22.31767
364.48        22.21315
364.93        21.99033
365.38        21.66651
365.83        21.27732
366.28        20.86291
366.73        20.42009
367.18        20.03267
367.63        19.83069
368.08        19.82651
368.53        19.98067
368.98        20.17764
369.43        20.22975
369.88        20.09381
370.33        19.82433
370.78        19.49805
371.23        19.25407
371.68        19.13843
372.13        19.09903
372.58        19.11402
373.03        19.14956
373.48        19.17724
373.93        19.20771
374.38        19.19648
374.83        19.06884
375.28        18.81939
375.72        18.46442
376.17        18.09254
376.62        17.81083
377.07         17.6579
377.52        17.60596
377.97        17.62687
378.42        17.67193
378.87        17.71378
379.32        17.75709
379.77        17.78957
380.22        17.79067
380.67        17.75832
381.11        17.70199
381.56        17.60995
382.01        17.48706
382.46        17.34035
382.91        17.16303
383.36        17.00861
383.81        16.95412
384.26        17.00563
384.71        17.15017
385.15        17.27513
385.60        17.20922
386.05        16.92997
386.50        16.49237
386.95        16.06158
387.40        15.90018
387.85        16.04908
388.29         16.4067
388.74        16.78699
389.19         16.9257
389.64        16.76968
390.09        16.40215
390.54        15.96124
390.98         15.6624
391.43         15.5825
391.88         15.6418
392.33        15.73799
392.78        15.72562
393.23        15.58125
393.67        15.35429
394.12          15.149
394.57        15.05073
395.02        15.07715
395.47        15.19154
395.91        15.33273
396.36        15.38099
396.81        15.30973
397.26        15.14901
397.71        14.97342
398.15        14.88022
398.60        14.90631
399.05        15.01038
399.50        15.11139
399.95        15.09313
400.39        14.93415
400.84        14.66729
401.29        14.39184
401.74        14.28832
402.18         14.4063
402.63        14.67959
403.08        14.96958
403.53        15.05722
403.97        14.89794
404.42        14.57241
404.87        14.21611
405.32        14.05104
405.76        14.12926
406.21        14.37259
406.66        14.66675
407.11        14.83525
407.55         14.8309
408.00         14.7134
408.45        14.54361
408.90         14.3892
409.34        14.30089
409.79        14.31742
410.24        14.39124
410.68        14.39266
411.13        14.31011
411.58        14.21786
412.03        14.13181
412.47         14.0559
412.92        13.99903
413.37        13.95284
413.81        13.93974
414.26        14.00831
414.71        14.15211
415.15         14.3611
415.60        14.54897
416.05        14.59834
416.49        14.48092
416.94        14.23958
417.39        13.95845
417.83        13.77683
418.28        13.73857
418.73        13.79451
419.17         13.8935
419.62        13.94194
420.07        13.91675
420.51        13.85045
420.96        13.76057
421.41        13.65469
421.85        13.54095
422.30        13.42713
422.74        13.33291
423.19         13.3144
423.64        13.36913
424.08        13.48685
424.53        13.61365
424.98        13.67608
425.42        13.65466
425.87        13.57782
426.31        13.46391
426.76        13.35139
427.21        13.24751
427.65        13.13095
428.10         13.0514
428.54        13.07092
428.99        13.19396
429.44        13.45613
429.88        13.72036
430.33        13.68139
430.77        13.37723
431.22        13.11187
431.66        12.97561
432.11        12.96213
432.56        13.07721
433.00        13.35694
433.45        13.63218
433.89        13.63845
434.34        13.43718
434.78        13.18728
435.23        12.90304
435.67        13.47324
436.12        13.02024
436.57        12.93676
437.01        12.72024
437.46        12.61766
437.90        12.63908
438.35        12.67666
438.79        12.69893
439.24        12.71052
439.68        12.70092
440.13        12.56599
440.57        12.37962
441.02        12.45963
441.46        12.68889
441.91        12.67795
442.35        12.14362
442.80        11.95377
443.24        11.98383
443.69        11.96689
444.13        11.87948
444.58        11.82263
445.02         11.7983
445.47        11.81161
445.91         11.8409
446.36        11.82502
446.80        11.75218
447.24        11.65323
447.69        11.55535
448.13        11.47207
448.58        11.41779
449.02        11.38877
449.47          11.368
449.91         11.3225
450.36        11.25217
450.80        11.16488
451.25        11.09763
451.69        11.09376
452.13        11.16097
452.58        11.27174
453.02        11.38782
453.47        11.44761
453.91         11.4386
454.36        11.38087
454.80        11.29248
455.24        11.20652
455.69        11.14505
456.13        11.08788
456.58        11.05892
457.02        11.08675
457.46        11.16799
457.91        11.26468
458.35        11.34808
458.79        11.39839
459.24        11.40464
459.68        11.37186
460.13         11.3516
460.57        11.31298
461.01        11.25705
461.46        11.48371
461.90        11.53674
462.34        11.40404
462.79        11.46403
463.23        11.33827
463.68        11.23282
464.12        11.17782
464.56        11.27577
465.01        11.42587
465.45        11.57286
465.89        11.64827
466.34        11.64319
466.78        11.54526
467.22        11.41086
467.67        11.41316
468.11        11.53652
468.55        11.54183
468.99        11.44521
469.44        11.45901
469.88         11.5875
470.32        11.71113
470.77        11.78436
471.21        11.79774
471.65        11.74211
472.10        11.62425
472.54        11.49214
472.98        11.45362
473.42        11.52701
473.87        11.64533
474.31        11.76508
474.75        11.88799
475.20        11.97281
475.64        11.91188
476.08        11.76496
476.52        11.72708
476.97        11.81643
477.41        11.94816
477.85        12.07254
478.29        12.14542
478.74        12.15194
479.18        12.08506
479.62        12.00654
480.06        12.01715
480.50        12.11589
480.95        12.21004
481.39        12.26068
481.83        12.26909
482.27        12.23166
482.72        12.15455
483.16        12.06441
483.60        12.02369
484.04        12.04373
484.48        12.11812
484.93        12.30595
485.37        12.49733
485.81        12.68879
486.25        13.18799
486.69         13.3474
487.14        12.83712
487.58          12.996
488.02        13.78129
488.46        13.15575
488.90        13.18537
489.34        13.18085
489.79        13.36799
490.23        13.64831
490.67          13.743
491.11        13.66537
491.55        13.61172
491.99        13.60961
492.43        13.57926
492.88        13.53841
493.32         13.5247
493.76        13.56645
494.20        13.69213
494.64        13.90409
495.08        14.18302
495.52        14.48109
495.96        14.73568
496.41        14.92559
496.85        15.03447
497.29        15.08574
497.73        15.19508
498.17        15.35364
498.61        15.39705
499.05        15.35033
499.49        15.41165
499.93        15.59768
500.37         15.7696
500.82        15.91523
501.26        16.14542
501.70        16.41213
502.14        16.50102
502.58        16.43661
503.02        16.44853
503.46         16.5543
503.90        16.62884
504.34        16.66144
504.78        16.69239
505.22        16.72183
505.66        16.74712
506.10        16.77229
506.54        16.79867
506.98        16.83158
507.42        16.87728
507.86        16.94228
508.30        17.03593
508.74        17.15463
509.18        17.28374
509.62        17.42022
510.06        17.56003
510.50        17.69752
510.94        17.83841
511.38         17.9446
511.82        17.95578
512.26        17.86876
512.70        17.70196
513.14        17.54218
513.58        17.52428
514.02        17.66589
514.46        17.92632
514.90        18.20342
515.34        18.27579
515.78        18.12621
516.22        17.89636
516.66         17.7007
517.10        17.36712
517.54        16.93363
517.98        17.55307
518.42        17.45589
518.86        17.72683
519.30        17.81683
519.74        17.90923
520.18        17.98068
520.62         17.9692
521.06        17.89174
521.50        17.74688
521.93        17.57545
522.37        17.45631
522.81        17.40876
523.25        17.41619
523.69         17.4521
524.13         17.4715
524.57        17.45916
525.01        17.42682
525.45        17.38597
525.89        17.35341
526.32         17.3338
526.76        17.32291
527.20        17.30535
527.64         17.2631
528.08        17.19168
528.52        17.09191
528.96        16.99304
529.40         16.9381
529.83        16.93245
530.27        16.96975
530.71        16.99422
531.15        16.91828
531.59         16.7335
532.03        16.47376
532.46        16.22207
532.90        16.12296
533.34         16.1953
533.78        16.38647
534.22        16.61014
534.66        16.73326
535.09        16.71762
535.53        16.61165
535.97        16.45746
536.41        16.32004
536.85        16.22689
537.28        16.16645
537.72        16.14712
538.16        16.13313
538.60        16.19933
539.04        16.27655
539.47        16.36347
539.91        16.46067
540.35         16.5709
540.79        16.55145
541.22        16.62461
541.66        16.68665
542.10        16.81958
542.54        16.74813
542.97        16.91511
543.41        17.00919
543.85        17.14972
544.29        17.29328
544.72        17.41736
545.16        17.53736
545.60        17.64547
546.04        17.68315
546.47        17.70475
546.91        17.90915
547.35        18.25199
547.79        18.49788
548.22        18.61073
548.66        18.66018
549.10         18.6832
549.53        18.80975
549.97        19.05903
550.41        19.11221
550.84        19.32302
551.28        19.49525
551.72        19.73232
552.15        19.96276
552.59        20.17756
553.03         20.3854
553.46        20.56249
553.90          20.693
554.34        20.77592
554.77        20.81717
555.21        20.84836
555.65        20.90904
556.08        21.00599
556.52        21.12736
556.96        21.25641
557.39        21.39339
557.83        21.52333
558.27        21.59597
558.70        21.62189
559.14        21.66026
559.57        21.71139
560.01        21.77298
560.45         21.8295
560.88        21.82851
561.32        21.81429
561.75        21.85089
562.19        22.01891
562.63        22.11875
563.06         22.1712
563.50        22.26291
563.93        22.37594
564.37        22.50217
564.80        22.53397
565.24        22.58203
565.68        22.62424
566.11        22.69604
566.55        22.81899
566.98         22.9436
567.42        23.04263
567.85        23.34296
568.29        23.26897
568.72         23.5172
569.16        23.86856
569.60        24.11985
570.03        24.23854
570.47        24.38039
570.90        24.43538
571.34        24.77398
571.77        24.60373
572.21        25.02173
572.64        25.10964
573.08        25.35966
573.51        25.51815
573.95        25.98963
574.38         26.1516
574.82        26.32779
575.25        26.36078
575.69        26.25668
576.12        26.29487
576.56        26.25554
576.99        26.30165
577.42        26.45964
577.86        26.61332
578.29        26.76307
578.73        27.21357
579.16        26.47349
579.60        26.39935
580.03        26.56108
580.47        26.45384
580.90        26.16465
581.33        26.08008
581.77        26.04661
582.20        26.51088
582.64        26.22216
583.07        25.57885
583.51        25.65688
583.94        25.13912
584.37        25.14773
584.81        24.88267
585.24        24.85871
585.68        24.87135
586.11        24.84256
586.54        24.45496
586.98        24.41187
587.41         24.6132
587.85        24.65326
588.28        24.46449
588.71        24.28306
589.15        24.20346
589.58        23.79086
590.01        23.90675
590.45        24.30118
590.88        24.02348
591.31        23.96511
591.75        23.69273
592.18        23.80171
592.61        23.68289
593.05         24.1021
593.48        24.04438
593.91        24.43201
594.35        24.17553
594.78        24.30182
595.21        24.64467
595.65        24.92801
596.08        24.75476
596.51        24.77244
596.94        24.90648
597.38          25.074
597.81        25.34183
598.24        25.45071
598.68        26.10975
599.11        26.33545
599.54        27.12297
599.97        26.85568
600.41        27.16691
600.84        27.99445
601.27        28.14175
601.70          28.615
602.14        28.94973
602.57        29.40669
603.00        29.93685
603.43        30.57367
603.87        30.94949
604.30        31.36035
604.73        31.76738
605.16        32.17842
605.60        32.66863
606.03        33.35425
606.46        34.08431
606.89        34.55518
607.32        35.22096
607.76        35.25193
608.19        35.71269
608.62        36.56538
609.05        36.56901
609.48        36.86582
609.92        37.34084
610.35        37.29398
610.78        38.41437
611.21         39.1205
611.64        39.05589
612.07        39.44976
612.50        40.04403
612.94        40.02456
613.37        40.71184
613.80        41.17764
614.23        41.68317
614.66        42.05898
615.09        42.33849
615.52        42.81488
615.96        43.39034
616.39        43.82786
616.82        44.18211
617.25        44.02527
617.68         44.5447
618.11        44.94284
618.54        45.46037
618.97        45.49414
619.40        45.11281
619.84        45.47962
620.27        45.39324
620.70        45.97292
621.13        46.67356
621.56        46.88174
621.99        46.73087
622.42        46.86753
622.85        47.33727
623.28        47.56739
623.71        47.53997
624.14        47.68656
624.57        47.48516
625.00        47.47068
625.43        47.55649
625.86        46.82816
626.29         46.8997
626.72        46.63557
627.15        46.54171
627.58        46.47311
628.01        46.36873
628.44        46.34087
628.87        46.14225
629.30        45.52748
629.73        45.38723
630.16        44.79406
630.59        44.50097
631.02        44.09456
631.45        43.69308
631.88        43.23068
632.31        42.69101
632.74        42.09689
633.17        41.47532
633.60        40.88128
634.03        40.33128
634.46        39.81628
634.89         39.3074
635.32        38.75511
635.75        38.15364
636.18        37.52675
636.61        36.91164
637.04         36.3615
637.47         35.8848
637.89        35.46204
638.32        35.05992
638.75        34.64602
639.18        34.21291
639.61        33.78106
640.04        33.35521
640.47         32.9372
640.90        32.53513
641.33        32.15085
641.76         31.8126
642.18        31.57033
642.61        31.42582
643.04        31.36441
643.47        31.35061
643.90        31.32264
644.33        31.26607
644.76        31.20507
645.18        31.15556
645.61        31.14944
646.04        31.19924
646.47        31.28964
646.90        31.44667
647.33        31.71385
647.75        32.09219
648.18        32.56503
648.61        33.06349
649.04         33.4846
649.47        33.81734
649.89         34.0633
650.32          34.311
650.75        34.81252
651.18        35.57744
651.61        36.26958
652.03        36.88414
652.46        37.86008
652.89         39.0718
653.32        39.61101
653.74        39.62938
654.17        40.31356
654.60        41.30399
655.03        42.43243
655.46        42.23394
655.88        44.18401
656.31        45.30266
656.74        52.31976
657.16        49.79062
657.59        46.30137
658.02        46.69953
658.45        47.51784
658.87        48.65453
659.30         49.6389
659.73        50.39534
660.15         51.4215
660.58        51.54347
661.01        51.62354
661.44        51.55884
661.86         52.0537
662.29        53.05352
662.72        54.05572
663.14        54.84048
663.57         55.0201
664.00        54.78745
664.42        54.94984
664.85        55.59865
665.27        56.21528
665.70        56.69601
666.13        57.15449
666.55         57.5637
666.98         57.8884
667.41        58.15186
667.83        58.38259
668.26        58.58813
668.69        58.77999
669.11          58.965
669.54        59.13933
669.96        59.31041
670.39        59.51258
670.82        59.77426
671.24        60.02963
671.67        60.30895
672.09        60.82278
672.52        61.44428
672.94        61.71613
673.37        61.64844
673.80        61.56823
674.22        61.58324
674.65        61.65147
675.07        61.81881
675.50        62.13336
675.92        62.50821
676.35        62.72063
676.77        62.73763
677.20        62.63643
677.62        62.50237
678.05        62.47826
678.47        62.59899
678.90         62.8176
679.32        63.09499
679.75        63.37277
680.17        63.62002
680.60        63.86665
681.02        64.09815
681.45        64.23365
681.87        64.30339
682.30        64.39777
682.72        64.52829
683.15        64.62056
683.57        64.69166
684.00        64.72262
684.42        64.85058
684.85        65.00137
685.27        65.20762
685.70        65.44421
686.12        65.64736
686.54        65.86598
686.97        65.89407
687.39        65.86945
687.82        65.78659
688.24        65.85551
688.66        66.05042
689.09        66.13274
689.51        66.11298
689.94        66.16264
690.36        66.30774
690.78        66.40686
691.21        66.43947
691.63        66.58886
692.06        66.88292
692.48        66.75754
692.90        66.87554
693.33        67.34222
693.75        67.18837
694.17        67.42613
694.60         67.6443
695.02        67.46716
695.44        66.97419
695.87        66.96317
696.29        67.36071
696.71        67.22379
697.14        66.79867
697.56        67.06878
697.98        67.92245
698.41         69.1768
698.83        68.49037
699.25        68.30593
699.68        68.17967
700.10        68.21233
700.52        68.14721
700.94        68.28623
701.37        68.47881
701.79         68.6498
702.21         68.7449
702.64        68.79146
703.06        68.83087
703.48         68.9306
703.90        69.10832
704.33        69.33524
704.75        69.54408
705.17        69.59589
705.59         69.4687
706.01        69.21255
706.44        68.97619
706.86        68.97208
707.28        69.23783
707.70         69.7514
708.12        70.33762
708.55        70.60844
708.97         70.5389
709.39        70.43528
709.81        70.36413
710.23        70.25326
710.66        70.14931
711.08        70.13966
711.50        70.21293
711.92        70.31302
712.34        70.43134
712.76        70.59582
713.19        70.76462
713.61        70.92102
714.03        71.02434
714.45        71.07378
714.87        71.10677
715.29        71.18787
715.71        71.32849
716.13        71.51836
716.56        71.69019
716.98        71.79354
717.40        71.79436
717.82        71.76063
718.24        71.73505
718.66        71.74323
719.08        71.79987
719.50        71.90875
719.92        72.02909
720.34        72.08053
720.76        72.04971
721.19        71.96569
721.61         71.8785
722.03        71.83023
722.45        71.86123
722.87        71.94012
723.29        72.06599
723.71        72.22769
724.13        72.41532
724.55        72.62926
724.97         72.8504
725.39        73.04637
725.81        73.20452
726.23        73.32374
726.65        73.41694
727.07        73.51173
727.49         73.6133
727.91        73.72001
728.33         73.8235
728.75        73.88331
729.17        73.89224
729.59        73.96413
730.01        73.93909
730.43        73.95916
730.85         73.9811
731.27        73.99942
731.69        74.03142
732.10        74.13222
732.52        74.30567
732.94        74.47524
733.36        74.56123
733.78        74.63887
734.20        74.76083
734.62        74.18246
735.04        74.19411
735.46        74.16455
735.88        74.19281
736.30        73.89928
736.72        74.08851
737.13        74.44912
737.55        75.03639
737.97        75.52191
738.39         75.7402
738.81        75.40551
739.23        74.74691
739.65        74.61731
740.06        74.95878
740.48        75.24182
740.90        75.40388
741.32        74.74529
741.74        74.91092
742.16        74.89294
742.57        74.89849
742.99         75.0735
743.41         75.2977
743.83        75.48593
744.25        75.59645
744.67        75.69037
745.08        75.76123
745.50         75.7521
745.92        75.67699
746.34        75.50152
746.75        75.27647
747.17        75.27457
747.59        75.19118
748.01        75.35772
748.42        75.59296
748.84        75.64332
749.26        75.57999
749.68        75.54823
750.09        75.61755
750.51        76.15288
750.93        76.86302
751.35        76.59187
751.76         75.5559
752.18        75.15875
752.60        75.47178
753.01        75.80087
753.43        75.93303
753.85        76.11159
754.27        76.22187
754.68        76.58662
755.10        77.19589
755.52         76.3806
755.93            76.6
756.35        76.36898
756.77        76.44057
757.18        76.53755
757.60        76.72462
758.02        77.05407
758.43        77.29016
758.85        77.86211
759.26        77.54128
759.68        77.21061
760.10        76.75578
760.51         76.9558
760.93        77.03603
761.34        76.42902
761.76        76.90359
762.18        76.57134
762.59        76.21465
763.01        76.17827
763.42        76.57053
763.84        77.23351
764.26        77.93565
764.67        77.84384
765.09        77.24001
765.50        77.48634
765.92        78.44044
766.33        78.71646
766.75        78.18832
767.16        77.63057
767.58        77.17413
768.00        76.88364
768.41        76.91596
768.83        77.15707
769.24        77.43264
769.66        78.38098
770.07        78.23766
770.49        78.37386
770.90        78.36256
771.32        78.41183
771.73        78.52717
772.15        78.50137
772.56         78.3746
772.97         78.3433
773.39        78.33917
773.80        78.17805
774.22        77.83085
774.63          77.387
775.05        77.01014
775.46         76.9703
775.88        77.29185
776.29        77.93605
776.70        78.62051
777.12        78.89635
777.53        78.66898
777.95        78.03982
778.36        77.31387
778.77        77.00824
779.19        77.25768
779.60        77.95768
780.02        78.75609
780.43        79.30778
780.84        79.50468
781.26        78.94528
781.67        78.07504
782.09        78.86465
782.50        80.79822
782.91        80.80454
783.33        79.07214
783.74        78.50036
784.15        79.20693
784.57        79.62951
784.98        79.56441
785.39        79.18925
785.81        78.61092
786.22        78.31537
786.63        78.31447
787.04        78.28463
787.46        78.26606
787.87        78.28002
788.28        78.25411
788.70        79.21381
789.11        78.96623
789.52        79.34475
789.93        79.66792
790.35        79.78063
790.76        79.70332
791.17        79.72694
791.58        79.87468
792.00        79.75721
792.41         79.3994
792.82        79.33817
793.23        79.46014
793.65        78.89601
794.06        78.02534
794.47        78.17145
794.88        79.13735
795.29        80.40666
795.71        80.57127
796.12        80.17327
796.53        80.94668
796.94        80.01678
797.35         78.4705
797.76        78.24089
798.18        79.27708
798.59        79.78953
799.00         79.5836
799.41        79.56238
799.82        79.75843
800.23        79.90762
800.64        79.99588
801.06        79.94597
801.47        79.84838
801.88        79.88554
802.29        80.07323
802.70        80.30961
803.11        80.49937
803.52        80.50824
803.93        80.32983
804.34        80.04516
804.75        79.71223
805.17        79.53886
805.58        79.62111
805.99        79.49154
806.40        79.28062
806.81        80.19904
807.22        81.76806
807.63        81.69045
808.04        80.16936
808.45        79.72481
808.86        80.54195
809.27        81.33042
809.68        81.84064
810.09          82.221
810.50        82.36366
810.91        82.21734
811.32        81.89262
811.73        81.61258
812.14        81.37668
812.55        81.02124
812.96        80.55575
813.37        79.99963
813.78         79.5124
814.19        79.50607
814.60        79.88873
815.01        80.12265
815.42        80.15438
815.83        80.26476
816.24        80.47713
816.65        80.68079
817.05        80.86826
817.46        81.01176
817.87        81.09994
818.28        81.07592
818.69        80.95969
819.10        80.77993
819.51        80.62756
819.92        80.74603
820.33         81.1881
820.74        81.61713
821.14        81.98119
821.55          82.758
821.96        83.62599
822.37        83.27438
822.78        81.94238
823.19        81.25928
823.60        81.40456
824.00         81.5334
824.41        81.49126
824.82        81.53144
825.23        81.61434
825.64         81.6992
826.04        81.79465
826.45        81.85455
826.86        81.88489
827.27        81.88987
827.68        81.88564
828.08        81.93348
828.49        81.98198
828.90        82.04127
829.31        82.09911
829.72        82.13284
830.12        82.14726
830.53        82.11562
830.94        82.02528
831.35        81.81978
831.75        81.52942
832.16        81.14308
832.57        80.76849
832.97        80.56727
833.38        80.56065
833.79        80.69751
834.20        80.91956
834.60        81.12106
835.01        81.27883
835.42        81.43548
835.82        81.54249
836.23        81.46333
836.64        81.21257
837.04        80.80541
837.45        80.43186
837.86        80.45777
838.26        80.96129
838.67        81.81242
839.08        82.69431
839.48        83.00421
839.89        82.59989
840.29        81.71866
840.70         80.7881
841.11         80.3543
841.51        80.56472
841.92        81.17407
842.33        82.04883
842.73        82.95682
843.14         83.6544
843.54        84.27732
843.95        84.60896
844.35        84.38967
844.76        83.63615
845.17         82.4642
845.57          81.256
845.98        80.62867
846.38        80.71818
846.79        81.36635
847.19        82.35356
847.60        83.09563
848.00        83.44837
848.41        83.49449
848.81        83.41875
849.22        83.43781
849.62        83.65563
850.03        83.89815
850.43        84.13902
850.84        84.23799
851.24        84.23068
851.65        84.13591
852.05        83.98614
852.46        83.81277
852.86        83.67051
853.27        83.23895
853.67        82.66069
854.07         83.0915
854.48        84.15267
854.88        83.97672
855.29         82.6505
855.69        82.18306
856.10        82.64877
856.50        82.99367
856.90        83.04725
857.31         83.1397
857.71        83.30924
858.12        83.38358
858.52        83.42652
858.92        83.43216
859.33        83.38134
859.73        83.33281
860.13        83.27491
860.54        83.19173
860.94        83.15337
861.34        83.12029
861.75        83.05047
862.15        82.96967
862.55        82.84216
862.96         82.7104
863.36        82.57097
863.76        82.37925
864.17        82.14001
864.57        81.87868
864.97        81.72023
865.38        81.83929
865.78        82.30386
866.18        82.99429
866.58          83.659
866.99        83.85035
867.39        83.50675
867.79        82.73991
868.19        81.74249
868.60         80.8085
869.00        80.02609
869.40        79.35228
869.80        78.92474
870.21        78.94716
870.61        79.47544
871.01        80.40112
871.41        81.34035
871.81        81.67284
872.22        81.28789
872.62        80.37897
873.02        79.29026
873.42        78.74315
873.82        78.77411
874.22        78.83563
874.63        78.93849
875.03        79.19195
875.43        79.51796
875.83        80.58152
876.23        80.44581
876.63        80.12096
877.03        79.29858
877.44        77.99603
877.84        120.1436
878.24        78.67804
878.64         79.7477
879.04        82.39004
879.44        80.25697
879.84        78.75514
880.24        81.09244
880.64        80.60848
881.04        77.96812
881.44        76.28977
881.84        76.17537
882.24        77.10146
882.65         78.4556
883.05        79.14226
883.45         78.7803
883.85        77.93153
884.25         77.0973
884.65          76.833
885.05        77.28984
885.45        78.24895
885.85        79.33206
886.25         79.9324
886.65        79.87429
887.05        79.36852
887.45        78.73492
887.85        78.44331
888.25        78.61979
888.65        79.11276
889.04        79.74604
889.44        80.13204
889.84        80.18517
890.24        80.02301
890.64        79.76673
891.04        79.59344
891.44        79.52934
891.84        79.46006
892.24        79.34065
892.64        79.11221
893.04        78.77475
893.44          78.438
893.83        78.00017
894.23        77.33937
894.63        76.45693
895.03        75.39041
895.43        74.49301
895.83        74.35093
896.23        75.06083
896.63        76.45045
897.02        77.97935
897.42        78.65279
897.82        78.23807
898.22        77.03316
898.62        75.60367
899.01        74.82229
899.41        74.93507
899.81        75.63026
900.21        76.57337
900.61        77.26408
901.00        77.54413
901.40        77.56345
901.80        77.45268
902.20        77.39487
902.59        77.46369
902.99        77.57294
903.39        77.63908
903.79        77.53817
904.18        77.25165
904.58        76.89548
904.98         76.6292
905.38        76.69116
905.77        77.10798
906.17        77.79267
906.57        78.53983
906.96        79.06313
907.36        79.22955
907.76        79.09273
908.15        78.80064
908.55        78.54604
908.95        78.40876
909.34        78.37434
909.74        78.26044
910.14        77.76981
910.53        76.87764
910.93        75.77945
911.33        74.87531
911.72         74.7854
912.12        75.57099
912.52        76.94077
912.91        78.42709
913.31        79.23158
913.70        79.20602
914.10        78.55773
914.49        77.50054
914.89        76.55273
915.29        75.96722
915.68        75.61959
916.08        75.56874
916.47        75.85986
916.87        76.41306
917.26        77.19244
917.66        77.97375
918.05        78.41433
918.45        78.39506
918.84        78.05909
919.24        77.43553
919.64        76.60983
920.03         75.6952
920.42        74.71379
920.82        74.02528
921.21        74.12391
921.61        75.00887
922.00        76.56113
922.40        78.18686
922.79        79.13331
923.19         79.1567
923.58        78.31867
923.98        76.93713
924.37        76.11183
924.77         76.3092
925.16        74.74825
925.55        75.93406
925.95        75.99613
926.34        76.24889
926.74        76.58719
927.13         77.0509
927.52         77.5286
927.92        77.95303
928.31        78.39258
928.70         78.6963
929.10        78.65853
929.49        78.26502
929.89        77.56918
930.28        76.89655
930.67         76.7597
931.07         77.2317
931.46        78.21203
931.85        79.27014
932.24        79.76337
932.64        79.52784
933.03        78.66188
933.42        77.52174
933.82        76.86636
934.21         76.8918
934.60        77.37964
934.99         77.7607
935.39        77.44228
935.78        76.34959
936.17        74.28539
936.56        71.56643
936.96        71.93679
937.35        71.44321
937.74        73.11874
938.13        74.97288
938.53        76.38922
938.92        77.26874
939.31        77.84708
939.70        78.13323
940.09        78.01181
940.49        77.54063
940.88        76.78575
941.27        76.05679
941.66        75.85446
942.05        76.25371
942.44        77.09684
942.84        78.16297
943.23        79.07017
943.62        79.63705
944.01        80.00056
944.40         80.0598
944.79        79.66654
945.18        78.84142
945.57        77.56622
945.97        76.31167
946.36        75.91283
946.75        76.60117
947.14        78.10162
947.53        79.69157
947.92        80.36151
948.31        79.94484
948.70        78.74573
949.09        77.29938
949.48        76.54766
949.87        76.77528
950.26        77.68372
950.65        78.84135
951.04        79.53661
951.43        79.54064
951.82        79.08543
952.21        78.42735
952.60        77.96106
952.99        77.81144
953.38        77.82906
953.77        77.89738
954.16        77.85593
954.55        77.65924
954.94        77.39819
955.33        77.13094
955.72        76.92106
956.11        76.80483
956.50        76.76052
956.89        76.79082
957.28        76.91094
957.66        77.10784
958.05        77.28931
958.44        77.44511
958.83        77.55332
959.22        77.60103
959.61        77.61245
960.00        77.46985
960.39        76.98952
960.78        76.18105
961.16        75.09885
961.55          74.118
961.94        73.67733
962.33        73.86189
962.72        74.56683
963.11        75.41525
963.49         75.7674
963.88        75.36434
964.27        74.42076
964.66        73.36797
965.04        72.92625
965.43        73.26792
965.82         74.1915
966.21        75.27719
966.60        75.84318
966.98        75.72819
967.37        75.12012
967.76        74.43764
968.15        74.32835
968.53        74.94442
968.92        75.96033
969.31        77.00185
969.69        77.46107
970.08        77.11077
970.47        76.21735
970.86        74.99439
971.24        73.74215
971.63        72.68178
972.02        71.77857
972.40        71.15025
972.79        71.00484
973.17        71.39565
973.56        72.16647
973.95        73.24214
974.33        74.42935
974.72        75.45555
975.11         76.3189
975.49        76.75182
975.88        76.37722
976.26        75.22092
976.65        73.48132
977.04        71.59682
977.42        70.34632
977.81        69.98591
978.19         70.2917
978.58        71.12375
978.96        72.23232
979.35        73.35559
979.74        74.66279
980.12        75.75075
980.51        75.66138
980.89        74.42842
981.28        72.30711
981.66         70.2561
982.05        69.64948
982.43        70.64336
982.82        72.80975
983.20        75.39471
983.59        76.68995
983.97        76.26295
984.35        74.51476
984.74        72.24136
985.12        70.60783
985.51        69.96114
985.89        69.95404
986.28        70.26431
986.66        70.38866
987.04        70.07688
987.43        69.71156
987.81        69.25382
988.20        68.58785
988.58        67.63863
988.96        66.19434
989.35        64.65115
989.73         64.3155
990.12        65.59951
990.50        68.09538
990.88        70.39373
991.27        70.93345
991.65        69.72342
992.03        67.17329
992.42        64.38778
992.80        63.58937
993.18        65.43761
993.56        68.95509
993.95        72.80757
994.33        75.56398
994.71        76.69851
995.10        76.67543
995.48        75.90278
995.86        74.89937
996.24        73.90061
996.63        72.77016
997.01        71.39262
997.39        69.79622
997.77        68.23543
998.15        66.92205
998.54        66.29031
998.92        66.70382
999.30        68.21195
999.68        71.02224
1000.06        74.30269
1000.45        75.08299
1000.83        72.34716
1001.21        67.54556
1001.59        63.14489
1001.97        61.08267
1002.35        61.21927
1002.73        62.93815
1003.12        65.48412
1003.50        67.15084
1003.88        66.93509
1004.26        65.44573
1004.64        63.32841
1005.02        61.42879
1005.40        60.05886
1005.78        58.90766
1006.16        58.24482
1006.54        58.68291
1006.92         60.0523
1007.30        61.84568
1007.69        63.47355
1008.07        64.53694
1008.45        64.97405
1008.83        65.05058
1009.21         64.2384
1009.59        61.42989
1009.97        56.49094
1010.35        50.09144
1010.73        45.49662
1011.11        46.15578
1011.49        51.57481
1011.86        60.24998
1012.24        68.16647
1012.62         71.2175
1013.00        69.16779
1013.38        63.73481
1013.76        57.00422
1014.14        52.66536
1014.52        51.98117
1014.90        53.76753
1015.28        56.97767
1015.66        59.89098
1016.04         61.7908
1016.41        63.39645
1016.79         64.2028
1017.17        63.22378
1017.55         60.6488
1017.93        57.06847
1018.31        53.85611
1018.69        52.34058
1019.06        52.43263
1019.44        53.55561
1019.82        55.23095
1020.20         56.1154
1020.58        55.56391
1020.95        54.05405
1021.33        51.71757
1021.71        47.97326
1022.09        41.96379
1022.46        30.66322
1022.84        13.83141
1023.22        8.423935
1023.60        23.82994
1023.97         41.6051
1024.35        51.97219
1024.73        56.01015
