SpectraSmart Spectrum 2.9.0.0
--------- Device Information -----------
Spectrum Name :  反射率_0
Saving Time :  2024/04/20 00:05:56
Spectro-Module Model Name : SE2030-DUVN
Spectro-Module Serial Number : OS361AC55029948
Wavelength Start : 200
Wavelength End : 1025
Wavelength Unit : Wavelength(nm)
Spectrum Unit : Reflectance(%)
-----------Spectrum Setting ------------
Integration Time : 30ms
Average : 10
Boxcar : 0
Background removal :  enabled
linearity correction :  enabled
SC :  disabled
Intensity correction :  disabled
DWT denoise :  enabled
savitzky-golay :  disabled
FFT :  disabled
Running average :  disabled
Kalman :  disabled
High pass :  disabled
---------------BEGIN--------------------
Wavelength(nm)             Reflectance(%)
200.29               0
200.75        52.48745
201.21        52.39961
201.67        54.58447
202.13        59.54456
202.58        67.30656
203.04        78.17924
203.50        88.97657
203.96        91.77092
204.42        86.07539
204.88        76.82185
205.34        68.46625
205.80        63.01254
206.26        59.53573
206.72        56.65711
207.18        54.12043
207.64        52.68155
208.10        53.35571
208.55        56.43999
209.01        59.39158
209.47        60.67264
209.93        60.34042
210.39         58.8658
210.85        56.87022
211.31        55.00084
211.77        53.22235
212.23        51.16441
212.69        48.81276
213.14        47.25963
213.60        47.01961
214.06        48.17144
214.52        49.84606
214.98        51.66271
215.44        53.67244
215.90        55.73936
216.36        58.28432
216.81        61.62711
217.27         65.1749
217.73        68.74462
218.19        70.54317
218.65        68.16839
219.11        61.36583
219.57        50.27822
220.02        37.79119
220.48        31.72527
220.94        34.79612
221.40        45.50569
221.86         58.4619
222.32         65.2351
222.77        63.81834
223.23        56.99841
223.69        48.91501
224.15         45.5536
224.61        47.36134
225.06        51.39974
225.52        54.95996
225.98         55.8117
226.44        53.88202
226.90        50.22176
227.36        46.00511
227.81        43.24114
228.27        42.90496
228.73        44.07591
229.19        45.81292
229.65        47.04305
230.10         47.5492
230.56        47.71505
231.02        47.85374
231.48        48.35992
231.93        49.18933
232.39        50.10131
232.85        50.75705
233.31        50.69657
233.77        49.83775
234.22        48.39484
234.68        46.59557
235.14        44.75999
235.60        43.13516
236.05        41.73005
236.51        40.72705
236.97        40.30403
237.43        40.53132
237.88        41.68508
238.34        43.56189
238.80        45.43474
239.26         46.5905
239.71        46.74577
240.17        46.43758
240.63        47.24889
241.08        49.55678
241.54        52.92591
242.00        55.91676
242.46        55.81616
242.91         51.2822
243.37        41.23001
243.83        26.21494
244.28        15.38668
244.74        18.69562
245.20        35.02215
245.66        52.64727
246.11        61.15136
246.57        59.86589
247.03        50.31507
247.48        35.40739
247.94        30.76354
248.40        38.97325
248.85        49.35301
249.31        56.86585
249.77        60.63486
250.22         61.7161
250.68        61.34284
251.14         60.0839
251.59        58.81248
252.05          58.272
252.51        58.25692
252.96        57.93964
253.42         56.3364
253.88        53.55821
254.33        50.39893
254.79        48.76366
255.25        50.10332
255.70        53.87691
256.16        58.81242
256.62        62.94569
257.07        64.11673
257.53        62.48113
257.99        58.94317
258.44        54.77473
258.90        52.27099
259.35        51.23697
259.81        51.24374
260.27        51.09607
260.72        49.79028
261.18        47.60806
261.63        44.63255
262.09        42.03845
262.55        40.96836
263.00        41.36802
263.46        42.74979
263.91        43.83118
264.37        43.32212
264.83        41.26284
265.28        38.21441
265.74        35.49165
266.19        34.52055
266.65        35.43098
267.11        37.46505
267.56        39.57777
268.02          40.283
268.47         39.3301
268.93        37.23882
269.38        34.66696
269.84        32.92078
270.30        32.35868
270.75        32.58743
271.21        33.11023
271.66        33.19442
272.12        32.63823
272.57        31.71419
273.03        30.72769
273.48        30.04252
273.94        29.79272
274.39         29.7825
274.85        29.83719
275.31        29.70871
275.76        29.31806
276.22        28.76989
276.67         28.1668
277.13         27.7474
277.58        27.50148
278.04        27.37896
278.49        27.18606
278.95        26.70895
279.40        25.90825
279.86        24.95676
280.31        24.00203
280.77        23.36949
281.22        23.05609
281.68        22.97775
282.13        22.98805
282.59        22.89702
283.04        22.65444
283.50         22.3565
283.95        22.02965
284.41        21.73911
284.86        21.49009
285.32        21.26359
285.77        21.09566
286.22        21.10623
286.68        21.28216
287.13        21.56517
287.59        21.80803
288.04        21.78012
288.50        21.46916
288.95        20.92812
289.41        20.34349
289.86        19.93606
290.32        19.80814
290.77        19.88073
291.22        20.06933
291.68        20.20885
292.13        20.26835
292.59        20.32057
293.04        20.44393
293.50        20.76522
293.95        21.29893
294.40        21.97756
294.86        22.72768
295.31        23.45314
295.77        24.12198
296.22        24.76526
296.68        25.38744
297.13        25.97134
297.58        26.53416
298.04        27.08128
298.49        27.66389
298.95        28.40272
299.40        29.29837
299.85        30.31182
300.31        31.34635
300.76        32.24926
301.21        32.98125
301.67        33.60514
302.12        34.15556
302.58        34.74721
303.03        35.38231
303.48        36.03687
303.94        36.71678
304.39        37.39182
304.84        38.05592
305.30         38.7125
305.75        39.30136
306.20        39.75158
306.66        40.07783
307.11        40.29055
307.57         40.4682
308.02        40.65578
308.47         40.8916
308.93        41.14523
309.38        41.41264
309.83        41.74001
310.29        42.10876
310.74        42.50457
311.19        42.80423
311.65        42.80989
312.10        42.49966
312.55        41.95102
313.00        41.36455
313.46         41.0483
313.91         41.0574
314.36        41.31855
314.82        41.66986
315.27        41.86463
315.72        41.81415
316.18        41.60326
316.63        41.31834
317.08        41.10456
317.53        41.00058
317.99        40.94688
318.44        40.89555
318.89        40.76537
319.35        40.53673
319.80        40.24696
320.25        39.94298
320.70        39.69377
321.16        39.51193
321.61        39.37879
322.06        39.24918
322.51        39.05591
322.97        38.77395
323.42        38.43224
323.87        38.06033
324.32        37.71339
324.78        37.40369
325.23        37.12987
325.68        36.86199
326.13        36.55716
326.59        36.20891
327.04        35.86103
327.49        35.54596
327.94         35.3182
328.39        35.18677
328.85        35.10667
329.30        35.09162
329.75        35.10788
330.20        35.13101
330.66         35.1459
331.11        35.12151
331.56        34.95166
332.01        34.62242
332.46        34.15723
332.92        33.65224
333.37        33.29206
333.82        33.13188
334.27         33.1465
334.72        33.24255
335.17        33.25045
335.63        33.10636
336.08        32.85974
336.53         32.6046
336.98        32.51383
337.43        32.62256
337.88        32.87774
338.34        33.10286
338.79        33.06161
339.24        32.68919
339.69        32.06344
340.14        31.41728
340.59        31.13811
341.05        31.30195
341.50        31.78921
341.95        32.34456
342.40        32.57432
342.85        32.38787
343.30        31.92207
343.75        31.35254
344.20        30.96621
344.66        30.84619
345.11        30.86948
345.56        30.97713
346.01        31.07583
346.46        31.11497
346.91         31.1448
347.36        31.09032
347.81        30.82125
348.26         30.3458
348.72        29.72972
349.17         29.1229
349.62        28.85547
350.07        28.99868
350.52         29.4411
350.97        29.99892
351.42        30.39395
351.87        30.53811
352.32        30.49624
352.77        30.32136
353.22        30.10455
353.67         29.8871
354.13        29.65681
354.58        29.39172
355.03         29.1047
355.48        28.81193
355.93        28.53968
356.38        28.32785
356.83        28.22354
357.28        28.22438
357.73        28.29748
358.18        28.38713
358.63        28.40546
359.08        28.31956
359.53        28.15045
359.98        27.90621
360.43        27.60099
360.88        27.25518
361.33        26.87645
361.78        26.50865
362.23        26.22613
362.68        26.04475
363.13        25.93775
363.58        25.87229
364.03        25.79154
364.48        25.66742
364.93        25.51089
365.38        25.29418
365.83        24.97778
366.28        24.57293
366.73         24.1049
367.18        23.64853
367.63        23.32077
368.08         23.1453
368.53        23.08402
368.98          23.085
369.43        23.06041
369.88         22.9808
370.33        22.87553
370.78        22.73323
371.23        22.54017
371.68        22.30305
372.13        22.01132
372.58        21.73769
373.03        21.61022
373.48        21.64516
373.93        21.80247
374.38        21.95397
374.83          21.899
375.28        21.59931
375.72         21.1097
376.17        20.57699
376.62        20.20061
377.07        20.04253
377.52        20.04152
377.97        20.11648
378.42        20.14037
378.87        20.07347
379.32        19.95624
379.77        19.82571
380.22        19.73151
380.67        19.68522
381.11        19.66663
381.56        19.63506
382.01        19.54883
382.46        19.39778
382.91        19.19469
383.36        18.98866
383.81        18.84918
384.26        18.78927
384.71        18.79657
385.15        18.79895
385.60        18.69026
386.05        18.45578
386.50        18.13181
386.95        17.82698
387.40        17.71123
387.85        17.81018
388.29        18.05757
388.74        18.32409
389.19        18.42314
389.64        18.31754
390.09        18.06005
390.54        17.75788
390.98        17.57723
391.43        17.57399
391.88        17.67904
392.33        17.79202
392.78        17.76992
393.23        17.59623
393.67        17.32249
394.12        17.06294
394.57        16.91151
395.02        16.88989
395.47        16.96051
395.91        17.07496
396.36        17.13054
396.81        17.10377
397.26        17.02026
397.71        16.92679
398.15        16.87915
398.60        16.90973
399.05         16.9853
399.50        17.05709
399.95         17.0578
400.39        16.97449
400.84         16.8268
401.29        16.67518
401.74        16.62939
402.18        16.72095
402.63         16.9068
403.08        17.09756
403.53         17.1492
403.97        17.03249
404.42        16.80163
404.87         16.5542
405.32        16.45184
405.76        16.52934
406.21        16.73193
406.66        16.96538
407.11        17.08146
407.55        17.04667
408.00        16.91539
408.45        16.75196
408.90        16.62482
409.34        16.58397
409.79        16.67558
410.24        16.84355
410.68        16.93438
411.13        16.93154
411.58        16.91816
412.03        16.89786
412.47        16.85189
412.92        16.78615
413.37        16.69917
413.81        16.64231
414.26           16.71
414.71        16.90618
415.15        17.21251
415.60           17.51
416.05        17.62626
416.49        17.51854
416.94        17.24344
417.39        16.92287
417.83        16.75607
418.28        16.80003
418.73        16.98642
419.17        17.22041
419.62        17.34349
420.07        17.32026
420.51        17.20672
420.96        17.06742
421.41        16.97868
421.85        16.96092
422.30        16.99752
422.74        17.06658
423.19        17.17012
423.64        17.29178
424.08        17.43977
424.53         17.5805
424.98        17.67979
425.42        17.72828
425.87        17.73651
426.31         17.7037
426.76        17.64178
427.21        17.55264
427.65        17.42973
428.10        17.33483
428.54        17.34523
428.99        17.47423
429.44         17.7672
429.88        18.08287
430.33        18.08191
430.77        17.81275
431.22        17.65686
431.66        17.67481
432.11        17.75986
432.56        17.89421
433.00        18.13533
433.45        18.34091
433.89        18.30012
434.34        18.09609
434.78        17.91848
435.23        17.77784
435.67         18.3007
436.12        18.03757
436.57         17.9488
437.01        17.69421
437.46        17.62293
437.90        17.76195
438.35        17.94103
438.79        18.07914
439.24        18.15549
439.68        18.14952
440.13        17.92629
440.57        17.63298
441.02        17.78622
441.46        18.23077
441.91        18.38262
442.35        17.77027
442.80        17.58079
443.24        17.63075
443.69        17.54946
444.13        17.34101
444.58        17.20925
445.02        17.17657
445.47        17.23345
445.91        17.33128
446.36        17.35157
446.80        17.27002
447.24        17.14515
447.69        17.02517
448.13        16.94497
448.58        16.92602
449.02        16.95186
449.47         16.9926
449.91        16.99458
450.36        16.95177
450.80        16.87851
451.25        16.81599
451.69        16.80897
452.13         16.8703
452.58        16.97323
453.02        17.08566
453.47        17.16112
453.91        17.18751
454.36        17.17839
454.80        17.14196
455.24        17.09178
455.69        17.04385
456.13        16.97674
456.58        16.92061
457.02        16.91066
457.46        16.94888
457.91        16.98896
458.35        17.01139
458.79        17.02881
459.24        17.03218
459.68         17.0195
460.13        17.05182
460.57        17.06153
461.01        17.03451
461.46        17.43183
461.90         17.5534
462.34        17.37741
462.79        17.47808
463.23        17.27774
463.68        17.09208
464.12        16.97932
464.56        17.09812
465.01        17.30159
465.45        17.50938
465.89         17.6026
466.34        17.56265
466.78         17.4103
467.22        17.24603
467.67        17.13912
468.11        17.40944
468.55        17.42143
468.99        17.28211
469.44        17.27327
469.88         17.4002
470.32        17.48914
470.77        17.50999
471.21         17.5132
471.65        17.49648
472.10        17.44683
472.54         17.3904
472.98        17.40783
473.42        17.50758
473.87        17.61658
474.31        17.70835
474.75        17.85031
475.20         17.9953
475.64        17.95783
476.08         17.8042
476.52        17.79478
476.97        17.94732
477.41        18.14481
477.85        18.31629
478.29         18.4006
478.74        18.38016
479.18        18.24533
479.62        18.09777
480.06        18.09771
480.50        18.25117
480.95        18.42849
481.39        18.56178
481.83        18.63479
482.27         18.6306
482.72        18.54871
483.16        18.45082
483.60        18.44373
484.04        18.53763
484.48        18.78998
484.93         19.1795
485.37         19.3688
485.81        19.12143
486.25        19.84606
486.69        20.46877
487.14        19.93872
487.58        19.88979
488.02        20.44484
488.46        19.97141
488.90        20.11963
489.34        20.23232
489.79        20.44703
490.23        20.66992
490.67        20.79617
491.11        20.82738
491.55        20.78802
491.99         20.7245
492.43        20.70909
492.88        20.76942
493.32         20.8743
493.76        21.02089
494.20        21.21047
494.64        21.43516
495.08        21.68954
495.52        21.94201
495.96        22.15895
496.41        22.33339
496.85        22.43017
497.29        22.48317
497.73        22.65687
498.17        22.92891
498.61        23.05276
499.05        23.04893
499.49         23.1854
499.93        23.47631
500.37        23.71608
500.82        23.88674
501.26        24.15627
501.70        24.46007
502.14        24.48203
502.58         24.2844
503.02        24.24314
503.46        24.39025
503.90        24.53265
504.34        24.63159
504.78        24.70623
505.22         24.7437
505.66        24.74886
506.10        24.73909
506.54         24.7369
506.98        24.75604
507.42        24.79735
507.86        24.86515
508.30        24.96581
508.74         25.0942
509.18        25.23756
509.62        25.39451
510.06        25.56172
510.50        25.73217
510.94        25.90952
511.38          26.047
511.82        26.07192
512.26        25.97833
512.70        25.78712
513.14        25.59774
513.58        25.56418
514.02        25.70903
514.46        25.99036
514.90         26.2927
515.34        26.36225
515.78        26.20096
516.22        25.93283
516.66        25.69551
517.10        25.37527
517.54        25.01745
517.98        25.64673
518.42        25.64771
518.86         25.9703
519.30          26.108
519.74        26.23207
520.18        26.32275
520.62         26.3269
521.06        26.26209
521.50         26.1253
521.93        25.95587
522.37        25.83125
522.81        25.77217
523.25        25.76505
523.69        25.78833
524.13        25.80301
524.57        25.79506
525.01        25.77428
525.45        25.74695
525.89        25.72177
526.32        25.69996
526.76        25.67795
527.20        25.64358
527.64        25.58484
528.08        25.49905
528.52        25.38688
528.96        25.27229
529.40        25.18946
529.83        25.14384
530.27        25.13617
530.71        25.12225
531.15        25.03382
531.59         24.8654
532.03        24.64227
532.46        24.43336
532.90        24.36485
533.34        24.44715
533.78        24.63165
534.22        24.83473
534.66        24.92819
535.09        24.87635
535.53        24.73002
535.97        24.53383
536.41        24.35623
536.85        24.22756
537.28          24.142
537.72        24.11237
538.16        24.08451
538.60        24.17097
539.04        24.26536
539.47        24.36892
539.91        24.49134
540.35        24.63783
540.79        24.59461
541.22        24.68828
541.66        24.75958
542.10        24.92838
542.54        24.78956
542.97        25.00174
543.41        25.10656
543.85        25.28232
544.29        25.46305
544.72        25.61584
545.16        25.76384
545.60        25.89451
546.04        25.92269
546.47        25.92523
546.91        26.18694
547.35        26.64297
547.79        26.95158
548.22        27.06687
548.66        27.10233
549.10        27.11064
549.53        27.27634
549.97        27.61794
550.41        27.66042
550.84        27.90911
551.28        28.09859
551.72        28.38695
552.15        28.63111
552.59        28.81371
553.03        29.15531
553.46        29.26899
553.90        29.42445
554.34        29.51384
554.77        29.55211
555.21        29.57713
555.65        29.64328
556.08        29.76109
556.52        29.90884
556.96         30.0626
557.39         30.2205
557.83        30.36432
558.27         30.4276
558.70        30.42723
559.14        30.45884
559.57         30.5236
560.01        30.59217
560.45        30.65296
560.88        30.68642
561.32        30.72629
561.75          30.782
562.19        30.96472
562.63        31.02163
563.06        31.01404
563.50        31.13818
563.93        31.35366
564.37        31.53805
564.80        31.53387
565.24        31.57287
565.68        31.62159
566.11        31.67414
566.55        31.75962
566.98        31.84705
567.42        31.93385
567.85        32.22022
568.29        32.24624
568.72        32.53675
569.16        32.91115
569.60        33.18733
570.03        33.31665
570.47        33.50211
570.90        33.56338
571.34        33.82746
571.77        33.34377
572.21        33.85663
572.64        34.21283
573.08        34.44529
573.51        34.56703
573.95        34.69201
574.38        35.18192
574.82        35.40533
575.25        35.43663
575.69        35.28312
576.12        35.21119
576.56        35.15439
576.99        35.19698
577.42         35.3624
577.86        35.53687
578.29        35.38033
578.73        35.93783
579.16        35.82991
579.60        35.65413
580.03         35.2348
580.47        35.10667
580.90        34.99352
581.33        35.02943
581.77          35.007
582.20        35.54015
582.64         35.2013
583.07        34.76299
583.51        35.05637
583.94        34.38872
584.37        34.18572
584.81        33.90503
585.24        33.89814
585.68        34.06209
586.11        33.84188
586.54        33.63626
586.98        33.45133
587.41        33.45374
587.85        33.54679
588.28        33.61772
588.71           33.51
589.15        33.30984
589.58        32.76292
590.01        32.92735
590.45        33.38871
590.88        33.06455
591.31        33.22896
591.75        32.67473
592.18        32.84378
592.61        32.76559
593.05        33.22231
593.48        32.89145
593.91         33.9878
594.35        33.44339
594.78        33.35903
595.21        33.66564
595.65        34.02934
596.08        34.02472
596.51        34.08255
596.94         34.0997
597.38        34.15666
597.81        34.32541
598.24        34.43162
598.68         34.9432
599.11        35.14274
599.54        36.08412
599.97        36.00488
600.41        36.26329
600.84        36.55849
601.27        37.24232
601.70         37.5357
602.14        37.56396
602.57        37.91138
603.00        38.59042
603.43         39.1175
603.87        39.44004
604.30        39.83109
604.73        40.28665
605.16        40.39874
605.60        40.61779
606.03        41.00983
606.46        41.50243
606.89        42.36851
607.32        42.61693
607.76        42.58184
608.19        43.07633
608.62         43.7224
609.05        43.64013
609.48        43.86415
609.92        44.06973
610.35        44.24384
610.78        44.93172
611.21        45.42736
611.64        45.23331
612.07        45.68359
612.50        45.81852
612.94         45.9903
613.37        46.30029
613.80        46.63567
614.23        47.10422
614.66        47.17538
615.09        47.61424
615.52         47.9782
615.96        48.36098
616.39        48.64347
616.82         48.9043
617.25        48.29536
617.68        48.64994
618.11        48.86344
618.54        49.34985
618.97         49.3965
619.40        49.01592
619.84         49.2156
620.27        48.92867
620.70        49.33802
621.13        49.96066
621.56        50.15364
621.99        50.02765
622.42        50.06942
622.85        50.35447
623.28        50.53799
623.71         50.5842
624.14        50.55069
624.57        50.57101
625.00        50.14863
625.43        50.35252
625.86           49.91
626.29        49.83109
626.72        49.62636
627.15        49.55305
627.58         49.5911
628.01        49.62972
628.44        49.71151
628.87        49.48038
629.30        48.92471
629.73        48.65612
630.16        48.35367
630.59        48.48525
631.02        48.28327
631.45        47.84071
631.88        47.55895
632.31        47.31409
632.74        46.97965
633.17        46.53115
633.60        46.10326
634.03        45.70802
634.46         45.3507
634.89        45.00622
635.32        44.54347
635.75        44.00208
636.18        43.60277
636.61        43.34117
637.04        43.02975
637.47        42.65646
637.89        42.32858
638.32        42.03535
638.75        41.73056
639.18        41.41419
639.61        41.10819
640.04        40.79898
640.47        40.46169
640.90        40.10008
641.33        39.72453
641.76        39.38495
642.18        39.16672
642.61        39.07801
643.04         39.0934
643.47         39.1544
643.90        39.16239
644.33        39.09256
644.76         38.9792
645.18         38.8587
645.61        38.79353
646.04        38.80635
646.47        38.87405
646.90        39.00344
647.33        39.20951
647.75        39.48413
648.18        39.81189
648.61        40.15012
649.04          40.437
649.47         40.6611
649.89        40.82003
650.32        40.96567
650.75        41.24258
651.18        41.68559
651.61        42.11665
652.03        42.53099
652.46        43.27035
652.89        44.21177
653.32        44.48283
653.74        44.19794
654.17        44.83894
654.60        45.20546
655.03        46.12426
655.46        45.75891
655.88        47.04597
656.31        47.99046
656.74        53.61947
657.16        52.15293
657.59        50.03207
658.02        49.64305
658.45        49.25845
658.87         49.9344
659.30        50.16801
659.73        50.53764
660.15        51.05046
660.58        51.05271
661.01          50.919
661.44        50.62695
661.86        50.70803
662.29        51.16707
662.72         51.8071
663.14        52.43516
663.57        52.49544
664.00        52.13706
664.42        52.15873
664.85        52.62148
665.27        53.02629
665.70        53.30028
666.13        53.47741
666.55        53.75684
666.98        53.91057
667.41        54.01907
667.83        54.10126
668.26        54.16382
668.69        54.23079
669.11        54.28064
669.54        54.34945
669.96        54.44177
670.39        54.55687
670.82        54.70613
671.24        54.92073
671.67        55.19712
672.09        55.45056
672.52        55.65476
672.94        55.92441
673.37        56.17681
673.80        56.04815
674.22          55.674
674.65        55.59267
675.07        55.87223
675.50        56.23469
675.92        56.56629
676.35        56.74656
676.77          56.734
677.20        56.59073
677.62        56.42316
678.05        56.32422
678.47        56.45491
678.90        56.69677
679.32         56.9802
679.75        57.22742
680.17        57.38678
680.60        57.51372
681.02        57.64327
681.45         57.6668
681.87        57.85302
682.30        57.98021
682.72        58.08527
683.15        58.16758
683.57        58.25464
684.00        58.15799
684.42        58.03535
684.85        58.50628
685.27        58.49027
685.70           58.88
686.12        59.23338
686.54        59.45176
686.97        59.49881
687.39        59.34022
687.82        59.09808
688.24        59.19351
688.66        59.56417
689.09        59.64137
689.51        59.44557
689.94        59.44159
690.36        59.64681
690.78        59.78765
691.21         59.8516
691.63        59.95692
692.06        60.09867
692.48        60.33567
692.90        60.23222
693.33        60.68283
693.75        60.51892
694.17        60.63045
694.60         60.6874
695.02        60.58408
695.44        60.34872
695.87        60.32664
696.29        60.49593
696.71        60.36657
697.14        60.11712
697.56        60.45299
697.98        61.15587
698.41        61.99119
698.83        61.62425
699.25        61.49109
699.68        61.31264
700.10         61.4578
700.52        61.36152
700.94        61.52976
701.37        61.70736
701.79        61.81207
702.21        61.79268
702.64         61.6917
703.06          61.595
703.48        61.62639
703.90        61.81205
704.33        62.10875
704.75        62.41525
705.17        62.51788
705.59         62.3723
706.01        62.12621
706.44        61.80989
706.86        61.72829
707.28        61.90775
707.70        62.33457
708.12        62.85754
708.55         63.1781
708.97        63.22854
709.39        63.13726
709.81        62.98764
710.23        62.85908
710.66        62.79198
711.08        62.94041
711.50        62.94305
711.92         63.0272
712.34        63.08501
712.76        63.15125
713.19        63.20616
713.61        63.27252
714.03         63.3315
714.45        63.36926
714.87         63.4175
715.29        63.53705
715.71         63.7427
716.13        63.98471
716.56        64.16897
716.98        64.32813
717.40        64.44135
717.82        64.05735
718.24        64.08406
718.66        63.99073
719.08        64.05524
719.50        64.21489
719.92        64.40279
720.34        64.49082
720.76        64.43999
721.19        64.30742
721.61        64.17095
722.03        64.04762
722.45        63.96951
722.87         64.0448
723.29        64.30602
723.71        64.03981
724.13        64.43517
724.55        64.54076
724.97        64.70409
725.39        64.82662
725.81        64.89745
726.23        64.99451
726.65        65.15705
727.07        65.03065
727.49        65.35354
727.91         65.5116
728.33        65.68313
728.75        65.78052
729.17        65.79515
729.59        65.75248
730.01        65.66776
730.43        65.60178
730.85        65.57633
731.27        65.52346
731.69          65.482
732.10        65.64177
732.52        65.93939
732.94        66.08295
733.36        66.02815
733.78        66.00939
734.20        66.05132
734.62         65.9031
735.04        65.57516
735.46        65.79001
735.88        65.64445
736.30        65.60794
736.72         65.8009
737.13        65.95947
737.55        66.12952
737.97         66.5005
738.39        66.91025
738.81        66.74899
739.23         66.2125
739.65        65.97028
740.06        66.01392
740.48         66.4978
740.90         67.3307
741.32        65.93093
741.74        66.10377
742.16        65.77432
742.57        66.03732
742.99        66.31083
743.41        66.49001
743.83        66.62192
744.25         66.6284
744.67        66.51944
745.08         66.3465
745.50        66.17839
745.92         66.0584
746.34        65.96408
746.75        65.89388
747.17        65.84291
747.59        65.82039
748.01        65.85267
748.42        65.92229
748.84         66.0294
749.26        66.18584
749.68        66.16548
750.09        66.05959
750.51        66.49107
750.93        67.20749
751.35        67.14735
751.76        66.45605
752.18        66.03452
752.60        66.02741
753.01        66.57818
753.43        66.14478
753.85        66.25789
754.27        66.44815
754.68        66.75175
755.10        67.04862
755.52        67.04495
755.93        66.79926
756.35        66.67873
756.77        66.76195
757.18         66.8489
757.60        66.96647
758.02        67.27759
758.43        67.65542
758.85        67.68475
759.26        67.80017
759.68        67.28691
760.10        66.97977
760.51        66.77323
760.93         66.9043
761.34        66.62652
761.76        66.83846
762.18        66.69047
762.59        66.55315
763.01         66.5754
763.42        67.00937
763.84        67.23476
764.26        67.29727
764.67         67.2219
765.09        67.16441
765.50        67.47903
765.92        68.05881
766.33        68.27236
766.75        67.99701
767.16        67.66598
767.58        67.34822
768.00        66.87616
768.41        66.49786
768.83        66.81378
769.24          67.646
769.66        68.25944
770.07        68.45126
770.49        68.15733
770.90        67.61616
771.32        67.72206
771.73        68.37462
772.15        68.51686
772.56        68.13902
772.97         67.8231
773.39        67.63628
773.80        67.67035
774.22        67.78291
774.63        67.35789
775.05         66.5824
775.46        66.39477
775.88        66.85109
776.29          67.498
776.70        68.06041
777.12        68.31422
777.53         68.1712
777.95        67.66286
778.36        67.05754
778.77        66.81597
779.19        67.05565
779.60        67.69366
780.02        68.39993
780.43        68.83911
780.84        68.91565
781.26        68.27514
781.67        67.36748
782.09        68.04643
782.50        69.86696
782.91        70.04272
783.33         68.6731
783.74        68.28288
784.15        68.95641
784.57        69.19472
784.98        68.91299
785.39        68.71345
785.81        68.58835
786.22        68.30414
786.63        67.95304
787.04        67.78743
787.46        67.83149
787.87         67.9841
788.28          68.231
788.70        68.50438
789.11        68.74827
789.52        69.08781
789.93        69.42757
790.35        69.33304
790.76        68.90803
791.17        68.80734
791.58        69.01735
792.00        68.87736
792.41        68.39439
792.82        68.16076
793.23        68.17097
793.65        67.82994
794.06        67.38518
794.47        67.70365
794.88        68.55941
795.29        69.32444
795.71        69.55892
796.12        68.85103
796.53        69.47604
796.94        68.99384
797.35        68.30835
797.76        68.09698
798.18        68.38323
798.59        68.65603
799.00        68.77382
799.41        68.83508
799.82        68.83211
800.23        68.87244
800.64        68.95466
801.06        68.88678
801.47         68.7688
801.88         68.8185
802.29        69.05348
802.70        69.38035
803.11        69.67317
803.52         69.7326
803.93        69.52279
804.34        69.13316
804.75        68.67486
805.17        68.36336
805.58        68.28399
805.99        68.23331
806.40        68.25729
806.81        68.75319
807.22        69.43569
807.63        69.81783
808.04        68.97555
808.45        68.99178
808.86        69.63865
809.27        70.28554
809.68        70.74223
810.09        70.99391
810.50        70.96938
810.91        70.67799
811.32        70.24911
811.73        69.83713
812.14        69.49995
812.55        69.33285
812.96        69.27792
813.37        68.93343
813.78        68.42258
814.19        68.44791
814.60        68.90755
815.01        69.09168
815.42        68.95344
815.83        68.84597
816.24        68.85679
816.65        68.96954
817.05        69.20725
817.46        69.51967
817.87        69.80309
818.28        69.85893
818.69        69.66402
819.10        69.28449
819.51        68.86461
819.92         68.7123
820.33        68.92056
820.74        69.26141
821.14          69.661
821.55        70.27077
821.96        70.89086
822.37        70.87369
822.78        70.32273
823.19        70.03532
823.60        70.10248
824.00        70.10735
824.41         69.9852
824.82        69.93774
825.23        69.96619
825.64        70.02686
826.04        70.13821
826.45        70.27635
826.86        70.43549
827.27        70.61732
827.68        70.75421
828.08        70.75475
828.49         70.5531
828.90        70.20603
829.31        69.82626
829.72        69.61752
830.12        69.65735
830.53        69.85393
830.94        70.11704
831.35         70.2727
831.75        70.29419
832.16        70.19529
832.57        70.04472
832.97        69.93574
833.38        69.88624
833.79        69.86085
834.20        69.85717
834.60        69.87053
835.01        69.90807
835.42        69.98441
835.82        70.06226
836.23        70.01936
836.64        69.85996
837.04        69.61366
837.45        69.38159
837.86        69.37421
838.26        69.64384
838.67        70.09832
839.08          70.588
839.48        70.81736
839.89        70.70354
840.29        70.36224
840.70        69.99213
841.11        69.81721
841.51        69.91841
841.92        70.17316
842.33        70.56822
842.73        71.08805
843.14         71.5967
843.54        72.14462
843.95        72.55248
844.35        72.60542
844.76        72.28069
845.17        71.67253
845.57        70.97817
845.98        70.52461
846.38        70.40222
846.79        70.52506
847.19         70.8623
847.60         71.2183
848.00        71.55946
848.41        71.86123
848.81        72.14723
849.22        72.36913
849.62        72.55611
850.03         72.6581
850.43        72.67692
850.84        72.54105
851.24        72.30724
851.65        71.95602
852.05        71.64512
852.46        71.51368
852.86        71.59639
853.27        71.85855
853.67        72.13313
854.07        72.29213
854.48        72.27069
854.88        72.14576
855.29        71.90831
855.69        71.69553
856.10         71.4731
856.50        71.27959
856.90        71.13375
857.31        71.10203
857.71         71.2656
858.12        71.56001
858.52        71.89761
858.92        72.02395
859.33        71.87296
859.73        71.52253
860.13        71.13688
860.54        71.04811
860.94        71.39235
861.34        72.01955
861.75        72.62878
862.15        72.83014
862.55        72.48852
862.96        71.78043
863.36        70.93137
863.76         70.2925
864.17        69.99345
864.57        69.94389
864.97        70.12732
865.38        70.50318
865.78         71.0586
866.18        71.72974
866.58        72.31144
866.99        72.43729
867.39        72.05247
867.79        71.23088
868.19        70.10517
868.60        68.88698
869.00        67.66455
869.40        66.47314
869.80         65.5519
870.21        65.26418
870.61        65.72086
871.01        66.76593
871.41        68.01429
871.81        68.83823
872.22        69.08199
872.62         68.8941
873.02        68.43464
873.42        68.22108
873.82        68.17213
874.22         67.6094
874.63        66.79846
875.03        66.41109
875.43        66.57169
875.83        68.21989
876.23        68.02991
876.63         67.3972
877.03        65.73351
877.44        63.21458
877.84        134.0123
878.24        63.68416
878.64        65.31719
879.04        69.72828
879.44        66.17513
879.84        64.28059
880.24        69.20123
880.64        69.59946
881.04        66.61932
881.44        64.70287
881.84        64.52046
882.24        65.38325
882.65        66.66364
883.05        67.08172
883.45        66.25793
883.85        64.95863
884.25        63.82056
884.65        63.45943
885.05         64.0363
885.45        65.30946
885.85        66.75784
886.25        67.53099
886.65         67.3861
887.05        66.59369
887.45        65.60991
887.85        65.12051
888.25        65.30438
888.65        65.94958
889.04        66.77214
889.44         67.2163
889.84        67.14438
890.24        66.73644
890.64        66.22738
891.04         65.9544
891.44         65.9772
891.84        66.13336
892.24        66.26553
892.64        66.12693
893.04        65.67525
893.44        65.08782
893.83        64.39973
894.23        63.66108
894.63        62.91155
895.03        62.12301
895.43        61.53377
895.83        61.54631
896.23        62.20195
896.63        63.37728
897.02        64.62151
897.42        65.11048
897.82        64.66034
898.22        63.53016
898.62        62.20245
899.01        61.42379
899.41        61.41652
899.81        61.93144
900.21        62.72778
900.61        63.44468
901.00         63.9418
901.40        64.29709
901.80        64.56036
902.20        64.78413
902.59        64.98862
902.99        65.13419
903.39        65.12228
903.79        64.81799
904.18        64.23116
904.58        63.48452
904.98        62.85259
905.38         62.7465
905.77        63.21602
906.17        64.11547
906.57        65.10509
906.96        65.67498
907.36        65.63933
907.76        65.13135
908.15        64.41331
908.55        63.85257
908.95         63.5959
909.34         63.5962
909.74        63.63183
910.14        63.31465
910.53        62.57389
910.93        61.58978
911.33        60.83266
911.72        61.03632
912.12        62.23978
912.52        64.10628
912.91         65.9576
913.31        66.67081
913.70        66.05903
914.10        64.44263
914.49        62.33939
914.89         60.9137
915.29        60.59772
915.68        61.04283
916.08        61.96537
916.47        62.95575
916.87        63.80008
917.26        64.61642
917.66        65.21864
918.05         65.3221
918.45        64.88084
918.84        64.01738
919.24        62.91524
919.64        61.92405
920.03        61.20496
920.42        60.70831
920.82        60.61268
921.21        61.12665
921.61        62.16253
922.00        63.66483
922.40        65.10708
922.79         65.8656
923.19        65.78681
923.58         64.7892
923.98        63.15215
924.37         62.2635
924.77        62.67978
925.16        60.13881
925.55        61.83589
925.95        61.80959
926.34        62.17081
926.74        62.70658
927.13        63.38808
927.52        63.93877
927.92        64.25157
928.31        64.46409
928.70        64.49387
929.10        64.27242
929.49        63.82937
929.89        63.18334
930.28        62.65138
930.67        62.73821
931.07        63.48541
931.46        64.78622
931.85        66.12424
932.24        66.72693
932.64        66.41174
933.03        65.28178
933.42        63.78888
933.82        62.88471
934.21        62.84183
934.60        63.41096
934.99        63.89204
935.39        63.63955
935.78        62.57692
936.17        60.27311
936.56        57.07279
936.96        58.20787
937.35        57.55986
937.74        59.81087
938.13         62.0934
938.53        63.58722
938.92        64.18257
939.31        64.20586
939.70        63.88296
940.09         63.4627
940.49        63.13607
940.88        62.84608
941.27        62.71671
941.66        62.97765
942.05        63.61907
942.44        64.54623
942.84        65.59451
943.23        66.46239
943.62        67.00026
944.01        67.30828
944.40        67.23578
944.79        66.56619
945.18        65.31029
945.57        63.48296
945.97        61.68066
946.36        60.92874
946.75        61.54543
947.14         63.2044
947.53        65.03091
947.92        65.79544
948.31         65.2861
948.70        63.86637
949.09         62.1757
949.48        61.34179
949.87        61.69855
950.26        62.87535
950.65        64.34185
951.04        65.23029
951.43        65.25896
951.82        64.70873
952.21        63.89207
952.60        63.28844
952.99        63.06308
953.38        63.05559
953.77        63.13398
954.16        63.11679
954.55        62.95147
954.94        62.72698
955.33        62.54443
955.72        62.53507
956.11        62.73615
956.50        63.10418
956.89        63.50727
957.28        63.71292
957.66        63.66976
958.05        63.38861
958.44         63.0556
958.83        62.91623
959.22        63.00525
959.61         63.2506
960.00        63.45748
960.39        63.29173
960.78        62.67607
961.16        61.70574
961.55        60.70015
961.94        60.01432
962.33        59.74739
962.72        59.83323
963.11        60.03545
963.49         59.9647
963.88        59.46575
964.27        58.69498
964.66        58.01202
965.04        57.99779
965.43        58.75235
965.82        60.07841
966.21        61.50963
966.60        62.29696
966.98        62.26298
967.37        61.60685
967.76        60.77198
968.15        60.46249
968.53         60.8724
968.92        61.69351
969.31        62.61064
969.69        63.10331
970.08        62.95185
970.47        62.36797
970.86        61.48956
971.24        60.49229
971.63        59.53826
972.02        58.59617
972.40        57.72943
972.79        57.08991
973.17        56.73826
973.56        56.58966
973.95        56.69587
974.33        57.09439
974.72        57.62231
975.11        58.23841
975.49        58.67198
975.88        58.50324
976.26        57.70349
976.65        56.47708
977.04        55.10427
977.42        54.09748
977.81        53.65983
978.19        53.59248
978.58        53.97749
978.96        54.92786
979.35        56.31683
979.74        58.23405
980.12        60.05698
980.51        60.43941
980.89        59.29506
981.28        56.99867
981.66        54.75886
982.05        54.25827
982.43        55.71299
982.82        58.56201
983.20        61.85242
983.59        63.52888
983.97        63.03099
984.35        60.91388
984.74        58.10852
985.12         55.9709
985.51        54.94952
985.89        54.59216
986.28        54.72043
986.66        55.01677
987.04        55.24031
987.43        55.62992
987.81        55.84737
988.20        55.36933
988.58        54.04488
988.96        51.68948
989.35        48.87243
989.73        47.43465
990.12        48.26987
990.50        50.83654
990.88         53.5265
991.27        54.47456
991.65        53.63858
992.03        51.50673
992.42        49.12375
992.80        48.48812
993.18        50.21796
993.56        53.35788
993.95        56.73871
994.33        59.21732
994.71        60.32648
995.10        60.51142
995.48        60.03142
995.86        59.15064
996.24        58.03341
996.63        56.56057
997.01        54.86777
997.39        53.63411
997.77        53.21312
998.15        53.50574
998.54         54.1799
998.92        54.81322
999.30        55.29619
999.68        55.76868
1000.06        55.93256
1000.45         55.1302
1000.83        53.44649
1001.21        51.31223
1001.59        49.47853
1001.97        48.41463
1002.35        47.96084
1002.73        47.95551
1003.12        48.08155
1003.50        47.73698
1003.88        46.71589
1004.26        45.34435
1004.64        43.99393
1005.02        43.10595
1005.40        42.80558
1005.78        42.93014
1006.16        43.59768
1006.54        44.93198
1006.92        46.53552
1007.30        47.98301
1007.69        48.86253
1008.07        48.99497
1008.45        48.20953
1008.83        46.47348
1009.21        43.07359
1009.59        37.37688
1009.97        30.25173
1010.35        23.04266
1010.73        18.84896
1011.11        20.09536
1011.49        25.99295
1011.86        35.35155
1012.24         44.1436
1012.62        48.47288
1013.00        48.01547
1013.38        44.11896
1013.76        38.90547
1014.14        36.10649
1014.52        36.82695
1014.90        39.92921
1015.28        43.58492
1015.66        44.73862
1016.04        42.34396
1016.41        37.15432
1016.79        30.60555
1017.17        26.29428
1017.55        25.96618
1017.93        28.20577
1018.31        31.28894
1018.69        33.72258
1019.06        35.19771
1019.44        35.90033
1019.82        35.99075
1020.20         35.5262
1020.58        34.54542
1020.95        33.15681
1021.33         30.5837
1021.71        24.63845
1022.09        13.16914
1022.46       -9.584344
1022.84       -44.84299
1023.22       -59.09072
1023.60       -30.80295
1023.97        4.105569
1024.35        24.52042
1024.73        31.29353
