SpectraSmart Spectrum 2.9.0.0
--------- Device Information -----------
Spectrum Name :  反射率_0
Saving Time :  2024/04/20 00:49:16
Spectro-Module Model Name : SE2030-DUVN
Spectro-Module Serial Number : OS361AC55029948
Wavelength Start : 200
Wavelength End : 1025
Wavelength Unit : Wavelength(nm)
Spectrum Unit : Reflectance(%)
-----------Spectrum Setting ------------
Integration Time : 30ms
Average : 10
Boxcar : 0
Background removal :  enabled
linearity correction :  enabled
SC :  disabled
Intensity correction :  disabled
DWT denoise :  enabled
savitzky-golay :  disabled
FFT :  disabled
Running average :  disabled
Kalman :  disabled
High pass :  disabled
---------------BEGIN--------------------
Wavelength(nm)             Reflectance(%)
200.29               0
200.75        64.27319
201.21        64.59207
201.67        67.09447
202.13        72.00498
202.58        79.27864
203.04        89.04025
203.50        98.74007
203.96        101.8608
204.42        97.80376
204.88        90.53291
205.34        83.76463
205.80        79.22279
206.26        76.20821
206.72        73.61186
207.18        71.40313
207.64        70.78148
208.10        72.80496
208.55        77.19881
209.01        81.18344
209.47        83.26337
209.93        83.55711
210.39        82.47645
210.85        80.72764
211.31        79.07872
211.77        77.52055
212.23        75.73695
212.69        73.38579
213.14        70.86217
213.60        68.83632
214.06        68.10345
214.52        68.38506
214.98        69.39857
215.44        70.98792
215.90        73.02054
216.36        75.50801
216.81         77.9973
217.27          79.864
217.73        81.33998
218.19        81.73937
218.65        80.15582
219.11        76.62388
219.57        71.09105
220.02        65.42883
220.48        64.73705
220.94        70.36279
221.40        81.16468
221.86        92.96835
222.32        99.50052
222.77        99.37344
223.23        94.80077
223.69        89.01003
224.15        86.70496
224.61        88.38651
225.06         91.8058
225.52        95.34305
225.98        97.56803
226.44        98.46178
226.90        98.71828
227.36        98.76833
227.81        99.03149
228.27        99.84381
228.73        100.7384
229.19        101.4054
229.65        101.5712
230.10        101.1829
230.56        100.6456
231.02        100.0847
231.48         99.7759
231.93        99.63136
232.39         99.5592
232.85        99.36671
233.31         98.8531
233.77        97.97296
234.22        96.89219
234.68        95.49841
235.14        93.56136
235.60        91.22429
236.05        88.65886
236.51        86.47472
236.97        85.52167
237.43        86.00166
237.88        88.13699
238.34        91.14438
238.80        93.22999
239.26        92.95364
239.71        90.47006
240.17        86.63562
240.63        83.46832
241.08        81.58774
241.54         80.5531
242.00        79.53064
242.46        76.72683
242.91        71.14362
243.37        61.65079
243.83        48.95067
244.28        41.11802
244.74        46.13559
245.20        62.32823
245.66        78.57075
246.11        85.54903
246.57        82.51313
247.03        70.11784
247.48        50.63532
247.94        41.15496
248.40        46.78593
248.85        56.44792
249.31        63.91724
249.77        67.35619
250.22        67.70832
250.68        66.38816
251.14        64.18667
251.59        62.63292
252.05        62.86839
252.51        64.55806
252.96        66.70329
253.42        67.81252
253.88        67.64264
254.33        66.94633
254.79        67.49733
255.25        70.74907
255.70         76.2428
256.16        82.67899
256.62        88.52146
257.07        92.13564
257.53         93.5853
257.99        93.41195
258.44         91.6729
258.90        89.44491
259.35        86.90054
259.81        84.99287
260.27        83.44273
260.72         81.9966
261.18         80.9286
261.63        79.71786
262.09        79.04341
262.55        79.18368
263.00        79.86185
263.46        80.99168
263.91        81.59548
264.37         81.0069
264.83        79.21013
265.28        76.53403
265.74        74.00371
266.19        72.45594
266.65        72.14589
267.11        72.58081
267.56         73.1638
268.02        73.08117
268.47        72.13953
268.93         70.6468
269.38        68.93401
269.84        67.74654
270.30        67.25018
270.75        67.19716
271.21        67.26027
271.66        66.92766
272.12        66.08287
272.57        64.88112
273.03        63.59538
273.48        62.52546
273.94        61.83443
274.39        61.36638
274.85         61.0049
275.31        60.49382
275.76         59.7399
276.22        58.85226
276.67        57.93776
277.13        57.32155
277.58        56.94903
278.04        56.77906
278.49        56.46566
278.95        55.66653
279.40        54.30354
279.86          52.667
280.31        51.02294
280.77        49.94926
281.22        49.44091
281.68        49.36078
282.13        49.40934
282.59        49.23776
283.04        48.71975
283.50        48.02156
283.95        47.22451
284.41        46.53064
284.86        45.94559
285.32        45.44063
285.77        44.94841
286.22         44.4744
286.68        44.02174
287.13        43.57345
287.59        43.14754
288.04        42.68511
288.50        42.20702
288.95        41.67997
289.41        41.14618
289.86        40.58222
290.32        40.04772
290.77        39.53177
291.22        39.08361
291.68        38.73812
292.13        38.49471
292.59          38.368
293.04        38.33624
293.50        38.39651
293.95        38.52333
294.40        38.70282
294.86        38.92845
295.31        39.19747
295.77         39.5045
296.22        39.84917
296.68        40.18693
297.13        40.42936
297.58        40.57813
298.04        40.67085
298.49        40.80846
298.95        41.19048
299.40        41.82614
299.85          42.646
300.31        43.51029
300.76        44.18932
301.21         44.6349
301.67        44.95057
302.12        45.18619
302.58        45.49822
303.03        45.89484
303.48        46.34145
303.94        46.86682
304.39        47.46862
304.84        48.13858
305.30        48.86749
305.75        49.53214
306.20        49.97363
306.66        50.19222
307.11        50.21774
307.57        50.19275
308.02        50.24778
308.47         50.4439
308.93        50.72484
309.38        51.03387
309.83        51.34663
310.29        51.63123
310.74        51.89667
311.19        52.05992
311.65        51.98343
312.10        51.65275
312.55        51.11658
313.00        50.54495
313.46         50.2014
313.91        50.12443
314.36        50.25745
314.82        50.43985
315.27        50.43161
315.72        50.15797
316.18        49.71426
316.63        49.21217
317.08        48.83735
317.53          48.635
317.99        48.53432
318.44        48.46845
318.89        48.31995
319.35        48.05488
319.80        47.71802
320.25        47.35607
320.70        47.04082
321.16        46.78686
321.61        46.57417
322.06        46.36435
322.51        46.10488
322.97        45.77365
323.42        45.39872
323.87         45.0031
324.32        44.63102
324.78        44.28782
325.23        43.97582
325.68        43.66273
326.13         43.3048
326.59         42.8954
327.04        42.48197
327.49        42.09587
327.94         41.7919
328.39        41.58139
328.85        41.41967
329.30        41.33565
329.75        41.30942
330.20        41.32096
330.66         41.3498
331.11        41.35658
331.56        41.21637
332.01        40.90887
332.46         40.4607
332.92        39.96545
333.37        39.61406
333.82        39.46051
334.27        39.47606
334.72        39.57326
335.17        39.59381
335.63        39.47491
336.08        39.27009
336.53        39.05892
336.98        38.99232
337.43        39.10198
337.88         39.3414
338.34        39.55402
338.79        39.53883
339.24        39.23658
339.69        38.71255
340.14        38.17427
340.59        37.96654
341.05        38.15296
341.50        38.62606
341.95        39.14782
342.40        39.35192
342.85        39.15816
343.30        38.69702
343.75        38.13985
344.20        37.76728
344.66         37.6594
345.11        37.69457
345.56        37.81736
346.01         37.9385
346.46        38.00592
346.91        38.06801
347.36        38.03804
347.81        37.76685
348.26        37.26449
348.72        36.60807
349.17         35.9671
349.62        35.70346
350.07        35.89034
350.52        36.39073
350.97        37.01637
351.42        37.48385
351.87        37.69474
352.32        37.72028
352.77        37.56281
353.22         37.2333
353.67        36.77501
354.13        36.21151
354.58        35.62649
355.03        35.20118
355.48        34.98192
355.93        34.93821
356.38        35.00381
356.83        35.05598
357.28        35.04428
357.73        34.98513
358.18        34.87977
358.63         34.7377
359.08        34.56396
359.53        34.35078
359.98        34.09029
360.43        33.77583
360.88        33.41698
361.33        33.02938
361.78        32.66418
362.23        32.39957
362.68        32.25071
363.13        32.19095
363.58        32.15862
364.03        32.05562
364.48         31.8507
364.93        31.56292
365.38        31.22422
365.83        30.89748
366.28        30.60672
366.73        30.33506
367.18        30.06765
367.63        29.78083
368.08        29.47139
368.53        29.15828
368.98        28.85589
369.43        28.57571
369.88        28.32301
370.33        28.09812
370.78        27.89373
371.23        27.70169
371.68        27.52108
372.13         27.3471
372.58        27.20608
373.03        27.14245
373.48        27.15241
373.93        27.21088
374.38        27.24615
374.83        27.15108
375.28        26.90591
375.72        26.53569
376.17        26.13368
376.62        25.81216
377.07        25.61259
377.52         25.5062
377.97        25.45787
378.42        25.40937
378.87        25.33869
379.32        25.26194
379.77        25.18855
380.22        25.12799
380.67        25.08097
381.11        25.04302
381.56         24.9833
382.01        24.87791
382.46        24.72132
382.91         24.5146
383.36        24.30428
383.81        24.15866
384.26        24.08792
384.71        24.08304
385.15        24.06083
385.60        23.89951
386.05        23.58592
386.50        23.16746
386.95        22.77678
387.40         22.6216
387.85        22.73451
388.29        23.03042
388.74        23.36725
389.19        23.53098
389.64        23.47434
390.09        23.25467
390.54        22.97407
390.98        22.78901
391.43         22.7616
391.88        22.82862
392.33        22.90179
392.78        22.85658
393.23        22.68125
393.67        22.41687
394.12         22.1868
394.57        22.08343
395.02        22.12561
395.47        22.27448
395.91        22.46332
396.36        22.55005
396.81        22.50466
397.26        22.36422
397.71        22.20211
398.15        22.11192
398.60        22.14024
399.05        22.23829
399.50        22.34215
399.95        22.36224
400.39        22.27985
400.84        22.12093
401.29         21.9498
401.74        21.88294
402.18        21.95481
402.63        22.11819
403.08        22.28428
403.53        22.30909
403.97        22.16433
404.42        21.90975
404.87        21.64149
405.32         21.5184
405.76        21.57522
406.21        21.75709
406.66        21.97888
407.11         22.1067
407.55        22.10741
408.00        22.03112
408.45        21.92023
408.90        21.79123
409.34        21.69142
409.79        21.71072
410.24        21.80948
410.68        21.83688
411.13        21.78475
411.58        21.73946
412.03         21.7052
412.47        21.65784
412.92        21.59826
413.37        21.52957
413.81         21.4849
414.26         21.5306
414.71        21.66648
415.15        21.88141
415.60        22.08331
416.05        22.15055
416.49        22.05223
416.94        21.82805
417.39        21.56878
417.83        21.42204
418.28        21.43169
418.73        21.54642
419.17        21.69223
419.62        21.74534
420.07        21.67984
420.51        21.53863
420.96        21.38072
421.41        21.27247
421.85        21.22768
422.30         21.2358
422.74        21.27058
423.19         21.3292
423.64        21.39504
424.08        21.48337
424.53        21.56018
424.98        21.59925
425.42        21.59843
425.87        21.56441
426.31        21.51263
426.76        21.47854
427.21        21.45984
427.65        21.43862
428.10        21.43459
428.54        21.45104
428.99        21.49138
429.44        21.64863
429.88        21.81482
430.33        21.67671
430.77        21.31081
431.22        21.14169
431.66          21.209
432.11        21.32593
432.56        21.45359
433.00        21.69854
433.45         21.8758
433.89        21.73553
434.34        21.44028
434.78        21.18333
435.23         20.9108
435.67        21.97971
436.12         21.3049
436.57        21.18639
437.01        20.83594
437.46         20.7037
437.90        20.82043
438.35        20.99131
438.79        21.12746
439.24        21.18179
439.68        21.13024
440.13        20.82106
440.57        20.43602
441.02         20.5897
441.46        21.10517
441.91        21.30186
442.35        20.61937
442.80        20.41401
443.24        20.47207
443.69        20.36622
444.13         20.1168
444.58        19.98352
445.02        19.99547
445.47        20.13142
445.91        20.31382
446.36        20.37069
446.80        20.26712
447.24        20.08395
447.69        19.89506
448.13        19.77065
448.58        19.74143
449.02        19.77496
449.47        19.83043
449.91         19.8356
450.36        19.77889
450.80        19.68591
451.25        19.59072
451.69        19.52323
452.13        19.50072
452.58        19.50177
453.02        19.52678
453.47        19.58192
453.91        19.66179
454.36        19.76353
454.80        19.85175
455.24        19.86347
455.69        19.79734
456.13         19.6558
456.58        19.50923
457.02        19.45256
457.46        19.49963
457.91         19.5728
458.35        19.63938
458.79        19.70173
459.24        19.74174
459.68        19.76855
460.13        19.82942
460.57        19.80883
461.01         19.6893
461.46        20.01265
461.90        20.02343
462.34        19.78615
462.79        19.96803
463.23        19.88804
463.68        19.83544
464.12        19.75613
464.56        19.80955
465.01        19.87008
465.45        19.91576
465.89         19.9319
466.34        19.92071
466.78        19.82216
467.22        19.69371
467.67        19.76965
468.11        20.00208
468.55        19.99999
468.99        19.79521
469.44         19.7617
469.88        19.91431
470.32        20.04233
470.77        20.09892
471.21        20.11404
471.65        20.08015
472.10        19.99142
472.54        19.89148
472.98        19.89048
473.42        20.00226
473.87        20.13685
474.31        20.25177
474.75        20.40747
475.20        20.54715
475.64        20.46698
476.08        20.25265
476.52        20.21433
476.97        20.37496
477.41        20.59433
477.85         20.7901
478.29        20.89004
478.74        20.87127
479.18        20.72473
479.62        20.55555
480.06        20.52982
480.50        20.64901
480.95        20.77438
481.39        20.85532
481.83        20.88736
482.27        20.85527
482.72        20.86175
483.16         20.7593
483.60         20.7549
484.04        20.79287
484.48        20.93729
484.93        21.24758
485.37        21.32602
485.81        21.33311
486.25        22.00429
486.69        22.57135
487.14        21.81942
487.58        21.56629
488.02        22.36948
488.46         22.0624
488.90        22.19043
489.34        21.91387
489.79         21.9714
490.23        22.31141
490.67        22.54218
491.11        22.63473
491.55        22.65677
491.99        22.63489
492.43        22.64486
492.88        22.70306
493.32        22.72686
493.76        22.74499
494.20        22.85371
494.64        23.06217
495.08        23.34338
495.52        23.64073
495.96        23.86127
496.41        23.99779
496.85        24.07816
497.29        24.13784
497.73        24.30027
498.17         24.5405
498.61        24.62693
499.05        24.58113
499.49        24.67377
499.93         24.9226
500.37        25.11609
500.82        25.25318
501.26        25.53463
501.70         25.8942
502.14        25.99032
502.58        25.85736
503.02        25.84301
503.46        25.97156
503.90        26.05629
504.34        26.07837
504.78        26.09418
505.22        26.10433
505.66         26.1037
506.10        26.10996
506.54        26.14585
506.98        26.21857
507.42        26.32541
507.86        26.45525
508.30        26.58787
508.74        26.71226
509.18        26.82512
509.62        26.93066
510.06        27.03724
510.50        27.14541
510.94        27.25471
511.38        27.33955
511.82        27.36051
512.26        27.31479
512.70        27.21577
513.14        27.11966
513.58        27.10969
514.02        27.19537
514.46        27.35575
514.90        27.52714
515.34        27.53962
515.78         27.4183
516.22        27.25564
516.66        27.14214
517.10        26.89277
517.54        26.53195
517.98        27.08706
518.42        27.00601
518.86        27.26995
519.30        27.39541
519.74        27.53176
520.18         27.6418
520.62        27.64699
521.06        27.55729
521.50        27.38279
521.93        27.16951
522.37        27.00277
522.81          26.909
523.25        26.87181
523.69        26.87474
524.13        26.88821
524.57        26.89673
525.01         26.9042
525.45          26.907
525.89        26.89718
526.32        26.87153
526.76        26.83355
527.20        26.77138
527.64        26.67422
528.08        26.54517
528.52        26.38707
528.96        26.24135
529.40        26.16901
529.83        26.17704
530.27        26.25501
530.71        26.33464
531.15        26.30873
531.59        26.16062
532.03          25.927
532.46        25.68766
532.90        25.58831
533.34         25.6478
533.78        25.81216
534.22        26.00313
534.66        26.10092
535.09        26.06979
535.53        25.96032
535.97        25.80486
536.41         25.6506
536.85        25.52253
537.28        25.41925
537.72        25.36642
538.16        25.32788
538.60        25.42687
539.04        25.54546
539.47        25.67203
539.91        25.79716
540.35        25.92399
540.79        25.83658
541.22        25.89416
541.66        25.95364
542.10        26.14464
542.54        26.03072
542.97        26.28982
543.41        26.42012
543.85        26.60203
544.29         26.7739
544.72        26.90227
545.16        27.01219
545.60        27.09603
546.04        27.06843
546.47        27.02349
546.91        27.28007
547.35         27.7739
547.79        28.13853
548.22        28.31516
548.66        28.40616
549.10        28.45847
549.53        28.66979
549.97        29.04857
550.41        29.07115
550.84        29.26752
551.28        29.37837
551.72        29.60051
552.15        29.76858
552.59        29.98459
553.03         30.3706
553.46        30.54388
553.90        30.72996
554.34        30.81061
554.77        30.81211
555.21        30.78995
555.65        30.82829
556.08        30.94542
556.52        31.11108
556.96        31.28584
557.39        31.44384
557.83        31.56128
558.27         31.5817
558.70        31.53893
559.14        31.54352
559.57        31.60176
560.01        31.70391
560.45        31.81152
560.88        31.82338
561.32        31.79722
561.75        31.83126
562.19        32.05041
562.63        32.19317
563.06        32.28414
563.50        32.40366
563.93        32.53696
564.37        32.72295
564.80        32.80404
565.24        32.91663
565.68        32.99549
566.11        33.05447
566.55        33.11914
566.98        33.12608
567.42        33.08104
567.85        33.40999
568.29        33.26136
568.72        33.65036
569.16        34.20213
569.60        34.55825
570.03          34.661
570.47        34.71136
570.90        34.61227
571.34        35.04506
571.77        34.89451
572.21        35.37212
572.64        35.73417
573.08        35.79573
573.51        35.85957
573.95         36.3469
574.38        36.55786
574.82        36.84964
575.25        36.95448
575.69          36.778
576.12         36.7132
576.56        36.58451
576.99        36.66861
577.42        36.73836
577.86        36.87174
578.29        36.93277
578.73         37.5668
579.16        37.02763
579.60        36.71353
580.03         36.5166
580.47        36.75387
580.90        36.41493
581.33        36.23272
581.77        36.28469
582.20          36.821
582.64        36.02638
583.07        35.74134
583.51        35.79162
583.94        35.15479
584.37        35.35392
584.81        34.92065
585.24        34.95872
585.68        35.07997
586.11         34.8447
586.54        34.66525
586.98        34.57075
587.41        34.70988
587.85        34.77689
588.28        34.69573
588.71        34.54827
589.15        34.43321
589.58        33.90282
590.01        34.17815
590.45        34.46044
590.88         34.4464
591.31         34.3108
591.75        33.81786
592.18         33.9943
592.61        33.98158
593.05        34.52489
593.48        34.17923
593.91        34.95798
594.35        34.49355
594.78         34.7932
595.21        35.06716
595.65        35.48552
596.08         35.4134
596.51         35.4428
596.94        35.52178
597.38        35.61055
597.81        35.77165
598.24        36.18405
598.68        36.71092
599.11        36.88545
599.54        37.94421
599.97         37.5981
600.41        37.78879
600.84        38.43305
601.27        38.90016
601.70        39.36898
602.14        39.52929
602.57        39.96583
603.00        40.66619
603.43        41.21412
603.87        41.58008
604.30        42.08549
604.73        42.76559
605.16        42.83797
605.60        43.34519
606.03        43.89096
606.46        44.60736
606.89        45.22885
607.32        45.80451
607.76        45.76575
608.19        46.35183
608.62        46.99068
609.05         46.9687
609.48         47.3069
609.92        47.71323
610.35        47.76555
610.78        48.68892
611.21        49.27973
611.64        48.92374
612.07        49.64296
612.50        49.79375
612.94        49.77554
613.37        50.41286
613.80        50.76195
614.23        51.17464
614.66        51.60278
615.09          51.992
615.52        52.45762
615.96        52.68388
616.39        52.96257
616.82        53.31541
617.25        52.96922
617.68        53.39097
618.11        53.76954
618.54        54.39417
618.97        54.47464
619.40        54.03213
619.84        54.28966
620.27        54.02786
620.70        54.41999
621.13        54.96474
621.56        55.25717
621.99         55.3615
622.42        55.39837
622.85        55.47439
623.28        55.56767
623.71        55.69213
624.14        55.73875
624.57        55.80399
625.00        55.43388
625.43        55.88591
625.86        54.98162
626.29        55.17333
626.72        54.87419
627.15        54.72681
627.58        54.63501
628.01        54.54478
628.44        54.38806
628.87        54.12669
629.30        53.69213
629.73        53.30845
630.16        52.95031
630.59        52.71228
631.02        52.39636
631.45        51.99442
631.88        51.57685
632.31        51.13548
632.74         50.6187
633.17        50.05262
633.60        49.51516
634.03        49.02383
634.46         48.5601
634.89         48.1101
635.32        47.64833
635.75        47.17167
636.18        46.69994
636.61        46.23952
637.04        45.79413
637.47         45.3637
637.89         44.9428
638.32        44.53732
638.75        44.18732
639.18         43.8989
639.61        43.66808
640.04        43.44571
640.47        43.14882
640.90        42.76648
641.33        42.32857
641.76        41.91089
642.18        41.64119
642.61         41.5423
643.04        41.57704
643.47        41.68004
643.90        41.74093
644.33        41.72892
644.76        41.68411
645.18        41.63861
645.61        41.64462
646.04        41.72358
646.47         41.8544
646.90        42.05037
647.33         42.3355
647.75        42.70465
648.18        43.14729
648.61        43.61707
649.04        44.02467
649.47        44.35786
649.89        44.66671
650.32        45.00146
650.75        45.40529
651.18        45.93309
651.61        46.60886
652.03        47.39859
652.46        48.30625
652.89        49.25751
653.32        49.79587
653.74        49.98697
654.17        50.74852
654.60        51.52698
655.03        52.31312
655.46        51.81053
655.88        54.07986
656.31        55.39221
656.74        62.97035
657.16        59.56085
657.59        54.87848
658.02        55.87529
658.45        56.42904
658.87        57.84307
659.30        58.38956
659.73        59.18943
660.15        60.17657
660.58        60.18711
661.01        60.04159
661.44        59.62508
661.86        59.93123
662.29        60.89646
662.72        61.85452
663.14        62.55722
663.57        62.64132
664.00        62.30199
664.42        62.36105
664.85        62.90489
665.27        63.37421
665.70        63.67411
666.13        63.96565
666.55        64.23101
666.98        64.41589
667.41        64.54996
667.83        64.67784
668.26        64.80905
668.69        64.95248
669.11        65.09901
669.54        65.23059
669.96        65.34838
670.39        65.44985
670.82        65.57747
671.24        65.78138
671.67        66.06097
672.09        66.41299
672.52        66.74101
672.94        66.84978
673.37        66.77776
673.80        66.53744
674.22         66.5687
674.65        66.56879
675.07        66.68119
675.50        66.94045
675.92        67.26432
676.35        67.42633
676.77         67.3899
677.20        67.23895
677.62        67.06117
678.05        66.97063
678.47        66.98991
678.90        67.13701
679.32        67.39851
679.75         67.4062
680.17        67.63503
680.60        67.80952
681.02        68.00432
681.45        67.93517
681.87        67.70643
682.30        67.82343
682.72         68.2364
683.15        68.41841
683.57         68.3595
684.00        68.29463
684.42         68.3731
684.85        68.55265
685.27        68.66885
685.70        68.90027
686.12        69.13308
686.54        69.30309
686.97        69.38481
687.39        69.40288
687.82         69.3796
688.24        69.37986
688.66        69.41589
689.09        69.46996
689.51        69.53997
689.94        69.59378
690.36        69.64341
690.78        69.67739
691.21         69.7027
691.63         69.8392
692.06        70.09684
692.48         70.1588
692.90        70.16678
693.33        70.66672
693.75         70.4893
694.17        70.62832
694.60         70.6977
695.02        70.58644
695.44        70.33077
695.87        70.28401
696.29        70.42152
696.71        70.31009
697.14        70.17043
697.56        70.31273
697.98        71.31481
698.41        72.16956
698.83        71.71916
699.25         71.5499
699.68        71.42126
700.10        71.37317
700.52        71.45201
700.94        71.67366
701.37        71.93908
701.79        72.11535
702.21        72.13889
702.64        72.05427
703.06        71.95238
703.48        71.98581
703.90        72.18901
704.33        72.50629
704.75        72.82316
705.17        72.92017
705.59        72.75195
706.01        72.39102
706.44         72.0205
706.86        71.91471
707.28        72.12375
707.70        72.59978
708.12        73.16772
708.55        73.42068
708.97        73.34872
709.39        73.34067
709.81        73.42052
710.23        73.36281
710.66        73.19467
711.08        73.07304
711.50        73.03869
711.92        73.09568
712.34        73.25246
712.76        73.51682
713.19         73.8008
713.61        74.01012
714.03        74.08233
714.45        74.04693
714.87        73.97389
715.29        73.97834
715.71        74.08768
716.13        74.26478
716.56        74.44193
716.98        74.59357
717.40        74.66821
717.82        74.68648
718.24        74.67641
718.66        74.68062
719.08        74.71132
719.50        74.75285
719.92        74.78407
720.34        74.77187
720.76        74.71232
721.19         74.6191
721.61        74.53285
722.03        74.47826
722.45        74.48786
722.87        74.53574
723.29        74.61547
723.71        74.70439
724.13        74.79576
724.55        74.89965
724.97        75.01501
725.39        75.13504
725.81        75.25719
726.23         75.3819
726.65        75.52286
727.07        75.66602
727.49         75.8783
727.91        76.08646
728.33        76.27898
728.75        76.40084
729.17        76.44297
729.59        76.42679
730.01        76.35892
730.43         76.3028
730.85         76.2864
731.27        76.18468
731.69        76.02874
732.10        76.32142
732.52        76.49201
732.94        76.63323
733.36        76.57283
733.78        76.55434
734.20        76.58868
734.62        76.52554
735.04        76.38545
735.46        76.32696
735.88        76.37212
736.30        76.23071
736.72        76.37334
737.13        76.49898
737.55        76.67519
737.97        77.04914
738.39         77.4711
738.81        77.36729
739.23        76.85651
739.65        76.75478
740.06        77.02103
740.48         77.2401
740.90        77.06596
741.32        76.81064
741.74        76.52093
742.16        76.49887
742.57        76.79346
742.99        77.16708
743.41        77.52607
743.83        77.79102
744.25        77.91035
744.67        77.88965
745.08         77.7646
745.50        77.56725
745.92        77.34655
746.34        77.09794
746.75        76.86816
747.17        76.73198
747.59        76.71578
748.01        76.82381
748.42        77.01997
748.84        77.24828
749.26        77.49803
749.68        77.59133
750.09        77.58921
750.51        77.99198
750.93        78.61458
751.35        78.53809
751.76        77.86723
752.18        77.56145
752.60        77.67339
753.01        77.69322
753.43        77.59386
753.85        77.62727
754.27        77.79271
754.68        78.03474
755.10        78.26917
755.52        78.36675
755.93        78.31135
756.35        78.15222
756.77         77.9678
757.18        77.95883
757.60         78.1944
758.02        78.41364
758.43        78.47472
758.85        79.07304
759.26        79.10147
759.68        78.80025
760.10        78.78029
760.51        78.55869
760.93        78.58757
761.34        77.19484
761.76         78.5209
762.18        78.11749
762.59        77.40584
763.01        77.33363
763.42        78.01159
763.84        78.63399
764.26         79.0043
764.67        79.05576
765.09        78.94234
765.50          79.173
765.92         79.7001
766.33        79.92799
766.75        79.71587
767.16        79.30589
767.58        78.79216
768.00        78.35159
768.41        78.18044
768.83        78.43237
769.24        78.98429
769.66        79.49907
770.07        79.79048
770.49        79.66792
770.90        79.28437
771.32        79.30273
771.73        79.69942
772.15        79.77876
772.56        79.55142
772.97        79.40056
773.39        79.48768
773.80        79.36928
774.22        79.07654
774.63        78.71684
775.05        78.42342
775.46        78.41431
775.88        78.70344
776.29        79.26794
776.70        79.85574
777.12        80.07633
777.53         79.8529
777.95        79.26567
778.36        78.60114
778.77        78.34865
779.19        78.62727
779.60        79.33402
780.02        80.10495
780.43        80.57183
780.84        80.62471
781.26        79.87042
781.67        78.92066
782.09        79.47236
782.50        81.17516
782.91         81.4027
783.33         80.2052
783.74        79.89065
784.15        80.51745
784.57        80.67131
784.98        80.31632
785.39        80.17329
785.81        80.20214
786.22         79.9422
786.63        79.49969
787.04        79.33327
787.46        79.46892
787.87        79.69169
788.28        79.95742
788.70        80.19564
789.11         80.3497
789.52        80.56847
789.93        80.80948
790.35        80.69069
790.76        80.34148
791.17        80.44884
791.58        80.93898
792.00        80.95618
792.41        80.46721
792.82        80.22241
793.23        80.19081
793.65        79.59373
794.06        78.81084
794.47        79.07028
794.88        80.04219
795.29        81.36115
795.71        80.91453
796.12        80.53393
796.53         81.1029
796.94        80.70116
797.35        79.92183
797.76        79.56152
798.18        79.69674
798.59        79.84633
799.00        79.99949
799.41         80.1428
799.82        80.85819
800.23        81.13269
800.64        81.10233
801.06        80.83144
801.47        80.50717
801.88        80.36418
802.29        80.45233
802.70        80.66486
803.11        80.89327
803.52         80.9703
803.93        80.87601
804.34        80.71278
804.75        80.48357
805.17        80.33156
805.58        80.34646
805.99        79.97868
806.40        79.46538
806.81        80.42377
807.22        82.30848
807.63        82.27045
808.04        80.57902
808.45        80.01232
808.86        80.84004
809.27         81.7824
809.68           82.53
810.09        82.97752
810.50        82.98218
810.91        82.71119
811.32        82.32401
811.73        81.91845
812.14        81.56555
812.55        81.37637
812.96        81.30333
813.37        80.97932
813.78        80.51694
814.19         80.5597
814.60        81.00372
815.01        81.18047
815.42        81.04108
815.83        80.91255
816.24        80.87385
816.65        80.91257
817.05        81.06198
817.46        81.27597
817.87        81.48412
818.28        81.53049
818.69        81.39604
819.10        81.12495
819.51        80.84536
819.92        80.82975
820.33        81.14746
820.74        81.58311
821.14        82.02136
821.55        82.54446
821.96        82.95908
822.37        82.65095
822.78        81.82306
823.19        81.43027
823.60        81.59854
824.00        81.87095
824.41        82.06635
824.82        82.19325
825.23        82.18971
825.64        82.07794
826.04        81.93208
826.45         81.8142
826.86        81.76402
827.27        81.76083
827.68        81.77945
828.08        81.80762
828.49        81.77808
828.90        81.73492
829.31        81.71228
829.72        81.76278
830.12        81.90918
830.53        82.08425
830.94        82.24097
831.35        82.28233
831.75        82.21355
832.16        82.02321
832.57        81.79076
832.97        81.63041
833.38         81.5592
833.79        81.55045
834.20         81.5824
834.60        81.60861
835.01        81.62946
835.42        81.67358
835.82        81.71804
836.23        81.66096
836.64         81.5134
837.04        81.28487
837.45        81.08354
837.86        81.13992
838.26         81.5067
838.67        82.08662
839.08        82.66942
839.48        82.84936
839.89        82.53116
840.29        81.87689
840.70         81.2123
841.11          80.934
841.51        81.15098
841.92        81.67346
842.33        82.38934
842.73        83.10528
843.14        83.60994
843.54        84.02401
843.95        84.19428
844.35         83.9666
844.76        83.36592
845.17        82.47559
845.57        81.56367
845.98        81.07273
846.38        81.09852
846.79        81.52105
847.19        82.21227
847.60        82.76201
848.00        83.08557
848.41        83.22446
848.81        83.27953
849.22        83.32874
849.62        83.44928
850.03        83.52389
850.43        83.60883
850.84        83.70122
851.24        83.86038
851.65        84.03851
852.05        84.20273
852.46          84.216
852.86        84.07854
853.27        83.71873
853.67        83.23335
854.07        83.25659
854.48        83.63668
854.88        83.53915
855.29        82.95693
855.69        82.78187
856.10        82.98056
856.50        83.15051
856.90        83.16064
857.31        83.07687
857.71        82.95491
858.12        82.71323
858.52        82.46113
858.92         82.2541
859.33        82.09554
859.73        82.02837
860.13        82.04145
860.54         82.1152
860.94        82.30166
861.34        82.54852
861.75         82.7762
862.15        82.96184
862.55        83.04607
862.96        83.05894
863.36        83.00725
863.76        82.87498
864.17        82.67928
864.57        82.45047
864.97        82.29347
865.38        82.35105
865.78        82.68818
866.18        83.18559
866.58        83.66308
866.99        83.79734
867.39        83.55064
867.79        83.00606
868.19        82.20798
868.60        81.20847
869.00        80.05183
869.40        78.77026
869.80        77.70055
870.21        77.39053
870.61        77.99178
871.01        79.29306
871.41        80.73005
871.81        81.39418
872.22        81.09299
872.62        80.10769
873.02        78.87994
873.42        78.28759
873.82        78.40715
874.22        78.62107
874.63        78.90195
875.03        79.28796
875.43        79.66086
875.83        80.70879
876.23        80.52071
876.63        80.10481
877.03        79.15294
877.44        77.66633
877.84        120.6237
878.24        78.00052
878.64        78.98991
879.04        81.68287
879.44        79.47184
879.84        77.98038
880.24        80.50458
880.64        80.12964
881.04        77.58112
881.44        76.07109
881.84        76.19274
882.24        77.39559
882.65         78.9978
883.05         79.8101
883.45        79.43231
883.85        78.44023
884.25        77.41666
884.65           77.05
885.05        77.51865
885.45        78.56275
885.85        79.74303
886.25         80.3493
886.65        80.17258
887.05        79.46146
887.45        78.57611
887.85        78.03325
888.25        77.99021
888.65         78.3125
889.04        78.81559
889.44        79.10309
889.84        79.09369
890.24        78.88677
890.64        78.69094
891.04        78.81903
891.44        79.28561
891.84        79.91866
892.24        80.42789
892.64        80.33694
893.04        79.58532
893.44        78.46825
893.83        77.19682
894.23        76.09186
894.63        75.25713
895.03        74.58796
895.43        74.30464
895.83        74.77402
896.23        75.97832
896.63         77.7786
897.02         79.5928
897.42        80.34915
897.82        79.81684
898.22        78.33458
898.62        76.50332
899.01        75.26894
899.41        74.94305
899.81        75.22011
900.21        75.92773
900.61          76.798
901.00        77.67554
901.40        78.62244
901.80        79.47478
902.20        79.92165
902.59        79.90501
902.99        79.45922
903.39        78.75729
903.79        78.13469
904.18        77.70846
904.58        77.44636
904.98        77.35979
905.38         77.4558
905.77        77.69918
906.17        78.12025
906.57        78.54533
906.96        78.71634
907.36        78.54266
907.76        78.06704
908.15        77.52812
908.55        77.27182
908.95         77.3984
909.34        77.85111
909.74        78.31598
910.14        78.24998
910.53        77.54206
910.93        76.44012
911.33        75.42793
911.72        75.27251
912.12        76.07906
912.52        77.50296
912.91        79.04942
913.31        79.88633
913.70        79.85069
914.10        79.16919
914.49         78.0519
914.89        77.00113
915.29        76.27953
915.68        75.78063
916.08        75.58344
916.47        75.75308
916.87        76.22143
917.26        76.95928
917.66        77.75609
918.05        78.28842
918.45        78.43432
918.84        78.31648
919.24        77.94916
919.64        77.39295
920.03          76.737
920.42        75.99563
920.82        75.48388
921.21        75.63966
921.61        76.45559
922.00        77.82066
922.40        79.21682
922.79        80.01808
923.19        80.01471
923.58        79.26319
923.98        77.98502
924.37        77.07932
924.77        76.98378
925.16        75.03357
925.55        75.81445
925.95        75.75906
926.34        76.21243
926.74        76.95795
927.13        77.84645
927.52        78.49608
927.92        78.78234
928.31        78.86539
928.70        78.69732
929.10        78.26499
929.49        77.64676
929.89        76.84579
930.28        76.19299
930.67        76.20893
931.07        76.93141
931.46        78.23869
931.85        79.61977
932.24        80.30127
932.64        80.08957
933.03        79.12778
933.42        77.77515
933.82        76.82808
934.21        76.54846
934.60        76.73042
934.99        76.92864
935.39        76.72217
935.78         76.0375
936.17        74.62728
936.56        72.65929
936.96        73.33714
937.35        72.75602
937.74        73.95594
938.13        75.20751
938.53         76.1106
938.92        76.62244
939.31        76.90276
939.70        77.05096
940.09        77.11594
940.49        77.15742
940.88        77.17708
941.27        77.23249
941.66        77.46259
942.05        77.86438
942.44        78.34251
942.84        78.87128
943.23        79.42764
943.62        79.93845
944.01        80.46244
944.40        80.70425
944.79        80.18745
945.18        78.86368
945.57        76.82951
945.97        74.82736
946.36        74.18444
946.75         75.2524
947.14        77.53467
947.53        79.99429
947.92        81.21692
948.31        80.94731
948.70        79.62531
949.09        77.86021
949.48         76.7275
949.87        76.58677
950.26        77.08128
950.65         77.8788
951.04        78.44211
951.43        78.56522
951.82        78.46176
952.21        78.18678
952.60        77.78498
952.99        77.32133
953.38        76.76199
953.77        76.21861
954.16        75.89912
954.55         75.8466
954.94        76.02828
955.33        76.34165
955.72         76.5891
956.11        76.71577
956.50        76.77702
956.89        76.80945
957.28        76.89586
957.66        77.05515
958.05        77.14517
958.44         77.1978
958.83        77.26217
959.22          77.331
959.61        77.43666
960.00        77.37505
960.39        76.79449
960.78        75.68542
961.16        74.17103
961.55        72.78802
961.94        72.21696
962.33        72.58968
962.72        73.72483
963.11        75.10197
963.49        75.82684
963.88         75.5475
964.27         74.5386
964.66         73.3063
965.04        72.70597
965.43        72.95197
965.82        73.78575
966.21        74.76665
966.60        75.18678
966.98        74.88102
967.37        74.08276
967.76        73.20419
968.15        72.85967
968.53          73.223
968.92        74.00168
969.31        74.90334
969.69         75.4548
970.08        75.44328
970.47        75.05731
970.86        74.43372
971.24         73.7531
971.63        73.17236
972.02        72.67419
972.40        72.28918
972.79        72.09489
973.17        72.13331
973.56        72.27087
973.95        72.63731
974.33         73.4025
974.72        74.39964
975.11        75.55567
975.49        76.37896
975.88        76.12094
976.26        74.72017
976.65          72.482
977.04        70.04792
977.42        68.53792
977.81        68.31419
978.19         69.0625
978.58        70.44573
978.96        71.88353
979.35        73.01983
979.74        74.10784
980.12         74.9586
980.51        74.98704
980.89        74.28209
981.28        72.91024
981.66        71.56193
982.05        71.28282
982.43         72.1772
982.82        73.93878
983.20        75.95528
983.59        76.77544
983.97        76.08854
984.35        74.24502
984.74        71.99286
985.12        70.41121
985.51        69.81052
985.89        69.86916
986.28        70.29115
986.66        70.59774
987.04        70.49995
987.43        70.31581
987.81        69.91798
988.20         69.0875
988.58        67.72255
988.96        65.61557
989.35        63.21176
989.73        62.10563
990.12        62.98967
990.50         65.4517
990.88        68.01752
991.27        69.01842
991.65        68.42624
992.03        66.67143
992.42        64.75278
992.80        64.62582
993.18         66.7871
993.56        70.26392
993.95        73.82413
994.33        76.20037
994.71        76.94096
995.10        76.53317
995.48        75.32713
995.86        73.72514
996.24        71.94534
996.63        69.84981
997.01        67.62622
997.39        65.99852
997.77        65.38441
998.15        65.67064
998.54        66.58284
998.92        67.75728
999.30        69.14059
999.68        70.97435
1000.06        72.67884
1000.45        72.46489
1000.83        69.99885
1001.21         66.2757
1001.59        62.94477
1001.97        61.21133
1002.35        60.90554
1002.73        61.59862
1003.12         62.8912
1003.50        63.95451
1003.88        64.18311
1004.26        63.87972
1004.64        63.04738
1005.02        61.63517
1005.40         59.7508
1005.78        57.34382
1006.16        55.11932
1006.54        54.63977
1006.92        56.09576
1007.30        58.59512
1007.69        61.15433
1008.07        63.05833
1008.45        64.22731
1008.83        65.09983
1009.21        65.30704
1009.59        63.75191
1009.97        60.01352
1010.35        54.49032
1010.73        49.96177
1011.11        49.58383
1011.49        53.17025
1011.86        59.58874
1012.24         65.7233
1012.62        68.54982
1013.00        67.78569
1013.38        64.61269
1013.76        60.40554
1014.14         57.5652
1014.52        56.88305
1014.90        57.55101
1015.28        58.73922
1015.66        59.07122
1016.04        58.00947
1016.41        56.06261
1016.79        53.46128
1017.17        51.00793
1017.55        49.43183
1017.93         48.5479
1018.31        48.33609
1018.69        48.81363
1019.06        49.82163
1019.44         51.1741
1019.82        52.55348
1020.20        53.00693
1020.58         52.0726
1020.95        49.96214
1021.33        46.93362
1021.71         42.5664
1022.09        35.90795
1022.46        23.90845
1022.84        5.811775
1023.22       -2.461301
1023.60        10.48312
1023.97        27.56157
1024.35        37.99144
1024.73        42.44867
