SpectraSmart Spectrum 2.9.0.0
--------- Device Information -----------
Spectrum Name :  反射率_0
Saving Time :  2024/04/20 00:28:47
Spectro-Module Model Name : SE2030-DUVN
Spectro-Module Serial Number : OS361AC55029948
Wavelength Start : 200
Wavelength End : 1025
Wavelength Unit : Wavelength(nm)
Spectrum Unit : Reflectance(%)
-----------Spectrum Setting ------------
Integration Time : 30ms
Average : 10
Boxcar : 0
Background removal :  enabled
linearity correction :  enabled
SC :  disabled
Intensity correction :  disabled
DWT denoise :  enabled
savitzky-golay :  disabled
FFT :  disabled
Running average :  disabled
Kalman :  disabled
High pass :  disabled
---------------BEGIN--------------------
Wavelength(nm)             Reflectance(%)
200.29               0
200.75        61.26218
201.21        59.71872
201.67        59.45522
202.13        61.89954
202.58        67.74037
203.04        77.21813
203.50        87.53733
203.96        91.07919
204.42        86.84417
204.88        79.26646
205.34        72.30422
205.80         67.8325
206.26        65.14821
206.72        63.06529
207.18        61.37448
207.64        60.53759
208.10        61.15786
208.55        63.57959
209.01        65.79618
209.47        66.77098
209.93        66.54247
210.39        65.40044
210.85        63.83049
211.31        62.34028
211.77        60.90638
212.23         59.3206
212.69        57.49099
213.14        56.10413
213.60        55.54663
214.06        56.11287
214.52         57.3871
214.98        59.31237
215.44        61.87872
215.90        64.88484
216.36        68.41782
216.81        71.95062
217.27        74.59927
217.73        76.57573
218.19        76.69996
218.65         73.3245
219.11        66.32275
219.57        55.62132
220.02        43.91442
220.48        38.52679
220.94        41.90871
221.40        52.71379
221.86        65.51363
222.32        71.81781
222.77        69.74687
223.23        62.20628
223.69          53.659
224.15        50.54776
224.61        53.21714
225.06        58.34161
225.52        63.06038
225.98        65.03954
226.44        64.22467
226.90        61.74466
227.36        58.53452
227.81         56.1232
228.27        55.39761
228.73         55.6203
229.19        56.32649
229.65         57.0043
230.10        57.45572
230.56        57.92387
231.02        58.36147
231.48        58.72312
231.93        58.95528
232.39        59.02507
232.85        58.94146
233.31        58.78758
233.77         58.5844
234.22        58.36477
234.68        58.01823
235.14        57.25609
235.60        56.13311
236.05        54.83407
236.51        53.80856
236.97        53.70718
237.43        54.78236
237.88        57.25763
238.34        60.83205
238.80        64.37907
239.26        66.66398
239.71        67.42248
240.17        66.87616
240.63        66.34288
241.08        66.32224
241.54        66.44447
242.00         66.0916
242.46         63.9442
242.91        59.19838
243.37        50.89554
243.83        39.49587
244.28        31.69896
244.74        34.61597
245.20        47.44576
245.66        60.79174
246.11        66.19596
246.57        62.94786
247.03        52.01149
247.48        36.23029
247.94        31.53284
248.40        40.37006
248.85        51.52221
249.31        60.06197
249.77        65.46561
250.22        68.89948
250.68        71.69328
251.14        73.97507
251.59        75.06795
252.05        74.69524
252.51        72.94125
252.96        69.91268
253.42        66.52495
253.88        63.70256
254.33        61.76987
254.79        62.03263
255.25        65.27702
255.70        70.77534
256.16        77.34444
256.62        83.25542
257.07        86.62711
257.53        87.48682
257.99        86.41237
258.44        83.73582
258.90        80.88214
259.35        78.08577
259.81        76.09186
260.27         74.4064
260.72        72.56725
261.18        70.82089
261.63        68.77495
262.09        67.31454
262.55        67.06669
263.00        67.79136
263.46        69.22077
263.91        70.13474
264.37        69.49818
264.83        67.33054
265.28        64.12077
265.74        61.12286
266.19        59.55522
266.65        59.63745
267.11        60.68693
267.56        61.87049
268.02        62.02955
268.47        60.92083
268.93        58.98191
269.38        56.63351
269.84        54.78463
270.30         53.7058
270.75        53.12499
271.21        52.80972
271.66        52.39299
272.12         51.7417
272.57        50.97267
273.03        50.16876
273.48        49.33521
273.94        48.55497
274.39        47.76858
274.85        46.99743
275.31        46.21908
275.76        45.40815
276.22         44.6035
276.67        43.83669
277.13        43.28881
277.58        42.89722
278.04        42.64706
278.49        42.31385
278.95        41.67997
279.40        40.68138
279.86        39.51171
280.31        38.29841
280.77        37.39102
281.22        36.77845
281.68        36.39781
282.13        36.11707
282.59        35.80064
283.04        35.39285
283.50        34.98948
283.95        34.57822
284.41        34.19207
284.86        33.81829
285.32        33.46918
285.77        33.18374
286.22        33.10437
286.68         33.2316
287.13        33.47997
287.59         33.7273
288.04         33.7554
288.50        33.55079
288.95         33.1426
289.41        32.67184
289.86        32.27467
290.32         32.0482
290.77        31.94366
291.22        31.93101
291.68        31.92667
292.13        31.91952
292.59        31.97193
293.04        32.15271
293.50        32.58236
293.95        33.26205
294.40        34.13054
294.86        35.09474
295.31        36.02425
295.77        36.87464
296.22        37.66934
296.68        38.42735
297.13        39.16331
297.58        39.89585
298.04        40.62371
298.49        41.35363
298.95         42.1472
299.40        42.99615
299.85        43.88591
300.31        44.80014
300.76        45.69251
301.21        46.54584
301.67        47.39576
302.12        48.17866
302.58        48.88685
303.03        49.49432
303.48        50.03386
303.94        50.60289
304.39        51.29876
304.84        52.14209
305.30        53.07909
305.75        53.96947
306.20        54.63742
306.66        55.06482
307.11        55.28396
307.57        55.40205
308.02        55.48492
308.47        55.59637
308.93         55.7116
309.38        55.83229
309.83        56.02985
310.29        56.30023
310.74        56.62782
311.19         56.9057
311.65        56.95144
312.10        56.73227
312.55        56.31179
313.00        55.85514
313.46        55.61922
313.91        55.63848
314.36        55.84333
314.82        56.08492
315.27        56.15011
315.72        55.96358
316.18        55.61705
316.63        55.18181
317.08         54.7851
317.53         54.4693
317.99        54.18671
318.44        53.93649
318.89          53.707
319.35        53.48892
319.80        53.29499
320.25        53.10631
320.70        52.88842
321.16        52.62364
321.61        52.32175
322.06          51.986
322.51        51.63367
322.97        51.26601
323.42        50.89435
323.87        50.51464
324.32         50.1296
324.78         49.7342
325.23        49.34954
325.68        48.97658
326.13        48.62502
326.59        48.29506
327.04        48.01058
327.49        47.75412
327.94        47.50666
328.39        47.25797
328.85        46.98129
329.30        46.73835
329.75        46.56117
330.20         46.4537
330.66        46.38151
331.11        46.30797
331.56        46.10528
332.01        45.74963
332.46        45.27687
332.92        44.75957
333.37        44.35503
333.82        44.10802
334.27        43.99395
334.72        43.96114
335.17        43.91702
335.63        43.81167
336.08        43.68077
336.53        43.55252
336.98        43.49408
337.43        43.51572
337.88        43.59789
338.34        43.62674
338.79        43.47221
339.24        43.09603
339.69        42.54089
340.14        41.99466
340.59        41.77025
341.05        41.91857
341.50         42.3442
341.95        42.80788
342.40        42.93851
342.85        42.65742
343.30        42.09525
343.75        41.43532
344.20        40.97952
344.66         40.8173
345.11        40.82794
345.56        40.94714
346.01        41.06989
346.46        41.13688
346.91        41.19129
347.36        41.15913
347.81        40.91383
348.26        40.46015
348.72        39.86087
349.17        39.24279
349.62        38.89833
350.07        38.89835
350.52        39.14819
350.97        39.51699
351.42        39.80276
351.87        39.93047
352.32        39.94437
352.77        39.84364
353.22        39.63137
353.67        39.33024
354.13        38.95786
354.58        38.54103
355.03        38.17428
355.48        37.89076
355.93        37.68574
356.38        37.55771
356.83        37.49045
357.28         37.4643
357.73        37.46935
358.18        37.46938
358.63          37.409
359.08        37.26736
359.53        37.05026
359.98        36.76835
360.43        36.44106
360.88        36.08437
361.33        35.70718
361.78        35.32864
362.23        34.98192
362.68        34.67994
363.13        34.41233
363.58        34.18593
364.03        34.00307
364.48        33.85001
364.93        33.72311
365.38        33.56225
365.83        33.27396
366.28        32.84961
366.73        32.32132
367.18        31.79236
367.63        31.42481
368.08        31.24999
368.53        31.21778
368.98        31.22706
369.43        31.11631
369.88        30.84651
370.33        30.46996
370.78        30.05594
371.23        29.72429
371.68        29.51694
372.13        29.39256
372.58         29.3257
373.03        29.27691
373.48        29.22042
373.93        29.16415
374.38         29.0861
374.83        28.94796
375.28        28.74148
375.72        28.46284
376.17        28.15436
376.62        27.85014
377.07        27.57404
377.52        27.32668
377.97        27.11817
378.42        26.95916
378.87        26.84623
379.32        26.77307
379.77        26.72476
380.22        26.67408
380.67        26.61093
381.11        26.54533
381.56        26.45354
382.01        26.32242
382.46        26.15123
382.91        25.93385
383.36        25.71837
383.81        25.57834
384.26         25.5216
384.71        25.53604
385.15        25.52872
385.60          25.363
386.05         25.0232
386.50        24.56358
386.95        24.12358
387.40        23.92254
387.85        23.99863
388.29        24.26323
388.74        24.57952
389.19        24.73753
389.64        24.68801
390.09        24.48579
390.54        24.21909
390.98         24.0232
391.43        23.95514
391.88        23.95407
392.33          23.949
392.78        23.84048
393.23        23.62244
393.67        23.33321
394.12        23.07389
394.57        22.90016
395.02        22.82696
395.47         22.8245
395.91        22.86945
396.36         22.8977
396.81        22.89605
397.26        22.87266
397.71        22.83811
398.15        22.79363
398.60        22.76972
399.05        22.74978
399.50        22.71579
399.95        22.64305
400.39        22.52832
400.84        22.37622
401.29        22.22799
401.74         22.1624
402.18        22.20057
402.63        22.30834
403.08        22.41457
403.53         22.3976
403.97        22.23567
404.42        21.98446
404.87        21.72085
405.32        21.57488
405.76        21.57769
406.21        21.68203
406.66        21.83728
407.11        21.96394
407.55        22.03405
408.00         22.0758
408.45        22.07932
408.90        21.96976
409.34        21.77404
409.79        21.62045
410.24         21.5163
410.68        21.37874
411.13        21.22271
411.58        21.11623
412.03        21.06331
412.47        21.03971
412.92        21.03812
413.37        21.05907
413.81        21.11217
414.26        21.22657
414.71        21.39034
415.15        21.59414
415.60        21.75576
416.05        21.77634
416.49        21.63396
416.94        21.36502
417.39        21.05673
417.83        20.85019
418.28        20.79088
418.73        20.83522
419.17        20.92205
419.62        20.94349
420.07         20.8753
420.51        20.75323
420.96        20.62137
421.41        20.52314
421.85        20.46787
422.30        20.45317
422.74        20.46082
423.19        20.50007
423.64        20.55708
424.08        20.63807
424.53        20.71368
424.98        20.76536
425.42        20.78855
425.87        20.78882
426.31        20.75705
426.76        20.69035
427.21        20.58174
427.65        20.42486
428.10        20.27992
428.54        20.22133
428.99        20.26977
429.44        20.49072
429.88        20.73809
430.33        20.64834
430.77        20.28148
431.22        20.06305
431.66        20.06006
432.11        20.14219
432.56         20.2859
433.00        20.57815
433.45        20.81797
433.89        20.71881
434.34        20.42013
434.78        20.12434
435.23        19.80925
435.67        20.79518
436.12         20.1707
436.57        20.10126
437.01        19.81873
437.46        19.71577
437.90        19.81189
438.35        19.93069
438.79        20.01188
439.24        20.04773
439.68        20.02358
440.13        19.78535
440.57        19.47266
441.02        19.62288
441.46         20.0577
441.91        20.14353
442.35        19.40095
442.80        19.17211
443.24        19.25929
443.69        19.24343
444.13        19.09304
444.58        18.97329
445.02         18.8978
445.47          18.876
445.91        18.89164
446.36        18.87475
446.80        18.81224
447.24        18.74454
447.69        18.69495
448.13        18.65865
448.58        18.64502
449.02         18.6497
449.47        18.64839
449.91        18.59539
450.36        18.49222
450.80        18.35255
451.25        18.22634
451.69        18.17142
452.13        18.20445
452.58        18.29716
453.02        18.41235
453.47         18.4947
453.91        18.52714
454.36         18.5227
454.80        18.48698
455.24        18.42969
455.69        18.36654
456.13        18.27593
456.58        18.18914
457.02        18.14355
457.46        18.14216
457.91        18.13536
458.35        18.11189
458.79        18.09938
459.24        18.09017
459.68        18.08094
460.13        18.11977
460.57        18.10873
461.01        18.02997
461.46        18.37949
461.90        18.44251
462.34        18.23872
462.79        18.37702
463.23        18.23724
463.68        18.11983
464.12         18.0337
464.56        18.13487
465.01        18.28544
465.45        18.42306
465.89        18.47585
466.34        18.43666
466.78        18.27057
467.22         18.0617
467.67         18.0743
468.11        18.27827
468.55        18.30052
468.99        18.14948
469.44        18.13523
469.88        18.26184
470.32         18.3476
470.77        18.35857
471.21        18.33544
471.65        18.27525
472.10        18.16675
472.54        18.04878
472.98        18.02295
473.42        18.10198
473.87         18.2069
474.31        18.29564
474.75        18.41397
475.20        18.51094
475.64        18.40712
476.08        18.19025
476.52        18.15485
476.97        18.32326
477.41        18.56249
477.85        18.78868
478.29        18.92066
478.74        18.93057
479.18        18.81271
479.62        18.66136
480.06         18.6278
480.50         18.7187
480.95        18.80342
481.39        18.84057
481.83        18.85702
482.27        18.84533
482.72         18.7976
483.16        18.74829
483.60         18.7492
484.04        18.79846
484.48        18.96146
484.93        19.25716
485.37        19.31857
485.81        19.31359
486.25        19.87422
486.69        20.21735
487.14        19.88178
487.58        19.43856
488.02        20.30704
488.46        19.89338
488.90        20.06194
489.34        19.93488
489.79        20.06554
490.23        20.39694
490.67        20.59859
491.11        20.66077
491.55        20.66118
491.99        20.63141
492.43         20.6229
492.88        20.65562
493.32        20.67848
493.76        20.71643
494.20        20.83547
494.64         21.0404
495.08         21.3185
495.52        21.61625
495.96        21.83223
496.41         21.9652
496.85        22.06787
497.29        22.16575
497.73        22.34003
498.17         22.5659
498.61        22.64652
499.05         22.6105
499.49        22.71383
499.93        22.97513
500.37        23.19646
500.82        23.36327
501.26        23.64355
501.70        23.97132
502.14        24.03149
502.58        23.87311
503.02        23.84795
503.46        23.98432
503.90        24.09986
504.34        24.16053
504.78        24.19277
505.22        24.19027
505.66        24.15595
506.10        24.12239
506.54        24.13609
506.98        24.21087
507.42        24.33781
507.86          24.491
508.30        24.62707
508.74        24.72967
509.18        24.80229
509.62        24.86826
510.06         24.9653
510.50        25.10042
510.94        25.26562
511.38        25.41041
511.82        25.45506
512.26        25.38754
512.70         25.2317
513.14        25.07539
513.58        25.05252
514.02        25.18226
514.46        25.42673
514.90        25.68409
515.34        25.72573
515.78        25.55827
516.22        25.30033
516.66        25.08034
517.10         24.7678
517.54        24.40221
517.98         25.0211
518.42         24.9977
518.86        25.29227
519.30         25.3968
519.74        25.48544
520.18        25.53894
520.62        25.50529
521.06        25.40377
521.50        25.23066
521.93          25.034
522.37        24.90411
522.81        24.86189
523.25        24.88907
523.69        24.94381
524.13        24.95625
524.57        24.90632
525.01        24.81144
525.45        24.70186
525.89        24.62564
526.32        24.59301
526.76        24.58941
527.20        24.57827
527.64        24.50762
528.08        24.36789
528.52        24.17685
528.96        23.98344
529.40        23.85901
529.83        23.81762
530.27        23.84495
530.71        23.88166
531.15        23.83641
531.59        23.69345
532.03        23.48324
532.46        23.27456
532.90        23.19269
533.34        23.25132
533.78        23.40442
534.22        23.57314
534.66        23.63766
535.09        23.56615
535.53        23.40712
535.97        23.21136
536.41        23.05608
536.85        22.96885
537.28        22.93725
537.72        22.95516
538.16        22.94175
538.60        22.99912
539.04        23.03773
539.47        23.07475
539.91        23.14401
540.35        23.25891
540.79        23.21031
541.22        23.30669
541.66         23.3977
542.10        23.59224
542.54        23.50483
542.97        23.74649
543.41        23.86169
543.85        24.01589
544.29        24.15399
544.72        24.25638
545.16        24.36346
545.60        24.47066
546.04        24.49396
546.47        24.50759
546.91        24.78272
547.35        25.25551
547.79        25.59925
548.22        25.76127
548.66        25.83647
549.10         25.8719
549.53        26.04612
549.97        26.37692
550.41        26.41425
550.84         26.6481
551.28        26.81082
551.72        27.05638
552.15        27.30318
552.59        27.54572
553.03        27.79186
553.46        28.00472
553.90        28.15756
554.34        28.24455
554.77        28.27683
555.21        28.29334
555.65        28.34311
556.08        28.43701
556.52        28.56056
556.96        28.69908
557.39        28.86446
557.83        29.03884
558.27        29.14984
558.70        29.20596
559.14        29.28079
559.57          29.369
560.01        29.46531
560.45        29.54606
560.88        29.53772
561.32        29.49962
561.75        29.52054
562.19        29.70822
562.63        29.79865
563.06        29.82042
563.50        29.87848
563.93        29.96699
564.37        30.11498
564.80        30.18012
565.24        30.29277
565.68        30.39402
566.11        30.49161
566.55        30.60684
566.98        30.68487
567.42        30.71021
567.85        31.04516
568.29         30.8904
568.72         31.1974
569.16        31.66241
569.60         31.9784
570.03        32.09122
570.47        32.27361
570.90        32.38413
571.34        32.60949
571.77        32.38124
572.21        32.76146
572.64        33.20681
573.08        33.23623
573.51         33.4432
573.95        33.52221
574.38        34.04472
574.82         34.3173
575.25        34.42322
575.69        34.24887
576.12        34.18835
576.56        34.15655
576.99        34.25299
577.42         34.4699
577.86        34.33843
578.29        34.27961
578.73        34.80313
579.16        34.55057
579.60        34.23309
580.03        34.09433
580.47        34.08911
580.90        33.55608
581.33        33.60221
581.77        33.67131
582.20        34.06476
582.64        33.50265
583.07        33.27913
583.51        33.08966
583.94        32.50415
584.37        32.44559
584.81        32.17536
585.24        32.18221
585.68        32.20916
586.11        32.15076
586.54        32.04185
586.98        31.83104
587.41        31.60262
587.85        31.58475
588.28        31.71031
588.71        31.57103
589.15        31.23138
589.58        30.83349
590.01        30.88395
590.45        31.34958
590.88        31.31621
591.31        31.39858
591.75        30.91178
592.18        30.99179
592.61        30.87776
593.05        31.20979
593.48        31.20859
593.91        32.02502
594.35         31.6289
594.78         31.6956
595.21        31.76771
595.65          32.121
596.08        32.16296
596.51         32.2063
596.94        32.17049
597.38         32.2202
597.81        32.51686
598.24        32.74152
598.68        33.15728
599.11        33.38552
599.54        34.53168
599.97        34.43644
600.41        34.46214
600.84        35.12032
601.27        35.70881
601.70        36.06229
602.14        36.26989
602.57        36.69479
603.00        37.42992
603.43        37.92081
603.87        38.16542
604.30        38.64234
604.73        39.38356
605.16        39.43307
605.60        40.00678
606.03        40.51252
606.46        41.12598
606.89        41.76119
607.32        42.00962
607.76        42.06696
608.19        42.53811
608.62        43.19232
609.05        43.28328
609.48        43.60135
609.92        43.95687
610.35        44.09992
610.78        44.95982
611.21         45.8303
611.64        45.54036
612.07        45.87617
612.50        46.18863
612.94        46.24533
613.37        46.69058
613.80         47.0041
614.23        47.39005
614.66        47.73934
615.09        48.09985
615.52        48.44049
615.96        48.71507
616.39        48.99446
616.82        49.35241
617.25        49.19061
617.68        49.62974
618.11        50.08672
618.54        50.53384
618.97        50.63062
619.40        50.35916
619.84        50.31157
620.27        50.09186
620.70        50.47623
621.13        51.17849
621.56        51.39717
621.99        51.21124
622.42        51.31029
622.85        51.76882
623.28        51.70353
623.71        51.58863
624.14        52.00186
624.57        51.56076
625.00        51.66156
625.43        51.73146
625.86         51.0634
626.29        51.25239
626.72        50.94629
627.15        50.71904
627.58        50.67546
628.01        50.73507
628.44        50.73451
628.87        50.61943
629.30        49.96447
629.73        49.64257
630.16        49.55162
630.59        48.98657
631.02        48.61916
631.45        48.31084
631.88        47.92513
632.31        47.48501
632.74        47.03643
633.17        46.58363
633.60        46.04876
634.03        45.46138
634.46        44.95197
634.89         44.5103
635.32        44.01263
635.75        43.45927
636.18        42.92909
636.61        42.43778
637.04        41.97607
637.47         41.5416
637.89         41.1269
638.32        40.72207
638.75        40.34517
639.18        39.99913
639.61        39.68305
640.04        39.37743
640.47        39.05097
640.90        38.70168
641.33        38.34065
641.76        38.01279
642.18        37.79573
642.61        37.69713
643.04        37.69311
643.47        37.73392
643.90        37.73595
644.33        37.67897
644.76        37.59531
645.18        37.51419
645.61         37.4856
646.04        37.52934
646.47        37.62786
646.90        37.79841
647.33        38.06836
647.75         38.4373
648.18        38.89614
648.61        39.38782
649.04        39.82662
649.47        40.19763
649.89         40.4879
650.32        40.77546
650.75        41.27437
651.18        41.98408
651.61         42.6441
652.03        43.21793
652.46        43.99045
652.89        44.93142
653.32        45.41311
653.74        45.49203
654.17        46.59128
654.60        47.10285
655.03         48.2335
655.46        47.57973
655.88        49.60195
656.31        51.21134
656.74        57.84898
657.16        55.48018
657.59        51.98492
658.02        52.55949
658.45        52.49934
658.87         53.3607
659.30        54.03428
659.73        54.53967
660.15        55.44287
660.58        55.44752
661.01         55.3772
661.44        55.12112
661.86        55.43575
662.29        56.27269
662.72        57.09229
663.14        57.68707
663.57         57.7328
664.00        57.40279
664.42        57.40975
664.85        57.83443
665.27        58.20258
665.70        58.44449
666.13         58.7123
666.55        58.99187
666.98        59.23265
667.41        59.43884
667.83        59.60746
668.26        59.72299
668.69        59.82575
669.11        59.93938
669.54        59.99216
669.96        59.97419
670.39         60.3034
670.82        60.33064
671.24        60.47182
671.67          60.577
672.09        60.89138
672.52        61.31934
672.94        61.53222
673.37        61.49638
673.80        61.28284
674.22        61.02328
674.65        60.93552
675.07        61.07499
675.50        61.34842
675.92        61.66222
676.35        61.80386
676.77        61.72438
677.20        61.70446
677.62        61.44086
678.05        61.36833
678.47        61.40229
678.90        61.52112
679.32        61.69937
679.75         61.8652
680.17        61.98831
680.60        62.25387
681.02        62.39081
681.45        62.44359
681.87        62.38979
682.30        62.44242
682.72        62.58451
683.15        62.64685
683.57        62.65136
684.00        62.55416
684.42        62.49551
684.85        62.81962
685.27        62.81077
685.70         63.0619
686.12        63.28869
686.54         63.4339
686.97        63.46908
687.39        63.41565
687.82        63.33447
688.24        63.27478
688.66        63.26662
689.09        63.26688
689.51        63.28028
689.94        63.40259
690.36        63.46851
690.78        63.58698
691.21        63.66799
691.63        63.81046
692.06        64.04158
692.48        63.84224
692.90        63.84065
693.33        64.19795
693.75        64.01427
694.17        63.96293
694.60        64.06973
695.02        63.98156
695.44        63.79197
695.87        63.84156
696.29        64.06467
696.71          63.756
697.14        63.16121
697.56         63.4285
697.98        64.34778
698.41        65.01972
698.83        64.60291
699.25        64.41873
699.68        64.35599
700.10        64.30792
700.52        64.31548
700.94        64.41862
701.37        64.55615
701.79        64.66725
702.21        64.70634
702.64        64.69167
703.06        64.66918
703.48        64.72418
703.90        64.87364
704.33        65.08115
704.75        65.27577
705.17        65.31425
705.59        65.17171
706.01        64.90267
706.44         64.6457
706.86        64.57469
707.28        64.71709
707.70        65.08686
708.12        65.58594
708.55        65.61644
708.97        65.85023
709.39        65.75319
709.81        65.57703
710.23        65.50161
710.66        65.37236
711.08        65.32478
711.50        65.30933
711.92        65.38675
712.34        65.55517
712.76        65.80861
713.19        66.07148
713.61        66.25957
714.03        66.31733
714.45        66.27074
714.87          66.183
715.29        66.15668
715.71        66.21649
716.13         66.3345
716.56        66.45652
716.98        66.54262
717.40        66.54458
717.82        66.53506
718.24        66.55897
718.66         66.4213
719.08        66.55387
719.50        66.60361
719.92        66.66698
720.34        66.69852
720.76        66.69405
721.19        66.63486
721.61        66.55939
722.03        66.57088
722.45        66.67022
722.87         66.6855
723.29        66.63765
723.71        66.68298
724.13        66.82919
724.55        66.98647
724.97        67.13728
725.39        67.29337
725.81        67.44218
726.23        67.57116
726.65        67.68014
727.07        67.77454
727.49        67.85545
727.91        67.92133
728.33         67.9671
728.75        67.98405
729.17        67.97428
729.59        67.94727
730.01        67.91698
730.43        67.90246
730.85        67.90948
731.27        67.93141
731.69        67.96383
732.10        68.00845
732.52        68.04997
732.94        68.08417
733.36        68.09014
733.78        68.06725
734.20          68.066
734.62        67.95947
735.04        67.71791
735.46        67.81254
735.88        68.24992
736.30        67.21705
736.72        67.95177
737.13        67.97243
737.55        68.16814
737.97        68.46114
738.39        68.77212
738.81        68.72713
739.23        68.39851
739.65        68.43678
740.06        68.74323
740.48        68.80946
740.90        68.62794
741.32        68.10914
741.74        68.15996
742.16        68.07959
742.57         68.1489
742.99        68.33222
743.41        68.57793
743.83        68.75922
744.25        68.82776
744.67        68.80791
745.08        68.73382
745.50        68.63663
745.92        68.54895
746.34        68.45719
746.75        68.35507
747.17        68.23908
747.59         68.1223
748.01        68.02579
748.42        67.98412
748.84        68.06157
749.26         68.2785
749.68        68.45646
750.09         68.5932
750.51        68.99476
750.93        69.47334
751.35        69.33306
751.76        68.72527
752.18        68.28821
752.60        68.52846
753.01        68.60905
753.43         68.6237
753.85        68.71006
754.27        68.84483
754.68        69.12334
755.10        69.42603
755.52        69.28226
755.93        68.81706
756.35        68.75585
756.77        69.09047
757.18        69.26427
757.60        69.29559
758.02        69.41128
758.43        69.50626
758.85        69.88992
759.26        69.84373
759.68         69.4748
760.10        69.22715
760.51        69.24639
760.93         69.0592
761.34        68.60982
761.76        69.19518
762.18        68.94264
762.59         68.5704
763.01        67.86613
763.42        68.75185
763.84         69.2426
764.26          69.688
764.67        69.64943
765.09        69.32131
765.50        69.49075
765.92         70.0665
766.33        70.24312
766.75        69.90462
767.16        69.44814
767.58        68.98718
768.00        68.70269
768.41        68.72244
768.83         68.9481
769.24        69.29813
769.66        69.81059
770.07        70.29102
770.49        70.23228
770.90        69.78447
771.32        69.80666
771.73        70.25452
772.15        70.32195
772.56        69.99155
772.97        69.67503
773.39        69.42551
773.80        69.27715
774.22        69.19873
774.63        69.00045
775.05        68.75362
775.46        68.79089
775.88        69.10871
776.29        69.57391
776.70        70.00024
777.12        70.16801
777.53        70.02902
777.95         69.6204
778.36        69.13558
778.77        68.91717
779.19        69.05402
779.60        69.49265
780.02        69.99746
780.43        70.35945
780.84        70.50632
781.26        70.13072
781.67        69.54621
782.09        70.16057
782.50         71.5951
782.91         71.6359
783.33        70.40231
783.74         70.0016
784.15        70.52139
784.57         70.7443
784.98        70.56475
785.39        70.39521
785.81        70.21934
786.22        69.88332
786.63        69.50317
787.04         69.3597
787.46        69.48779
787.87        69.73262
788.28        70.00317
788.70        70.40459
789.11        70.41274
789.52        70.53686
789.93        70.64319
790.35        70.53911
790.76        70.31924
791.17         70.4155
791.58         70.7804
792.00        70.81063
792.41        70.47602
792.82        70.37705
793.23        70.47079
793.65        69.94087
794.06        69.10911
794.47        69.39268
794.88        70.55308
795.29        71.29263
795.71        70.96716
796.12        70.96657
796.53         71.2524
796.94        70.92537
797.35        70.19202
797.76        69.98828
798.18        70.31033
798.59        70.57012
799.00        70.51744
799.41        70.65319
799.82        71.01934
800.23        71.19415
800.64        71.17989
801.06        70.99699
801.47        70.77995
801.88         70.7019
802.29        70.79216
802.70        70.96677
803.11        71.11445
803.52        71.06018
803.93        70.79787
804.34        70.43591
804.75        70.04213
805.17        69.85091
805.58        69.95012
805.99        69.81873
806.40        69.62108
806.81        70.65134
807.22        72.34292
807.63        72.49448
808.04        70.74303
808.45        70.03033
808.86        70.48464
809.27        71.16239
809.68        71.80912
810.09        72.18672
810.50         72.1752
810.91        72.04282
811.32         71.8794
811.73        71.62561
812.14        71.32085
812.55        71.04526
812.96        70.80332
813.37        70.50864
813.78         70.2201
814.19        70.14194
814.60        70.25134
815.01        70.34725
815.42        70.40656
815.83        70.52133
816.24        70.67921
816.65        70.81058
817.05        70.90331
817.46        70.92392
817.87        70.90566
818.28         70.8619
818.69        70.81876
819.10         70.7897
819.51        70.79301
819.92        70.91947
820.33        71.18824
820.74        71.37426
821.14        71.51768
821.55        72.09841
821.96        72.89875
822.37        72.88354
822.78        72.15509
823.19        71.81556
823.60        71.96131
824.00        71.99541
824.41        71.83844
824.82        71.76046
825.23        71.76365
825.64        71.78926
826.04         71.8504
826.45        71.91695
826.86        71.98725
827.27        72.06767
827.68        72.13049
828.08         72.1486
828.49        72.06526
828.90        71.91901
829.31        71.75282
829.72        71.64661
830.12        71.64213
830.53        71.68031
830.94        71.74007
831.35        71.75565
831.75        71.73173
832.16         71.6544
832.57        71.55429
832.97        71.45915
833.38        71.36688
833.79        71.26701
834.20        71.19267
834.60        71.18809
835.01        71.27305
835.42        71.44779
835.82        71.63483
836.23        71.64886
836.64        71.47534
837.04        71.15148
837.45        70.83486
837.86        70.82829
838.26        71.20256
838.67        71.84502
839.08        72.50986
839.48        72.73392
839.89         72.4077
840.29        71.71414
840.70        70.99722
841.11        70.68947
841.51        70.90792
841.92        71.45676
842.33        72.20778
842.73        72.93969
843.14        73.44212
843.54        73.83356
843.95        73.98717
844.35        73.77994
844.76        73.24133
845.17        72.44549
845.57        71.62518
845.98        71.16309
846.38        71.14924
846.79        71.48499
847.19        72.08415
847.60         72.6338
848.00        73.05766
848.41        73.35617
848.81        73.57617
849.22        73.71619
849.62        73.82607
850.03        73.83356
850.43        73.77086
850.84        73.62065
851.24         73.4479
851.65        73.22427
852.05        73.04059
852.46        72.91709
852.86        72.87001
853.27        72.91151
853.67        72.95006
854.07        72.97073
854.48        72.93572
854.88         72.8866
855.29        72.78243
855.69        72.70359
856.10        72.59048
856.50          72.504
856.90        72.44864
857.31        72.46871
857.71        72.63731
858.12        72.86968
858.52        73.12426
858.92        73.22623
859.33        73.12309
859.73        72.89238
860.13        72.60102
860.54        72.39825
860.94        72.39262
861.34        72.49909
861.75        72.61376
862.15        72.66089
862.55        72.57527
862.96        72.43575
863.36        72.26479
863.76        72.06866
864.17        71.86686
864.57        71.66125
864.97        71.56371
865.38        71.73921
865.78        72.24136
866.18        72.94521
866.58        73.58987
866.99        73.71591
867.39        73.24512
867.79        72.30161
868.19         71.0738
868.60        69.84702
869.00        68.72211
869.40        67.69167
869.80        66.94633
870.21        66.77215
870.61        67.25336
871.01         68.2674
871.41        69.42989
871.81        70.11307
872.22        70.18473
872.62        69.80502
873.02        69.21474
873.42        69.05299
873.82         69.2578
874.22         69.1338
874.63        68.85423
875.03        68.86523
875.43        69.19437
875.83        70.75059
876.23        70.52165
876.63        69.87302
877.03        68.28536
877.44        65.86288
877.84        131.6488
878.24        66.18146
878.64        67.73906
879.04        71.92987
879.44        68.67995
879.84        66.72549
880.24        70.93135
880.64        70.81647
881.04        67.45139
881.44        65.31934
881.84        65.18862
882.24        66.31845
882.65         67.9779
883.05        68.72567
883.45        68.11446
883.85        66.92632
884.25        65.78793
884.65        65.32981
885.05        65.73483
885.45        66.75343
885.85        67.93859
886.25        68.57632
886.65        68.45941
887.05        67.82985
887.45        67.06371
887.85        66.71538
888.25        66.92702
888.65        67.51634
889.04        68.24907
889.44        68.65499
889.84        68.62466
890.24        68.31418
890.64        67.90416
891.04        67.65655
891.44        67.61877
891.84        67.64967
892.24        67.67488
892.64        67.58102
893.04        67.34576
893.44        67.09782
893.83        66.74477
894.23        66.16003
894.63        65.35997
895.03        64.37699
895.43        63.57711
895.83        63.57531
896.23        64.46085
896.63        66.03218
897.02        67.72149
897.42         68.4974
897.82        68.10793
898.22        66.88226
898.62        65.34689
899.01         64.3205
899.41        64.06402
899.81        64.29518
900.21        64.83764
900.61        65.43043
901.00        65.94398
901.40        66.45431
901.80        66.87802
902.20        67.03452
902.59        66.90847
902.99        66.53056
903.39         66.0202
903.79        65.60689
904.18        65.37009
904.58        65.29159
904.98        65.40585
905.38        65.76418
905.77        66.32886
906.17         67.0801
906.57        67.80044
906.96        68.17257
907.36        68.08399
907.76         67.6009
908.15        66.98114
908.55        66.59894
908.95        66.57538
909.34        66.85429
909.74        67.15136
910.14        66.95687
910.53        66.17208
910.93        65.03641
911.33        64.03054
911.72        63.91074
912.12        64.76488
912.52        66.25988
912.91        67.86252
913.31        68.67147
913.70        68.52063
914.10        67.66536
914.49        66.39017
914.89        65.37783
915.29        64.91043
915.68        64.79532
916.08        64.99185
916.47        65.42999
916.87        65.99039
917.26        66.68656
917.66        67.30288
918.05        67.50685
918.45        67.21459
918.84        66.57967
919.24        65.70444
919.64        64.79289
920.03         63.9738
920.42        63.21469
920.82        62.80543
921.21        63.13895
921.61        64.16834
922.00        65.79782
922.40        67.38835
922.79        68.12199
923.19        67.80129
923.58        66.43198
923.98        64.44068
924.37         63.4364
924.77        64.02856
925.16        62.03117
925.55        64.17873
925.95        64.54907
926.34        65.06635
926.74        65.60371
927.13        66.20249
927.52        66.71038
927.92        67.05747
928.31         67.3195
928.70        67.41432
929.10        67.27967
929.49        66.93128
929.89         66.3994
930.28        65.92217
930.67        65.86635
931.07        66.26955
931.46        67.08416
931.85        67.93958
932.24         68.2837
932.64        67.98549
933.03        67.09155
933.42        65.95811
933.82         65.3341
934.21        65.40199
934.60        65.96291
934.99         66.3697
935.39        66.02895
935.78        64.87932
936.17        62.49956
936.56        59.24656
936.96        60.19092
937.35        59.56103
937.74        61.80823
938.13        64.13425
938.53        65.67098
938.92        66.29951
939.31        66.33394
939.70        66.05207
940.09        65.80312
940.49        65.77448
940.88        65.86572
941.27        66.03899
941.66        66.29544
942.05        66.60448
942.44        66.94956
942.84        67.37575
943.23        67.94369
943.62         68.6048
944.01        69.35993
944.40        69.86912
944.79        69.60356
945.18        68.47733
945.57        66.58439
945.97        64.61874
946.36        63.80524
946.75        64.51415
947.14        66.31936
947.53        68.27607
947.92        69.07324
948.31         68.4837
948.70         66.9292
949.09        65.04819
949.48        63.95741
949.87        64.01515
950.26        64.85528
950.65        66.05465
951.04        66.92031
951.43        67.19835
951.82        67.11877
952.21        66.81668
952.60        66.48765
952.99        66.22058
953.38        65.91596
953.77        65.60239
954.16        65.36011
954.55        65.20358
954.94           65.16
955.33        65.17006
955.72        65.09786
956.11          64.924
956.50        64.69102
956.89        64.49623
957.28        64.52658
957.66        64.82961
958.05        65.23534
958.44        65.65014
958.83        65.95853
959.22        66.11599
959.61        66.16256
960.00        66.00259
960.39        65.48363
960.78        64.63171
961.16        63.51331
961.55        62.44981
961.94         61.8021
962.33        61.65528
962.72        61.92749
963.11        62.40017
963.49        62.69526
963.88        62.61316
964.27         62.2789
964.66        61.86803
965.04        61.68485
965.43        61.79913
965.82        62.11796
966.21        62.46707
966.60         62.5711
966.98        62.39116
967.37        62.01856
967.76        61.67823
968.15        61.70401
968.53        62.16958
968.92        62.85167
969.31         63.5769
969.69         64.0582
970.08         64.1314
970.47        63.92726
970.86        63.40669
971.24        62.47469
971.63        61.25182
972.02        59.81661
972.40        58.48314
972.79        57.81852
973.17        57.99024
973.56        58.76823
973.95        59.96433
974.33        61.19236
974.72        62.11957
975.11        62.81171
975.49        63.06335
975.88        62.57537
976.26        61.38752
976.65        59.65831
977.04        57.77166
977.42        56.42502
977.81        55.87729
978.19        55.94798
978.58         56.5678
978.96        57.56155
979.35        58.72486
979.74        60.19648
980.12        61.58877
980.51        61.97804
980.89        61.33147
981.28        59.82287
981.66        58.30457
982.05        58.00464
982.43        59.07655
982.82        61.12907
983.20        63.45164
983.59        64.44305
983.97        63.73042
984.35        61.74636
984.74        59.31324
985.12        57.60741
985.51        57.00075
985.89        57.11969
986.28        57.71637
986.66        58.30939
987.04        58.58473
987.43        58.78514
987.81        58.72181
988.20        58.09724
988.58        56.80579
988.96        54.65131
989.35        52.08624
989.73        50.65107
990.12        51.14374
990.50        53.20829
990.88        55.50108
991.27        56.43192
991.65        55.98416
992.03        54.56191
992.42        53.08224
992.80        53.24876
993.18        55.49227
993.56        58.90899
993.95        62.37146
994.33        64.80491
994.71        65.78123
995.10          65.704
995.48        64.88405
995.86        63.66689
996.24        62.24769
996.63        60.54493
997.01        58.63331
997.39        57.05186
997.77        56.16145
998.15        55.90499
998.54        56.21614
998.92        56.96324
999.30        58.09279
999.68         59.8534
1000.06        61.53823
1000.45        61.03472
1000.83        57.93416
1001.21        53.44793
1001.59        49.65879
1001.97        48.14103
1002.35        48.70918
1002.73        50.94033
1003.12        53.97372
1003.50        55.65851
1003.88        54.91975
1004.26        52.47528
1004.64        49.44403
1005.02        47.39992
1005.40        46.76721
1005.78        46.99311
1006.16        47.97274
1006.54         49.4144
1006.92         50.7962
1007.30        52.03099
1007.69        52.66658
1008.07        52.33206
1008.45        50.80492
1008.83        47.84237
1009.21         43.0327
1009.59        37.25154
1009.97        32.45834
1010.35        29.61161
1010.73        29.71651
1011.11        32.69404
1011.49        37.61572
1011.86        44.16033
1012.24        49.75901
1012.62        52.21964
1013.00        51.47345
1013.38        48.32156
1013.76        44.22394
1014.14        41.81668
1014.52        41.89444
1014.90        43.70826
1015.28        46.07068
1015.66        46.91944
1016.04        45.56287
1016.41        42.60802
1016.79        38.81992
1017.17         36.1561
1017.55         35.6592
1017.93        36.47964
1018.31        37.99986
1018.69        39.83185
1019.06        41.76915
1019.44        43.77394
1019.82        45.40405
1020.20        45.30881
1020.58         43.0206
1020.95        39.12296
1021.33        34.04927
1021.71        27.29945
1022.09         17.5138
1022.46      0.08944651
1022.84       -24.69949
1023.22       -30.96001
1023.60       -6.005325
1023.97        21.80978
1024.35        37.41823
1024.73        42.30793
