SpectraSmart Spectrum 2.9.0.0
--------- Device Information -----------
Spectrum Name :  反射率_0
Saving Time :  2024/04/20 00:57:51
Spectro-Module Model Name : SE2030-DUVN
Spectro-Module Serial Number : OS361AC55029948
Wavelength Start : 200
Wavelength End : 1025
Wavelength Unit : Wavelength(nm)
Spectrum Unit : Reflectance(%)
-----------Spectrum Setting ------------
Integration Time : 30ms
Average : 10
Boxcar : 0
Background removal :  enabled
linearity correction :  enabled
SC :  disabled
Intensity correction :  disabled
DWT denoise :  enabled
savitzky-golay :  disabled
FFT :  disabled
Running average :  disabled
Kalman :  disabled
High pass :  disabled
---------------BEGIN--------------------
Wavelength(nm)             Reflectance(%)
200.29               0
200.75        57.69904
201.21        58.55688
201.67        61.07382
202.13        64.85103
202.58        69.48627
203.04        75.22826
203.50        80.35128
203.96        80.72264
204.42        76.53947
204.88        70.58733
205.34        65.32448
205.80        61.69761
206.26        59.01345
206.72        56.38641
207.18        53.42023
207.64        50.69905
208.10        49.58661
208.55        50.62802
209.01        52.32791
209.47        53.88148
209.93        55.03869
210.39        55.99723
210.85        56.39624
211.31         55.8257
211.77        54.19118
212.23        51.22436
212.69          47.706
213.14        47.04293
213.60        49.77465
214.06        54.07817
214.52        57.62934
214.98        59.32928
215.44         59.4881
215.90        58.30474
216.36        56.62897
216.81        56.37398
217.27        58.02999
217.73        61.01852
218.19        63.11509
218.65        61.20642
219.11        54.75723
219.57        44.25293
220.02        32.28217
220.48        25.98668
220.94        27.87751
221.40        36.46859
221.86        47.21821
222.32        53.07555
222.77        52.24612
223.23        47.05682
223.69        40.66946
224.15         37.6795
224.61        38.50631
225.06        40.94066
225.52         42.9848
225.98        43.09831
226.44        41.19927
226.90        38.11069
227.36        34.54889
227.81        31.76369
228.27        30.61731
228.73        30.54167
229.19        31.27435
229.65        32.50987
230.10        33.97031
230.56        35.57837
231.02        37.05617
231.48         38.0551
231.93        38.53221
232.39        38.58636
232.85        38.35763
233.31          38.102
233.77        37.89781
234.22        37.67384
234.68        37.41471
235.14        36.98107
235.60        36.40372
236.05        35.83622
236.51        35.42743
236.97        35.33429
237.43        35.68855
237.88        36.67393
238.34        38.38828
238.80        40.88711
239.26        43.76337
239.71        46.48158
240.17         48.7443
240.63        50.98896
241.08        53.42781
241.54        55.94225
242.00        57.64392
242.46        56.81478
242.91        52.56793
243.37        43.76709
243.83        31.36552
244.28        24.34551
244.74        31.26678
245.20        49.97761
245.66        68.15307
246.11        75.65498
246.57        71.87537
247.03        57.64841
247.48         35.8996
247.94        26.29961
248.40        34.01537
248.85        45.99364
249.31        55.23687
249.77        60.03273
250.22         61.5615
250.68        61.42203
251.14        60.29021
251.59        59.14677
252.05         58.8145
252.51        59.03971
252.96        58.92638
253.42        57.47272
253.88        54.82019
254.33        51.75713
254.79        50.53246
255.25        52.95688
255.70        58.38805
256.16        65.35256
256.62        71.31226
257.07        73.45874
257.53        72.04214
257.99        68.27319
258.44         63.8605
258.90        61.65519
259.35        61.26235
259.81        61.96553
260.27        62.32957
260.72        61.17577
261.18        58.90803
261.63        55.71365
262.09        52.83149
262.55         51.4355
263.00        51.49498
263.46        52.51863
263.91        53.31153
264.37        52.75992
264.83        50.84442
265.28        48.05029
265.74        45.48716
266.19        44.24453
266.65        44.48804
267.11        45.60962
267.56        46.82787
268.02        47.03105
268.47        46.01689
268.93        44.18477
269.38        42.01184
269.84         40.4941
270.30        39.89246
270.75        39.90868
271.21        40.15654
271.66        40.05915
272.12        39.45407
272.57         38.5351
273.03        37.55644
273.48        36.80926
273.94        36.41531
274.39        36.21614
274.85        36.05875
275.31        35.70118
275.76        35.07453
276.22        34.28745
276.67         33.4714
277.13        32.92226
277.58        32.62864
278.04        32.53095
278.49        32.37672
278.95          31.882
279.40         30.9887
279.86        29.89872
280.31        28.80427
280.77        28.11174
281.22        27.81928
281.68         27.8176
282.13        27.90189
282.59        27.80805
283.04        27.47159
283.50        27.02978
283.95        26.55482
284.41         26.1863
284.86        25.94223
285.32        25.78308
285.77        25.71514
286.22        25.82027
286.68        26.07094
287.13        26.40952
287.59        26.70125
288.04        26.72268
288.50        26.46694
288.95         25.9809
289.41        25.43719
289.86        25.02986
290.32        24.86835
290.77        24.89127
291.22        25.05031
291.68        25.23349
292.13        25.41323
292.59        25.63834
293.04        25.96179
293.50        26.47685
293.95        27.17652
294.40        28.00082
294.86        28.85304
295.31        29.60166
295.77        30.21457
296.22        30.73166
296.68         31.2063
297.13        31.70436
297.58        32.26298
298.04        32.86781
298.49        33.51545
298.95        34.24347
299.40        35.02438
299.85        35.83402
300.31        36.62715
300.76        37.32469
301.21        37.90603
301.67         38.4241
302.12        38.84138
302.58        39.17146
303.03        39.41458
303.48        39.60162
303.94        39.85915
304.39        40.33533
304.84        41.05069
305.30         41.9332
305.75        42.80236
306.20        43.40651
306.66        43.70761
307.11        43.76696
307.57        43.71436
308.02        43.66929
308.47        43.70488
308.93        43.77477
309.38        43.87882
309.83        44.07431
310.29        44.34678
310.74        44.68675
311.19        44.97345
311.65        45.00549
312.10        44.74779
312.55        44.26211
313.00        43.72435
313.46        43.40963
313.91        43.36133
314.36         43.5134
314.82        43.70597
315.27        43.70242
315.72        43.43074
316.18        42.98671
316.63         42.4852
317.08        42.10993
317.53        41.90464
317.99        41.79755
318.44        41.71959
318.89        41.55188
319.35        41.25918
319.80        40.88567
320.25          40.474
320.70        40.08874
321.16        39.74636
321.61         39.4307
322.06        39.11559
322.51        38.76705
322.97        38.37011
323.42        37.94741
323.87        37.51718
324.32        37.11232
324.78        36.73553
325.23        36.38903
325.68        36.04181
326.13        35.65018
326.59        35.20922
327.04         34.7622
327.49        34.34377
327.94        34.01223
328.39        33.77873
328.85        33.59908
329.30        33.49134
329.75        33.43279
330.20        33.39899
330.66        33.36681
331.11        33.29364
331.56         33.0557
332.01        32.63029
332.46        32.04495
332.92        31.39049
333.37        30.84097
333.82        30.45959
334.27        30.23272
334.72        30.09657
335.17        29.93071
335.63        29.68808
336.08        29.40322
336.53         29.1588
336.98        29.10134
337.43        29.24772
337.88         29.5465
338.34        29.79229
338.79        29.70445
339.24        29.21229
339.69        28.40222
340.14        27.55361
340.59        27.13799
341.05        27.25373
341.50        27.75887
341.95        28.35544
342.40        28.57991
342.85        28.32169
343.30        27.73857
343.75        27.02916
344.20        26.51792
344.66        26.30165
345.11        26.24578
345.56        26.28199
346.01        26.30401
346.46        26.25949
346.91        26.20826
347.36        26.08474
347.81        25.76939
348.26        25.27184
348.72        24.65277
349.17        24.05332
349.62        23.79218
350.07        23.93709
350.52        24.38072
350.97        24.94199
351.42        25.34683
351.87         25.5097
352.32        25.49393
352.77        25.35378
353.22         25.1836
353.67        25.02099
354.13        24.84566
354.58        24.63316
355.03        24.39061
355.48        24.13124
355.93        23.88536
356.38        23.68093
356.83        23.54659
357.28        23.48286
357.73        23.46692
358.18        23.48129
358.63        23.49768
359.08        23.49793
359.53        23.48874
359.98        23.43212
360.43        23.27364
360.88        23.01365
361.33        22.66697
361.78         22.3202
362.23        22.11762
362.68        22.08434
363.13         22.1721
363.58        22.27435
364.03        22.22306
364.48        21.97845
364.93        21.59367
365.38        21.14869
365.83        20.78182
366.28        20.54502
366.73        20.40212
367.18        20.32026
367.63        20.24606
368.08        20.15707
368.53        20.07064
368.98         19.9929
369.43        19.92527
369.88        19.87002
370.33        19.82714
370.78        19.77777
371.23        19.69937
371.68        19.58869
372.13        19.44095
372.58        19.31456
373.03        19.30678
373.48        19.42392
373.93        19.62991
374.38         19.8029
374.83        19.75774
375.28         19.4653
375.72        18.97928
376.17        18.45942
376.62        18.12392
377.07        18.03687
377.52        18.13232
377.97        18.30966
378.42        18.41021
378.87        18.38559
379.32        18.28203
379.77        18.15229
380.22        18.07166
380.67        18.05754
381.11        18.08271
381.56        18.09043
382.01        18.01169
382.46        17.83211
382.91        17.57688
383.36        17.31894
383.81         17.1621
384.26        17.12727
384.71        17.19144
385.15         17.2619
385.60        17.20039
386.05        16.98253
386.50         16.6501
386.95         16.3269
387.40        16.20714
387.85        16.32015
388.29        16.59188
388.74        16.87024
389.19        16.93936
389.64        16.76038
390.09        16.40037
390.54        15.99714
390.98        15.76514
391.43        15.77055
391.88        15.92849
392.33        16.11146
392.78        16.13708
393.23        15.97851
393.67        15.69862
394.12        15.42425
394.57         15.2722
395.02        15.26737
395.47         15.3635
395.91         15.4961
396.36        15.53822
396.81        15.46175
397.26        15.30525
397.71        15.13617
398.15        15.03925
398.60        15.05111
399.05        15.13036
399.50         15.2155
399.95        15.22087
400.39        15.12729
400.84         14.9585
401.29        14.77974
401.74         14.7102
402.18         14.7842
402.63        14.95538
403.08        15.12848
403.53        15.15058
403.97        14.99263
404.42        14.71501
404.87        14.42301
405.32        14.28999
405.76        14.35335
406.21        14.55024
406.66        14.78474
407.11        14.90721
407.55        14.87855
408.00        14.75053
408.45        14.57205
408.90        14.39227
409.34        14.26063
409.79        14.22689
410.24        14.26084
410.68        14.25696
411.13        14.20688
411.58        14.17393
412.03        14.15763
412.47        14.13453
412.92        14.10169
413.37         14.0556
413.81        14.02518
414.26        14.06962
414.71         14.1884
415.15        14.37213
415.60        14.53257
416.05        14.55036
416.49        14.39887
416.94        14.12154
417.39        13.81929
417.83        13.65582
418.28        13.67568
418.73        13.82145
419.17        14.00533
419.62        14.07706
420.07        14.00598
420.51        13.84475
420.96        13.65633
421.41        13.51996
421.85        13.45767
422.30        13.45043
422.74        13.48097
423.19        13.55124
423.64        13.64552
424.08        13.77266
424.53        13.89121
424.98        13.95022
425.42        13.93764
425.87        13.86657
426.31        13.76057
426.76        13.66929
427.21        13.59877
427.65        13.53027
428.10        13.48399
428.54        13.47008
428.99        13.49206
429.44          13.611
429.88        13.74266
430.33        13.65928
430.77        13.40767
431.22        13.26102
431.66        13.26767
432.11        13.35177
432.56        13.49615
433.00        13.75615
433.45        13.97805
433.89        13.93402
434.34        13.70662
434.78        13.44471
435.23        13.15518
435.67         13.7349
436.12        13.26747
436.57        13.18075
437.01        12.96744
437.46        12.88291
437.90        12.93867
438.35        13.02166
438.79        13.09401
439.24        13.15388
439.68        13.18685
440.13        13.08198
440.57        12.91736
441.02        13.02957
441.46        13.29625
441.91        13.30614
442.35         12.7526
442.80        12.53546
443.24        12.52459
443.69        12.44648
444.13        12.29037
444.58        12.18126
445.02        12.12857
445.47        12.13445
445.91        12.17199
446.36        12.16881
446.80        12.10973
447.24        12.02964
447.69        11.95681
448.13        11.90628
448.58        11.89106
449.02        11.90151
449.47        11.91871
449.91        11.90819
450.36        11.86718
450.80        11.80359
451.25        11.74747
451.69        11.73073
452.13         11.7632
452.58        11.82523
453.02        11.89386
453.47        11.93095
453.91        11.92889
454.36        11.89893
454.80        11.85029
455.24        11.80028
455.69        11.76174
456.13         11.7156
456.58        11.68059
457.02        11.67753
457.46        11.70624
457.91        11.73529
458.35        11.74842
458.79        11.74591
459.24        11.72315
459.68        11.68011
460.13        11.67153
460.57        11.66749
461.01        11.66298
461.46        11.96535
461.90        12.08365
462.34        11.97783
462.79        12.03912
463.23        11.87509
463.68        11.71494
464.12        11.61587
464.56        11.69456
465.01        11.84212
465.45        11.99392
465.89        12.06773
466.34        12.05124
466.78         11.9346
467.22        11.78388
467.67        11.78896
468.11        11.93544
468.55        11.97262
468.99        11.90038
469.44        11.91455
469.88        12.01613
470.32        12.08888
470.77        12.11017
471.21        12.10803
471.65        12.08074
472.10        12.02311
472.54        11.96059
472.98          11.965
473.42        12.04538
473.87        12.14566
474.31        12.23859
474.75         12.3537
475.20         12.4552
475.64        12.42036
476.08         12.3025
476.52        12.29337
476.97        12.40809
477.41        12.56248
477.85         12.7034
478.29         12.7824
478.74        12.78393
479.18        12.70037
479.62        12.60343
480.06         12.6074
480.50        12.71608
480.95        12.83821
481.39        12.92292
481.83        12.95193
482.27        12.91749
482.72        12.83157
483.16        12.74844
483.60        12.75151
484.04         12.8538
484.48        13.08899
484.93        13.45088
485.37        13.62749
485.81         13.7028
486.25        14.18048
486.69        14.52475
487.14        14.08045
487.58        14.01111
488.02        14.63202
488.46        14.42348
488.90        14.52877
489.34        14.39337
489.79        14.51132
490.23        14.83478
490.67        15.08293
491.11        15.20519
491.55        15.17506
491.99        15.04032
492.43        14.99411
492.88        15.06837
493.32        15.12251
493.76        15.18944
494.20        15.37732
494.64        15.68446
495.08        16.11152
495.52        16.56336
495.96         16.7973
496.41        16.83579
496.85        16.92832
497.29        17.10259
497.73        17.27564
498.17        17.43392
498.61        17.52535
499.05        17.56902
499.49        17.70366
499.93         17.9399
500.37        18.14272
500.82        18.30836
501.26        18.58087
501.70        18.91041
502.14        19.03867
502.58        18.99141
503.02        19.03379
503.46        19.18376
503.90        19.29861
504.34        19.35551
504.78        19.38315
505.22        19.38199
505.66        19.35744
506.10        19.33508
506.54        19.35092
506.98        19.41751
507.42        19.52732
507.86        19.67359
508.30        19.84271
508.74        20.02048
509.18        20.19987
509.62        20.36637
510.06        20.49836
510.50        20.59211
510.94        20.65826
511.38         20.6918
511.82        20.68845
512.26        20.65544
512.70        20.59331
513.14        20.55058
513.58        20.59868
514.02        20.73891
514.46        20.95185
514.90        21.15873
515.34        21.17332
515.78        21.00036
516.22        20.75886
516.66        20.56285
517.10        20.24814
517.54         19.8491
517.98        20.47962
518.42        20.42036
518.86        20.69583
519.30        20.77266
519.74         20.8329
520.18        20.86724
520.62        20.83888
521.06        20.76888
521.50        20.64662
521.93        20.50252
522.37        20.39799
522.81        20.34704
523.25        20.34108
523.69          20.353
524.13         20.3362
524.57        20.27848
525.01        20.19114
525.45        20.10024
525.89        20.04716
526.32        20.03801
526.76        20.05847
527.20        20.07055
527.64        20.01925
528.08        19.89295
528.52        19.70843
528.96         19.5099
529.40        19.36332
529.83        19.28341
530.27        19.25694
530.71        19.23734
531.15        19.15149
531.59        18.98965
532.03        18.78218
532.46        18.58383
532.90        18.49461
533.34        18.52468
533.78        18.63317
534.22         18.7665
534.66        18.84407
535.09        18.83811
535.53        18.78091
535.97        18.68395
536.41        18.56305
536.85        18.43484
537.28        18.30717
537.72        18.21449
538.16        18.15557
538.60        18.22571
539.04        18.33182
539.47        18.45973
539.91        18.59248
540.35        18.72704
540.79        18.71004
541.22        18.79323
541.66        18.85911
542.10        19.00229
542.54        18.91106
542.97        19.09333
543.41        19.21044
543.85        19.39909
544.29        19.60634
544.72        19.79691
545.16        19.97262
545.60        20.12234
546.04        20.18625
546.47          20.232
546.91        20.49605
547.35        20.92987
547.79        21.25562
548.22          21.434
548.66        21.55187
549.10        21.64953
549.53        21.87752
549.97        22.23719
550.41        22.32051
550.84        22.53596
551.28        22.66704
551.72         22.8706
552.15        23.12103
552.59        23.42087
553.03        23.76068
553.46        24.07923
553.90        24.30941
554.34        24.43556
554.77        24.47808
555.21        24.49138
555.65        24.54961
556.08        24.66963
556.52        24.83154
556.96        25.00292
557.39        25.16003
557.83        25.28742
558.27        25.34724
558.70        25.36986
559.14        25.44512
559.57        25.57262
560.01        25.73536
560.45        25.90225
560.88          25.978
561.32        26.00418
561.75        26.10493
562.19        26.35397
562.63        26.40127
563.06        26.31443
563.50        26.37451
563.93        26.57223
564.37        26.78431
564.80        26.86734
565.24        26.99467
565.68        27.11271
566.11         27.2002
566.55        27.27333
566.98        27.30763
567.42        27.33355
567.85        27.54226
568.29          27.642
568.72          28.014
569.16         28.4721
569.60        28.91877
570.03        28.99881
570.47        29.15205
570.90        29.20196
571.34        29.43259
571.77        29.43604
572.21        29.71871
572.64        30.07557
573.08        30.08129
573.51        30.24465
573.95        30.92004
574.38        30.99717
574.82        31.22215
575.25        31.24154
575.69        31.11957
576.12        31.19674
576.56        31.16825
576.99        31.14953
577.42        31.37391
577.86        31.42946
578.29        31.10166
578.73          31.943
579.16        31.14335
579.60        30.89865
580.03         30.8505
580.47        30.84242
580.90        30.50289
581.33        30.29222
581.77        30.49433
582.20        30.90908
582.64        30.48302
583.07        29.99142
583.51        30.00497
583.94        29.39112
584.37        29.28182
584.81        28.98534
585.24        28.93703
585.68        28.94997
586.11        28.82594
586.54         28.5046
586.98        28.38638
587.41        28.46478
587.85        28.50222
588.28        28.43406
588.71        28.28049
589.15        28.10935
589.58        27.83093
590.01        27.86535
590.45        28.26852
590.88         28.0225
591.31          27.967
591.75        27.71721
592.18        27.86998
592.61        27.74658
593.05        28.15812
593.48        27.93843
593.91        28.61375
594.35        28.20442
594.78        28.39789
595.21        28.86881
595.65        28.96503
596.08        29.06187
596.51        29.10779
596.94        29.28474
597.38        29.36541
597.81        29.41402
598.24        29.80025
598.68        30.44515
599.11        30.57947
599.54        31.66364
599.97        31.58512
600.41        31.66304
600.84        32.57394
601.27        33.01214
601.70        33.43983
602.14        33.79272
602.57        34.22841
603.00        34.87542
603.43         35.4008
603.87        35.79677
604.30         36.3545
604.73        37.05681
605.16        37.12247
605.60        37.61672
606.03        38.02338
606.46        38.50984
606.89        39.59971
607.32        40.02718
607.76        40.29628
608.19        40.75645
608.62         41.2531
609.05        41.25109
609.48        41.53254
609.92        41.99007
610.35        41.99103
610.78        43.29506
611.21        43.91639
611.64        43.79234
612.07        44.18196
612.50        44.55252
612.94        44.32783
613.37         44.8957
613.80        45.08872
614.23        45.35858
614.66        45.70292
615.09        46.03912
615.52        46.47754
615.96        46.89401
616.39        47.21245
616.82        47.46581
617.25        47.42591
617.68        47.68632
618.11        48.05611
618.54          48.575
618.97        48.66955
619.40        48.35263
619.84        48.43843
620.27        48.05401
620.70        48.53114
621.13        49.38499
621.56        49.65317
621.99        49.40638
622.42         49.3741
622.85        49.66513
623.28        49.73658
623.71        49.59237
624.14        49.93215
624.57        49.80839
625.00        49.77649
625.43        49.98992
625.86        49.21179
626.29        49.22202
626.72        49.09183
627.15        48.93011
627.58        48.92553
628.01        48.84856
628.44         48.7917
628.87        48.76025
629.30        47.79282
629.73        47.60696
630.16        47.27473
630.59        47.02135
631.02         46.7221
631.45        46.29126
631.88        45.89534
632.31        45.50732
632.74        45.02844
633.17        44.47784
633.60        43.94678
634.03        43.45076
634.46        42.96699
634.89        42.47368
635.32        41.93548
635.75        41.35234
636.18        40.75071
636.61         40.1666
637.04        39.64759
637.47        39.20271
637.89        38.81713
638.32        38.46223
638.75        38.11354
639.18        37.76277
639.61        37.42459
640.04        37.09293
640.47        36.75417
640.90        36.41207
641.33        36.07226
641.76        35.76838
642.18        35.56051
642.61        35.45382
643.04        35.43158
643.47        35.45877
643.90        35.47442
644.33        35.46254
644.76        35.44645
645.18        35.44009
645.61        35.46877
646.04        35.54561
646.47        35.66179
646.90        35.83833
647.33        36.11039
647.75        36.47544
648.18        36.91562
648.61        37.38868
649.04        37.80796
649.47        38.16272
649.89        38.52416
650.32        38.92284
650.75        39.34349
651.18        39.86667
651.61        40.56353
652.03        41.39974
652.46        42.47261
652.89        43.62888
653.32        44.03428
653.74        43.84126
654.17        44.59386
654.60        45.46439
655.03        46.38128
655.46         45.7959
655.88        48.02458
656.31        49.38602
656.74        56.92095
657.16        53.60611
657.59        49.14445
658.02        49.80042
658.45         50.5858
658.87         51.5036
659.30        51.76772
659.73        52.36448
660.15        53.59414
660.58        53.43861
661.01        53.43191
661.44        53.11972
661.86        53.25901
662.29        53.85485
662.72        54.67723
663.14         55.4958
663.57        55.59483
664.00         55.1412
664.42        55.13297
664.85        55.64482
665.27        56.03075
665.70        56.21418
666.13         56.4222
666.55        56.64566
666.98        56.81492
667.41        56.94298
667.83        57.05032
668.26        57.13883
668.69        57.21991
669.11        57.30698
669.54        57.41349
669.96        57.54962
670.39        57.71083
670.82        57.88546
671.24        58.08026
671.67        58.29663
672.09        58.45611
672.52        58.52529
672.94        58.84064
673.37        58.81612
673.80        58.74425
674.22         58.5445
674.65        58.49729
675.07        58.64254
675.50        58.84559
675.92        59.04908
676.35        59.15652
676.77        59.14545
677.20        59.06425
677.62        58.96667
678.05        58.90997
678.47        58.90493
678.90        59.06157
679.32        59.16417
679.75        59.30524
680.17        59.42582
680.60        59.66485
681.02        59.99432
681.45        59.88308
681.87        59.70972
682.30         59.9232
682.72         60.5146
683.15        60.60523
683.57        60.23027
684.00        60.21502
684.42        60.40044
684.85        60.52072
685.27        60.51702
685.70        60.61556
686.12        60.78596
686.54         60.9253
686.97        61.02412
687.39        61.06541
687.82        61.05139
688.24        61.15135
688.66        61.31449
689.09        61.20269
689.51        60.91154
689.94        60.91918
690.36        61.21873
690.78        61.36937
691.21        61.34681
691.63        61.32865
692.06        61.72058
692.48        61.57096
692.90         61.5927
693.33        61.95263
693.75        61.77378
694.17        61.86863
694.60        61.91985
695.02        61.89429
695.44        61.76173
695.87        61.79385
696.29        61.94717
696.71        61.64503
697.14        61.18933
697.56        61.64902
697.98        62.69916
698.41        63.74533
698.83        63.18764
699.25        62.66122
699.68         62.5519
700.10        62.36804
700.52        62.35517
700.94        62.42754
701.37         62.5389
701.79        62.70067
702.21        62.85322
702.64        62.96752
703.06        63.05069
703.48        63.15031
703.90         63.2679
704.33        63.38675
704.75         63.4747
705.17         63.4149
705.59         63.1944
706.01        63.03718
706.44        62.72746
706.86        62.69607
707.28        62.87253
707.70        63.20515
708.12         63.5827
708.55        63.82914
708.97         63.8984
709.39        63.84586
709.81        63.72047
710.23        63.61277
710.66        63.56383
711.08        63.55164
711.50         63.5724
711.92        63.63989
712.34         63.7562
712.76        63.91411
713.19          64.067
713.61        64.23225
714.03        64.38018
714.45        64.32822
714.87        64.43209
715.29        64.49205
715.71        64.61484
716.13        64.77489
716.56        64.91755
716.98        65.02312
717.40         65.0499
717.82        65.00908
718.24        64.94225
718.66        64.93472
719.08        64.99343
719.50        65.05694
719.92        65.09378
720.34         65.0879
720.76        65.03109
721.19        64.92236
721.61        64.81136
722.03        64.74114
722.45        64.74467
722.87        64.81659
723.29        64.95395
723.71         65.0036
724.13        65.17134
724.55        65.29043
724.97        65.42893
725.39         65.5388
725.81        65.60832
726.23        65.72003
726.65        65.89849
727.07         65.7489
727.49        65.98181
727.91        66.02038
728.33        66.07382
728.75        66.10697
729.17        66.12272
729.59        66.15895
730.01         66.1862
730.43        66.13766
730.85         66.0696
731.27        66.07711
731.69        66.11983
732.10        66.48586
732.52        66.37954
732.94        66.35894
733.36        66.22968
733.78        66.15208
734.20        66.17454
734.62          66.156
735.04        66.05518
735.46        66.11423
735.88        66.39078
736.30        65.71981
736.72        66.08228
737.13        66.22356
737.55          66.619
737.97         66.9501
738.39        67.13087
738.81        67.13496
739.23        67.00559
739.65        66.92688
740.06        66.89525
740.48        66.95269
740.90        67.02923
741.32        66.67121
741.74        66.40929
742.16         66.2858
742.57        66.49277
742.99        66.73119
743.41        66.91788
743.83        67.09423
744.25        67.23938
744.67        66.94061
745.08        66.96909
745.50        66.79166
745.92        66.66247
746.34        66.54335
746.75        66.44747
747.17        66.37315
747.59        66.32594
748.01         66.3643
748.42        66.46377
748.84        66.54726
749.26         66.6535
749.68        66.70848
750.09        66.77082
750.51        67.27278
750.93        67.95648
751.35        67.87104
751.76        67.16135
752.18        66.75229
752.60        66.66309
753.01        67.13061
753.43        66.66757
753.85        66.73682
754.27        66.90515
754.68        67.14192
755.10        67.36584
755.52        67.48627
755.93        67.49778
756.35        67.40814
756.77        67.25848
757.18         67.2755
757.60        67.55815
758.02        67.65234
758.43        67.37128
758.85        68.23139
759.26        68.15159
759.68        67.11765
760.10        67.57474
760.51        67.22311
760.93        67.09658
761.34        66.81052
761.76        67.39126
762.18        67.34293
762.59        67.03643
763.01        66.93758
763.42        67.16869
763.84        67.54896
764.26        67.94862
764.67        67.95545
765.09        67.77407
765.50        67.68108
765.92        68.52356
766.33        68.72272
766.75        68.42239
767.16        67.96384
767.58        67.46152
768.00        67.09659
768.41        67.02351
768.83        67.20863
769.24        67.58023
769.66        68.18105
770.07        68.76107
770.49        68.68422
770.90         68.1021
771.32        68.00609
771.73        68.40794
772.15         68.4554
772.56        68.16315
772.97        68.07635
773.39        68.15181
773.80        68.12161
774.22        67.92205
774.63        67.53097
775.05        67.11334
775.46        67.06297
775.88        67.41294
776.29        68.03902
776.70        68.65935
777.12        68.86934
777.53        68.58333
777.95        67.90111
778.36        67.14301
778.77        66.84361
779.19        67.12574
779.60        67.86655
780.02         68.7073
780.43        69.21745
780.84        69.27235
781.26        68.68626
781.67        67.85001
782.09        68.20986
782.50        69.50574
782.91        69.57361
783.33         68.7962
783.74        68.58356
784.15        69.05717
784.57        69.30202
784.98        69.20467
785.39        68.83599
785.81        68.29356
786.22        67.98181
786.63        67.93758
787.04        67.85071
787.46        67.73248
787.87        67.79985
788.28        68.05168
788.70        68.30756
789.11        68.52364
789.52        68.83072
789.93        69.15355
790.35        69.17051
790.76        68.94135
791.17        68.90701
791.58        69.08532
792.00        68.99518
792.41        68.64114
792.82        68.63535
793.23        68.82726
793.65        68.26595
794.06        67.38448
794.47        67.58308
794.88        68.48788
795.29        70.20784
795.71        69.37926
796.12        68.86456
796.53        69.10394
796.94        68.61003
797.35        67.94569
797.76        67.78171
798.18        68.12754
798.59         68.3455
799.00         68.3717
799.41        68.60692
799.82        68.97494
800.23        69.15237
800.64        69.09572
801.06        68.85423
801.47        68.58389
801.88        68.49005
802.29        68.61455
802.70        68.86662
803.11        69.12592
803.52        69.18462
803.93        69.00861
804.34        68.73602
804.75        68.41846
805.17        68.14256
805.58        68.04269
805.99        67.92233
806.40        67.87859
806.81        68.72957
807.22        70.04692
807.63         69.9902
808.04         68.8089
808.45        68.41663
808.86        69.16368
809.27        69.95309
809.68        70.56595
810.09        70.89467
810.50        70.82187
810.91        70.46558
811.32        69.97588
811.73        69.49606
812.14        69.09972
812.55        68.85795
812.96        68.75105
813.37        68.50533
813.78        68.21224
814.19        68.40131
814.60        68.92179
815.01        69.11655
815.42        68.92889
815.83        68.65502
816.24        68.43131
816.65        68.38693
817.05        68.58856
817.46        68.94415
817.87        69.32449
818.28        69.49055
818.69        69.40247
819.10        69.14162
819.51        68.82415
819.92        68.73122
820.33        68.95172
820.74        69.17731
821.14        69.38982
821.55        70.04025
821.96        70.85634
822.37        70.70802
822.78        69.76135
823.19        69.33768
823.60        69.56297
824.00        69.72262
824.41        69.69028
824.82        69.69579
825.23        69.71598
825.64         69.7107
826.04        69.70582
826.45          69.691
826.86        69.67815
827.27        69.66588
827.68        69.65783
828.08        69.67968
828.49        69.68526
828.90        69.70181
829.31        69.71317
829.72        69.68994
830.12        69.64439
830.53        69.54837
830.94        69.44308
831.35        69.36279
831.75        69.33694
832.16        69.32034
832.57        69.30705
832.97        69.26192
833.38        69.16203
833.79        69.02098
834.20        68.88601
834.60         68.8192
835.01        68.85104
835.42        68.97653
835.82        69.12804
836.23        69.14035
836.64          69.003
837.04        68.75076
837.45        68.52848
837.86        68.61564
838.26        69.07206
838.67        69.78376
839.08        70.50759
839.48        70.78823
839.89        70.51439
840.29        69.86378
840.70        69.16125
841.11        68.81564
841.51        68.94318
841.92        69.35849
842.33        69.96942
842.73        70.61607
843.14        71.11179
843.54        71.56427
843.95        71.80818
844.35        71.65089
844.76        71.10307
845.17        70.25496
845.57        69.38362
845.98        68.93815
846.38        69.02058
846.79         69.5119
847.19        70.26775
847.60        70.87711
848.00        71.23569
848.41        71.37525
848.81        71.41489
849.22        71.46462
849.62        71.60242
850.03        71.73168
850.43        71.81979
850.84        71.73854
851.24        71.51603
851.65          71.156
852.05        70.81756
852.46        70.63401
852.86        70.64561
853.27        70.82243
853.67        71.00034
854.07        71.05608
854.48        70.93264
854.88        70.70981
855.29         70.4099
855.69        70.21872
856.10        70.11285
856.50        70.11381
856.90        70.19057
857.31        70.31916
857.71        70.54271
858.12        70.80633
858.52        71.06033
858.92        71.11475
859.33        70.92641
859.73        70.56805
860.13        70.16784
860.54        69.99332
860.94         70.1732
861.34        70.58397
861.75        71.02162
862.15        71.24628
862.55        71.14262
862.96        70.82856
863.36         70.3867
863.76        69.93216
864.17        69.53534
864.57        69.18713
864.97        68.98319
865.38         69.0581
865.78         69.4594
866.18        70.07616
866.58        70.69585
866.99        70.93407
867.39          70.712
867.79        70.11484
868.19        69.22324
868.60        68.16154
869.00        66.99265
869.40        65.75232
869.80        64.72359
870.21        64.36203
870.61        64.80456
871.01        65.87663
871.41         67.1496
871.81        67.91983
872.22         68.0313
872.62        67.68295
873.02        67.09172
873.42        66.86782
873.82        66.93858
874.22        66.56067
874.63        66.01125
875.03        65.95765
875.43        66.47903
875.83        68.49187
876.23        68.58877
876.63        68.03253
877.03        66.21159
877.44        63.27253
877.84        134.4265
878.24        63.05587
878.64        64.91144
879.04        69.76378
879.44        66.66619
879.84        64.92993
880.24        69.53838
880.64        69.52652
881.04        66.04354
881.44        63.72552
881.84        63.38016
882.24        64.24247
882.65        65.68938
883.05         66.4243
883.45        66.02815
883.85        65.26839
884.25        64.61372
884.65        64.44243
885.05        64.87962
885.45        65.73347
885.85        66.66316
886.25        67.14389
886.65        67.02691
887.05        66.50013
887.45        65.85181
887.85        65.50328
888.25        65.57215
888.65        65.92944
889.04        66.43364
889.44        66.76996
889.84        66.86037
890.24        66.78963
890.64        66.64211
891.04        66.54317
891.44        66.50451
891.84        66.43575
892.24        66.28647
892.64        65.98802
893.04        65.55767
893.44        65.11729
893.83        64.62803
894.23        64.03919
894.63        63.36342
895.03        62.59874
895.43        62.03005
895.83        62.13344
896.23        62.95637
896.63        64.33746
897.02        65.74824
897.42        66.23506
897.82        65.59957
898.22        64.17633
898.62        62.53012
899.01        61.53071
899.41        61.43623
899.81         61.9383
900.21         62.8259
900.61        63.78229
901.00        64.64452
901.40        65.48562
901.80        66.17215
902.20        66.45192
902.59        66.29436
902.99        65.73926
903.39        64.98088
903.79        64.38307
904.18        64.06673
904.58        63.99255
904.98        64.12939
905.38        64.41537
905.77        64.79805
906.17         65.3065
906.57        65.79482
906.96         66.0566
907.36        65.99601
907.76        65.62244
908.15        65.14066
908.55        64.84496
908.95        64.82944
909.34        65.07506
909.74        65.27995
910.14        64.90412
910.53        63.87066
910.93        62.43471
911.33        61.19382
911.72        61.08552
912.12        62.20709
912.52        64.15017
912.91        66.22837
913.31        67.30988
913.70        67.17182
914.10         66.1347
914.49         64.5581
914.89        63.28863
915.29        62.69153
915.68        62.53991
916.08        62.78336
916.47        63.34056
916.87        64.07209
917.26        64.99148
917.66        65.85696
918.05        66.28325
918.45        66.15643
918.84        65.62639
919.24        64.77245
919.64        63.77115
920.03        62.76727
920.42         61.7644
920.82         61.1095
921.21        61.27706
921.61        62.25021
922.00        63.91624
922.40        65.64217
922.79        66.61611
923.19        66.61528
923.58        65.60193
923.98        63.93193
924.37        63.10317
924.77        63.68412
925.16        61.48294
925.55        63.33908
925.95        63.28962
926.34        63.35072
926.74        63.41217
927.13        63.63014
927.52        63.99343
927.92        64.44344
928.31        65.02861
928.70        65.53915
929.10        65.66543
929.49        65.34464
929.89        64.67178
930.28        63.99185
930.67        63.86206
931.07        64.36385
931.46        65.36002
931.85        66.42935
932.24        66.95367
932.64        66.77043
933.03        65.96481
933.42        64.82974
933.82        63.99214
934.21        63.65837
934.60        63.71596
934.99        63.68148
935.39        63.18845
935.78        62.21033
936.17         60.2142
936.56        57.49094
936.96        59.03315
937.35        58.70474
937.74        61.14047
938.13        63.48538
938.53        64.87891
938.92        65.23525
939.31         64.8698
939.70        64.15387
940.09        63.64212
940.49        63.59133
940.88        63.83421
941.27        64.26393
941.66        64.76487
942.05        65.25687
942.44        65.76427
942.84        66.24507
943.23          66.617
943.62        66.82749
944.01        66.91521
944.40         66.7537
944.79        66.16074
945.18        65.14105
945.57        63.73409
945.97         62.4147
946.36        61.95449
946.75        62.58654
947.14        64.02095
947.53        65.56238
947.92        66.25175
948.31        65.91702
948.70        64.84361
949.09        63.48645
949.48        62.65554
949.87        62.60994
950.26        63.09058
950.65        63.79702
951.04        64.23427
951.43        64.23553
951.82        63.98674
952.21        63.60639
952.60        63.26221
952.99        63.02027
953.38        62.78766
953.77        62.58636
954.16        62.47454
954.55        62.45078
954.94        62.53971
955.33        62.63304
955.72        62.52345
956.11        62.18879
956.50        61.69487
956.89        61.24538
957.28        61.23034
957.66        61.73915
958.05        62.50577
958.44        63.31942
958.83        63.91161
959.22        64.20168
959.61        64.29182
960.00        64.06302
960.39        63.32516
960.78        62.13828
961.16        60.59415
961.55        59.17315
961.94        58.47993
962.33        58.63413
962.72        59.48316
963.11        60.62681
963.49        61.35308
963.88        61.35398
964.27         60.8451
964.66        60.11264
965.04         59.6549
965.43        59.62031
965.82        59.85673
966.21        60.19415
966.60        60.37041
966.98        60.32595
967.37        60.14827
967.76        60.00434
968.15          60.119
968.53        60.54163
968.92        61.08791
969.31        61.60088
969.69        61.83252
970.08        61.65322
970.47        61.18287
970.86        60.46908
971.24        59.55524
971.63        58.57382
972.02        57.55985
972.40        56.66462
972.79        56.17328
973.17        56.17182
973.56        56.50682
973.95        57.13782
974.33        57.94829
974.72        58.71412
975.11        59.44139
975.49        59.85503
975.88        59.54453
976.26        58.49773
976.65        56.88523
977.04        55.11858
977.42        53.93268
977.81        53.58168
978.19        53.86356
978.58         54.5875
978.96        55.38262
979.35        56.02901
979.74        56.74315
980.12        57.39471
980.51        57.51692
980.89         57.1839
981.28        56.39443
981.66        55.73874
982.05        56.09739
982.43        57.55082
982.82        59.80857
983.20        62.21095
983.59         63.2492
983.97        62.57773
984.35        60.55859
984.74        58.04602
985.12        56.28334
985.51        55.65929
985.89        55.83523
986.28        56.45551
986.66        56.80775
987.04        56.57467
987.43        56.10747
987.81        55.48434
988.20        54.72301
988.58        53.75589
988.96        52.34125
989.35        50.73013
989.73        49.77671
990.12        49.95423
990.50        51.18683
990.88        52.52925
991.27        52.79068
991.65        52.02157
992.03        50.48521
992.42        49.13448
992.80        49.71907
993.18        52.59611
993.56        56.79322
993.95        60.96772
994.33        63.75437
994.71        64.69257
995.10        64.27411
995.48        62.94749
995.86        61.28473
996.24        59.54317
996.63        57.55959
997.01        55.44466
997.39         53.8344
997.77         53.1112
998.15        53.23964
998.54        53.90516
998.92        54.67193
999.30        55.43116
999.68        56.37599
1000.06        57.11133
1000.45        56.58157
1000.83        54.70469
1001.21        52.08535
1001.59        49.87729
1001.97        48.95863
1002.35        49.18251
1002.73        50.27232
1003.12        51.73408
1003.50         52.4006
1003.88         51.6928
1004.26         50.1047
1004.64         48.0926
1005.02        46.21856
1005.40        44.69892
1005.78        43.28983
1006.16        42.53942
1006.54        43.48937
1006.92        45.88992
1007.30        48.90294
1007.69        51.37911
1008.07        52.37892
1008.45        51.64591
1008.83        49.19597
1009.21        44.46005
1009.59        37.82559
1009.97         31.0769
1010.35        25.39521
1010.73        22.88806
1011.11        24.65212
1011.49         29.7498
1011.86        37.48915
1012.24         44.6382
1012.62        48.18009
1013.00        47.88667
1013.38        44.84011
1013.76        40.53489
1014.14        37.66318
1014.52        37.12027
1014.90         38.1032
1015.28        39.75417
1015.66        40.60128
1016.04        40.11962
1016.41        38.88046
1016.79        37.21482
1017.17         35.8012
1017.55        35.13519
1017.93        34.81625
1018.31        34.87875
1018.69        35.52886
1019.06        36.60059
1019.44        37.84233
1019.82        38.69988
1020.20        37.74583
1020.58         34.5945
1020.95        30.02867
1021.33         24.5644
1021.71        17.66218
1022.09        7.983542
1022.46       -9.034806
1022.84       -32.38462
1023.22        -35.9061
1023.60       -9.003708
1023.97        19.31545
1024.35        34.81296
1024.73        39.59787
