SpectraSmart Spectrum 2.9.0.0
--------- Device Information -----------
Spectrum Name :  反射率_0
Saving Time :  2024/04/20 00:58:09
Spectro-Module Model Name : SE2030-DUVN
Spectro-Module Serial Number : OS361AC55029948
Wavelength Start : 200
Wavelength End : 1025
Wavelength Unit : Wavelength(nm)
Spectrum Unit : Reflectance(%)
-----------Spectrum Setting ------------
Integration Time : 30ms
Average : 10
Boxcar : 0
Background removal :  enabled
linearity correction :  enabled
SC :  disabled
Intensity correction :  disabled
DWT denoise :  enabled
savitzky-golay :  disabled
FFT :  disabled
Running average :  disabled
Kalman :  disabled
High pass :  disabled
---------------BEGIN--------------------
Wavelength(nm)             Reflectance(%)
200.29               0
200.75        55.40023
201.21        56.82224
201.67        60.77325
202.13        66.50393
202.58        73.27976
203.04          81.581
203.50         88.7594
203.96        88.77702
204.42        82.17822
204.88        73.14782
205.34        65.42194
205.80        60.55329
206.26        57.58691
206.72        55.38842
207.18        53.61548
207.64         52.2527
208.10        51.82035
208.55         53.0817
209.01        54.44283
209.47        55.11432
209.93        55.05898
210.39        54.44192
210.85        53.62904
211.31        53.09957
211.77        52.90201
212.23        52.96661
212.69        53.21703
213.14        53.49357
213.60        53.38792
214.06         53.5159
214.52        53.99382
214.98        55.07623
215.44        56.75368
215.90        58.70906
216.36        61.12132
216.81        63.89227
217.27        66.35828
217.73        68.53944
218.19        69.07014
218.65        66.01149
219.11         59.1318
219.57        48.51154
220.02        36.49181
220.48        29.78479
220.94        30.80011
221.40        38.42311
221.86        48.35313
222.32        53.76511
222.77        52.86534
223.23        47.71655
223.69        41.57059
224.15        39.11977
224.61        40.66267
225.06        43.98243
225.52        46.58275
225.98        46.38729
226.44        43.38723
226.90        38.50758
227.36         33.3714
227.81        30.84994
228.27        31.91702
228.73        35.15555
229.19        38.76863
229.65        40.69932
230.10        40.75834
230.56        39.79991
231.02        38.66008
231.48        38.32643
231.93        38.89239
232.39        39.93336
232.85        40.97367
233.31        41.35768
233.77        40.92541
234.22        39.91305
234.68        38.69101
235.14        37.76219
235.60        37.34697
236.05        37.35829
236.51          37.597
236.97        37.73166
237.43        37.70973
237.88        37.73195
238.34        38.06928
238.80        39.52746
239.26        42.25986
239.71        45.69901
240.17        48.95203
240.63         51.4555
241.08        53.20747
241.54        54.34501
242.00        54.62464
242.46        53.48315
242.91        50.51873
243.37        44.75637
243.83        37.08525
244.28        33.95292
244.74        40.96675
245.20        56.42227
245.66        70.29866
246.11        74.51665
246.57        68.48348
247.03        52.01426
247.48        29.37058
247.94        23.22448
248.40        36.37909
248.85        52.94609
249.31        64.65504
249.77        69.31411
250.22        68.66035
250.68        64.58917
251.14        58.43108
251.59         53.4583
252.05        51.98754
252.51        53.41719
252.96        56.22845
253.42        57.74979
253.88        57.23509
254.33        55.84695
254.79        55.65611
255.25        58.37494
255.70        63.49483
256.16         69.5039
256.62        74.43333
257.07        76.19192
257.53         74.9698
257.99        71.69595
258.44        67.40901
258.90        64.25455
259.35        62.19947
259.81        61.16023
260.27        60.17857
260.72        58.40223
261.18        56.09026
261.63        53.21193
262.09        50.73058
262.55        49.48351
263.00        49.41217
263.46        50.16134
263.91        50.74257
264.37        50.25996
264.83        48.68718
265.28        46.39193
265.74        44.30419
266.19        43.28929
266.65        43.49195
267.11        44.40436
267.56         45.3952
268.02        45.55224
268.47        44.70854
268.93        43.19285
269.38        41.36978
269.84        40.04411
270.30        39.42212
270.75        39.27321
271.21        39.30591
271.66        39.08118
272.12        38.47163
272.57        37.62521
273.03        36.74528
273.48        36.04779
273.94         35.6353
274.39        35.38431
274.85        35.17196
275.31        34.79534
275.76        34.19464
276.22        33.45875
276.67        32.70359
277.13        32.20444
277.58        31.94256
278.04        31.86219
278.49        31.71777
278.95         31.2316
279.40        30.34962
279.86         29.2741
280.31        28.19011
280.77        27.49213
281.22        27.18126
281.68        27.15247
282.13        27.22318
282.59        27.16083
283.04        26.90051
283.50        26.56102
283.95        26.18341
284.41        25.86128
284.86        25.60544
285.32        25.39492
285.77        25.25491
286.22        25.29638
286.68        25.50307
287.13        25.80873
287.59        26.08226
288.04        26.10714
288.50        25.87144
288.95        25.41834
289.41        24.90011
289.86        24.47846
290.32        24.25628
290.77        24.18246
291.22         24.2264
291.68         24.3037
292.13        24.39473
292.59        24.53926
293.04        24.78372
293.50        25.21031
293.95        25.80812
294.40        26.52063
294.86        27.25134
295.31        27.86729
295.77        28.33786
296.22         28.7056
296.68        29.02356
297.13        29.36003
297.58        29.75294
298.04        30.18244
298.49        30.66173
298.95        31.24914
299.40        31.92185
299.85        32.65963
300.31         33.3722
300.76        33.91489
301.21        34.26218
301.67        34.48267
302.12        34.62731
302.58        34.83511
303.03        35.11683
303.48        35.44926
303.94        35.83774
304.39        36.24862
304.84        36.67257
305.30        37.11033
305.75        37.49887
306.20         37.7626
306.66        37.91033
307.11        37.94946
307.57           37.95
308.02        37.94838
308.47        37.98295
308.93        38.03086
309.38        38.09534
309.83        38.23025
310.29        38.42117
310.74        38.65127
311.19        38.80999
311.65        38.71993
312.10        38.35855
312.55        37.79327
313.00        37.18893
313.46         36.7986
313.91         36.6653
314.36        36.72862
314.82         36.8655
315.27        36.89465
315.72        36.74961
316.18        36.50072
316.63        36.20063
317.08        35.93688
317.53        35.73423
317.99         35.5484
318.44        35.37112
318.89        35.18667
319.35        34.98789
319.80        34.78853
320.25        34.57649
320.70        34.32879
321.16        34.03725
321.61        33.70727
322.06         33.3602
322.51        33.03747
322.97        32.74342
323.42        32.47745
323.87        32.20256
324.32        31.86195
324.78        31.44339
325.23        30.97952
325.68        30.51311
326.13        30.12135
326.59        29.82753
327.04        29.62736
327.49        29.48822
327.94        29.35882
328.39        29.21577
328.85         29.0525
329.30        28.90256
329.75        28.78043
330.20        28.68714
330.66        28.59088
331.11        28.48309
331.56        28.29955
332.01        28.02625
332.46        27.67981
332.92         27.2989
333.37        26.95552
333.82        26.67925
334.27        26.47095
334.72         26.3049
335.17        26.13363
335.63        25.93643
336.08        25.73001
336.53        25.56304
336.98        25.52445
337.43        25.62272
337.88        25.83098
338.34        26.00445
338.79        25.95402
339.24        25.62521
339.69        25.07009
340.14        24.49338
340.59        24.23998
341.05        24.37454
341.50        24.80025
341.95        25.27612
342.40        25.42727
342.85        25.17327
343.30        24.64339
343.75        24.03333
344.20        23.66289
344.66        23.61407
345.11        23.75159
345.56        23.96924
346.01        24.09676
346.46        24.06984
346.91        23.96607
347.36        23.75808
347.81        23.38958
348.26         22.8901
348.72        22.30555
349.17        21.76469
349.62        21.56386
350.07        21.75872
350.52        22.24617
350.97        22.84237
351.42        23.26836
351.87         23.4368
352.32        23.40993
352.77        23.23871
353.22        23.01465
353.67        22.78112
354.13        22.52667
354.58        22.24377
355.03        21.96193
355.48        21.70121
355.93        21.48628
356.38        21.33807
356.83         21.2733
357.28        21.28357
357.73        21.34232
358.18        21.42305
358.63        21.48466
359.08        21.50333
359.53        21.48697
359.98        21.39935
360.43        21.18996
360.88        20.86729
361.33        20.45463
361.78        20.05105
362.23        19.81911
362.68        19.78927
363.13        19.90583
363.58        20.06311
364.03        20.09341
364.48        19.95046
364.93        19.68378
365.38        19.34284
365.83        19.01764
366.28        18.74837
366.73        18.50842
367.18        18.30767
367.63        18.16129
368.08        18.06528
368.53         18.0252
368.98        18.00335
369.43        17.93166
369.88         17.7995
370.33        17.62572
370.78        17.45255
371.23         17.3579
371.68        17.36047
372.13        17.42599
372.58         17.5247
373.03        17.60867
373.48        17.64958
373.93        17.65498
374.38        17.60363
374.83          17.463
375.28        17.23718
375.72        16.93426
376.17         16.6244
376.62        16.37992
377.07         16.2317
377.52        16.16608
377.97        16.16724
378.42        16.20572
378.87        16.25735
379.32        16.31282
379.77        16.35896
380.22        16.37626
380.67        16.35827
381.11        16.31625
381.56        16.21693
382.01        16.02815
382.46        15.75814
382.91         15.4203
383.36        15.11256
383.81        14.97834
384.26        15.03708
384.71        15.25231
385.15        15.48035
385.60        15.49986
386.05        15.26931
386.50        14.85459
386.95        14.42226
387.40        14.23714
387.85        14.34894
388.29        14.66336
388.74        15.00243
389.19        15.11796
389.64         14.9624
390.09         14.6143
390.54        14.22285
390.98         14.0185
391.43        14.06686
391.88        14.27246
392.33        14.49242
392.78        14.52536
393.23         14.3431
393.67        14.01993
394.12        13.69529
394.57        13.50562
395.02        13.48178
395.47        13.57609
395.91        13.71665
396.36        13.76559
396.81        13.68944
397.26        13.52548
397.71        13.35558
398.15        13.28632
398.60        13.35101
399.05        13.50095
399.50        13.64026
399.95        13.63427
400.39        13.45805
400.84        13.14919
401.29        12.82156
401.74        12.68266
402.18        12.79088
402.63        13.07436
403.08        13.37936
403.53        13.46212
403.97        13.27437
404.42        12.90705
404.87        12.51075
405.32          12.331
405.76        12.42449
406.21        12.70063
406.66        13.03533
407.11        13.23838
407.55        13.25641
408.00        13.15399
408.45        12.98466
408.90        12.80843
409.34         12.6771
409.79         12.6263
410.24        12.63404
410.68        12.61596
411.13        12.56716
411.58        12.54858
412.03        12.54986
412.47        12.53053
412.92        12.48481
413.37        12.41266
413.81        12.36303
414.26        12.42582
414.71        12.60468
415.15        12.87979
415.60        13.13244
416.05        13.19135
416.49         13.0175
416.94        12.67029
417.39        12.28527
417.83        12.08256
418.28        12.12064
418.73        12.32392
419.17        12.57691
419.62        12.68553
420.07        12.60784
420.51          12.412
420.96        12.17722
421.41        12.00796
421.85        11.93463
422.30        11.92893
422.74        11.96574
423.19        12.03486
423.64        12.11761
424.08         12.2259
424.53        12.32694
424.98        12.38159
425.42        12.38031
425.87        12.33265
426.31         12.2489
426.76        12.15942
427.21        12.06714
427.65        11.95847
428.10        11.87105
428.54        11.84583
428.99        11.89184
429.44         12.0529
429.88        12.22786
430.33        12.17412
430.77        11.92846
431.22        11.74728
431.66        11.69936
432.11        11.75938
432.56         11.9238
433.00        12.23306
433.45        12.52242
433.89        12.53255
434.34         12.3194
434.78        12.03302
435.23        11.71684
435.67        12.21822
436.12        11.84154
436.57        11.84172
437.01        11.72904
437.46        11.67297
437.90        11.67062
438.35        11.63998
438.79        11.59043
439.24        11.58779
439.68        11.63441
440.13        11.60983
440.57        11.54365
441.02        11.67701
441.46        11.88705
441.91        11.82816
442.35        11.26084
442.80        11.02428
443.24        11.00771
443.69        10.95513
444.13        10.84513
444.58         10.7714
445.02        10.73509
445.47        10.74601
445.91        10.77707
446.36        10.75797
446.80        10.67682
447.24        10.56564
447.69        10.46347
448.13        10.40573
448.58        10.40717
449.02        10.45185
449.47        10.50713
449.91        10.51569
450.36        10.46929
450.80        10.38513
451.25        10.30095
451.69        10.26203
452.13        10.28295
452.58        10.33849
453.02        10.40942
453.47        10.46308
453.91        10.48996
454.36        10.49887
454.80        10.48587
455.24         10.4453
455.69        10.38669
456.13        10.30371
456.58        10.22715
457.02        10.19649
457.46        10.21727
457.91        10.25296
458.35        10.29094
458.79        10.33205
459.24         10.3675
459.68        10.39477
460.13        10.44332
460.57        10.45413
461.01          10.419
461.46        10.62094
461.90        10.64935
462.34        10.51195
462.79        10.56332
463.23        10.44989
463.68         10.3544
464.12        10.29222
464.56        10.35803
465.01        10.46661
465.45        10.57952
465.89        10.64886
466.34        10.66733
466.78        10.61613
467.22        10.53602
467.67        10.56965
468.11        10.69693
468.55        10.70146
468.99        10.60049
469.44        10.59543
469.88        10.69383
470.32        10.78395
470.77        10.83149
471.21        10.84018
471.65        10.80314
472.10        10.72464
472.54        10.63758
472.98        10.62304
473.42        10.69367
473.87        10.79249
474.31        10.88951
474.75        11.00194
475.20        11.09477
475.64        11.06175
476.08        10.95071
476.52        10.93253
476.97        11.02159
477.41        11.14361
477.85        11.25423
478.29        11.31527
478.74        11.31507
479.18        11.24614
479.62         11.1704
480.06        11.18777
480.50         11.2985
480.95        11.41681
481.39        11.49796
481.83        11.52797
482.27        11.50103
482.72        11.42895
483.16        11.34791
483.60        11.32399
484.04        11.36137
484.48        11.48258
484.93        11.74835
485.37         11.8938
485.81        11.91389
486.25        12.52011
486.69        12.90462
487.14        12.09825
487.58        12.19658
488.02        13.02107
488.46        12.52761
488.90         12.6539
489.34        12.59754
489.79        12.75934
490.23        13.05965
490.67         13.2536
491.11        13.32094
491.55        13.30132
491.99        13.22841
492.43        13.18038
492.88        13.18299
493.32        13.17183
493.76        13.18257
494.20        13.30746
494.64        13.55291
495.08        13.88167
495.52        14.22999
495.96        14.51004
496.41        14.69552
496.85        14.78101
497.29         14.8071
497.73        14.91402
498.17        15.09997
498.61         15.1944
499.05        15.20854
499.49        15.31606
499.93        15.52688
500.37        15.71143
500.82         15.8607
501.26         16.0907
501.70         16.3568
502.14        16.44081
502.58        16.37628
503.02        16.40737
503.46        16.55232
503.90        16.68308
504.34        16.76799
504.78        16.81221
505.22        16.81061
505.66         16.7734
506.10        16.73111
506.54        16.72867
506.98        16.78169
507.42        16.88015
507.86        17.01383
508.30        17.16406
508.74         17.3165
509.18        17.46725
509.62         17.6082
510.06         17.7271
510.50        17.82147
510.94        17.89776
511.38        17.94365
511.82        17.94304
512.26        17.89949
512.70        17.81696
513.14        17.74695
513.58        17.76656
514.02        17.87962
514.46        18.06451
514.90        18.24535
515.34        18.24354
515.78        18.05757
516.22        17.81848
516.66        17.63344
517.10        17.31823
517.54        16.90485
517.98        17.54946
518.42        17.48219
518.86         17.7859
519.30        17.90946
519.74        18.03405
520.18        18.12757
520.62         18.1169
521.06        18.01861
521.50        17.83503
521.93         17.6241
522.37        17.49228
522.81         17.4642
523.25        17.51475
523.69        17.59698
524.13        17.63362
524.57        17.60143
525.01        17.52075
525.45        17.41947
525.89        17.34155
526.32        17.29806
526.76        17.27551
527.20        17.24562
527.64        17.16946
528.08        17.04071
528.52        16.87456
528.96         16.7117
529.40        16.60998
529.83        16.58125
530.27        16.61342
530.71        16.65593
531.15        16.63006
531.59        16.52175
532.03        16.35518
532.46        16.19054
532.90        16.13748
533.34         16.2065
533.78         16.3558
534.22        16.51217
534.66        16.56474
535.09        16.48562
535.53        16.31933
535.97        16.11613
536.41        15.95255
536.85        15.85719
537.28        15.81786
537.72        15.82767
538.16        15.82497
538.60        15.87743
539.04        15.92405
539.47        15.97918
539.91        16.06869
540.35        16.20015
540.79         16.2242
541.22        16.34453
541.66        16.43852
542.10         16.5814
542.54        16.50933
542.97        16.66731
543.41        16.76129
543.85        16.91322
544.29        17.07602
544.72        17.22442
545.16        17.36973
545.60        17.50279
546.04          17.567
546.47        17.61595
546.91        17.84661
547.35        18.21376
547.79        18.48049
548.22        18.61036
548.66        18.67369
549.10        18.70845
549.53        18.84698
549.97        19.10615
550.41         19.1618
550.84        19.36931
551.28        19.53372
551.72        19.76959
552.15        20.02222
552.59         20.2837
553.03        20.55538
553.46        20.79628
553.90        20.96533
554.34        21.05671
554.77        21.08473
555.21        21.09464
555.65        21.14801
556.08        21.25793
556.52        21.40542
556.96        21.56685
557.39        21.73216
557.83        21.88301
558.27        21.97234
558.70        22.01203
559.14        22.06382
559.57        22.12849
560.01        22.20172
560.45        22.26955
560.88         22.2821
561.32        22.28605
561.75        22.34682
562.19        22.54174
562.63        22.66345
563.06         22.7288
563.50        22.81474
563.93        22.92012
564.37         23.0722
564.80        23.16453
565.24        23.29863
565.68        23.41511
566.11        23.50745
566.55         23.5939
566.98        23.61022
567.42        23.58243
567.85        23.90839
568.29        23.94714
568.72        24.27633
569.16         24.6452
569.60        24.91889
570.03        25.05933
570.47        25.18526
570.90        25.20001
571.34        25.44057
571.77        25.30347
572.21        25.56687
572.64        25.97451
573.08        26.03384
573.51        26.18282
573.95        26.77601
574.38        26.90722
574.82        27.06324
575.25        27.10471
575.69        26.89797
576.12        26.80755
576.56        26.77275
576.99        26.89611
577.42        27.05118
577.86        26.93961
578.29        26.91037
578.73          27.568
579.16        27.01835
579.60        26.70896
580.03        26.71367
580.47        26.84099
580.90        26.37502
581.33        26.34501
581.77         26.4388
582.20        26.67177
582.64        26.26655
583.07        25.83158
583.51        25.90536
583.94        25.47227
584.37        25.35499
584.81         25.1248
585.24        25.05013
585.68        25.07053
586.11        24.88083
586.54        24.77103
586.98        24.64926
587.41         24.7397
587.85        24.71423
588.28        24.58038
588.71        24.42209
589.15        24.30877
589.58        23.99388
590.01        24.00669
590.45        24.43715
590.88        24.30094
591.31        24.19343
591.75        23.86034
592.18        23.96253
592.61        23.92204
593.05        24.41986
593.48        24.40997
593.91        24.71811
594.35        24.38984
594.78        24.57928
595.21         24.8146
595.65        25.18745
596.08        25.14194
596.51        25.15006
596.94        25.16927
597.38        25.33262
597.81        25.69487
598.24        25.86616
598.68        26.58845
599.11        26.60299
599.54        27.51153
599.97        27.28362
600.41        27.60265
600.84        28.33836
601.27        28.68456
601.70        29.07153
602.14        29.45706
602.57        29.82096
603.00        30.23053
603.43        30.86483
603.87        31.08328
604.30        31.58332
604.73        32.20012
605.16        32.44254
605.60        32.95864
606.03        33.53035
606.46         34.2206
606.89         34.7194
607.32        34.99424
607.76        35.31672
608.19        35.65084
608.62        36.10748
609.05        36.26161
609.48        36.55685
609.92        36.95073
610.35        36.92068
610.78        37.98461
611.21        38.66127
611.64        38.37082
612.07        39.00132
612.50        39.09162
612.94        39.27506
613.37        39.70419
613.80        40.08607
614.23        40.53808
614.66        40.81857
615.09        41.02269
615.52         41.4286
615.96        41.97219
616.39        42.27085
616.82        42.34011
617.25        42.42118
617.68        42.56759
618.11        42.90493
618.54        43.35862
618.97        43.45773
619.40        43.21388
619.84         43.5523
620.27        43.44827
620.70         43.8415
621.13        44.31592
621.56        44.51164
621.99        44.51897
622.42         44.6036
622.85        44.82269
623.28         44.9171
623.71        44.90159
624.14        44.93243
624.57        45.05361
625.00        44.74865
625.43        45.11755
625.86         44.4821
626.29        44.51509
626.72        44.47373
627.15         44.3913
627.58        44.14368
628.01        44.20227
628.44        44.01669
628.87        43.76268
629.30        43.26579
629.73        42.82352
630.16        42.59824
630.59        42.19614
631.02        41.97524
631.45        41.74427
631.88        41.43478
632.31        41.01788
632.74        40.52672
633.17        39.99192
633.60        39.45034
634.03        38.92285
634.46        38.40067
634.89        37.88759
635.32        37.38887
635.75        36.90797
636.18        36.45514
636.61        36.02016
637.04        35.57852
637.47        35.12284
637.89         34.6572
638.32        34.19758
638.75        33.79382
639.18        33.45915
639.61        33.18542
640.04        32.93515
640.47        32.64413
640.90        32.30164
641.33        31.93176
641.76        31.58533
642.18        31.34758
642.61        31.23333
643.04        31.21544
643.47        31.25255
643.90        31.27582
644.33        31.26526
644.76         31.2469
645.18        31.23542
645.61        31.25722
646.04        31.32496
646.47        31.42873
646.90        31.58742
647.33        31.83358
647.75        32.16779
648.18        32.57521
648.61        33.01662
649.04        33.42275
649.47        33.78241
649.89        34.12019
650.32        34.47103
650.75        34.89994
651.18        35.43027
651.61        35.99847
652.03        36.61605
652.46        37.41178
652.89        38.29688
653.32        38.95892
653.74        39.18442
654.17        39.84171
654.60        40.49273
655.03        41.58915
655.46         41.1484
655.88        42.87564
656.31        44.30236
656.74        50.04215
657.16        47.17247
657.59        43.34667
658.02        44.30759
658.45         45.3333
658.87         46.0052
659.30        46.54971
659.73        47.17105
660.15        47.89655
660.58         48.2434
661.01        48.27145
661.44        48.01765
661.86        48.23808
662.29        48.92121
662.72        49.61869
663.14        50.15959
663.57        50.24588
664.00        50.01767
664.42        50.09782
664.85        50.55212
665.27         50.9514
665.70        51.22808
666.13        51.52683
666.55        51.83793
666.98        52.02437
667.41        52.11264
667.83        52.20081
668.26        52.30162
668.69        52.38314
669.11        52.45323
669.54        52.54107
669.96        52.65457
670.39         52.7813
670.82        52.94466
671.24        53.16232
671.67        53.42236
672.09         53.7415
672.52        54.04725
672.94        54.14594
673.37        54.06509
673.80        53.99065
674.22        53.99157
674.65        54.02929
675.07        54.13343
675.50        54.35076
675.92        54.62693
676.35         54.7886
676.77        54.80991
677.20         54.7927
677.62        54.70456
678.05        54.68467
678.47        54.73131
678.90        54.81961
679.32        54.95008
679.75        55.13056
680.17        55.34774
680.60        55.60418
681.02        55.85169
681.45        55.97257
681.87        55.97655
682.30        55.93683
682.72        55.89676
683.15        55.89461
683.57        55.97002
684.00        56.00918
684.42        56.13992
684.85        56.42124
685.27        56.53228
685.70        56.75011
686.12        56.93811
686.54        57.06359
686.97         57.1107
687.39        57.10123
687.82        57.05291
688.24        57.01461
688.66        56.99958
689.09        56.99945
689.51        57.04013
689.94        57.10441
690.36        57.19497
690.78         57.3444
691.21        57.54772
691.63        57.51868
692.06        57.93668
692.48         57.8483
692.90        57.90372
693.33          58.264
693.75        58.07071
694.17        58.16279
694.60        58.21888
695.02        58.08106
695.44        57.78557
695.87        57.80277
696.29        58.09575
696.71        57.98664
697.14        57.64722
697.56        58.00394
697.98        58.85346
698.41        59.45083
698.83        59.12619
699.25        58.88436
699.68        58.67365
700.10        58.63318
700.52        58.59318
700.94        58.74632
701.37        58.95112
701.79        59.13902
702.21        59.25346
702.64        59.29721
703.06        59.32253
703.48        59.45897
703.90        59.69485
704.33        59.90651
704.75        60.03862
705.17        60.01335
705.59        59.80481
706.01        59.66266
706.44        59.26541
706.86        59.23148
707.28        59.46082
707.70        59.88049
708.12        60.33948
708.55        60.60405
708.97        60.61983
709.39        60.46376
709.81        60.22694
710.23        60.07035
710.66        60.05257
711.08        60.12361
711.50          60.248
711.92        60.38745
712.34        60.52309
712.76        60.68003
713.19        60.81421
713.61        60.89766
714.03         60.9016
714.45        60.83337
714.87        60.76263
715.29        60.80252
715.71        60.97144
716.13        61.23885
716.56        61.50859
716.98        61.66925
717.40        61.65708
717.82        61.54185
718.24        61.40747
718.66         61.2373
719.08        61.32014
719.50         61.4045
719.92        61.49892
720.34        61.56444
720.76        61.62378
721.19        61.34251
721.61        61.52928
722.03        61.47205
722.45        61.42952
722.87         61.4163
723.29        61.45097
723.71        61.51398
724.13        61.59992
724.55        61.72522
724.97        61.87651
725.39        62.03117
725.81        62.17658
726.23        62.30254
726.65        62.41815
727.07        62.54541
727.49        62.68362
727.91        62.82416
728.33        62.92753
728.75        62.92984
729.17        62.82816
729.59        62.65315
730.01        62.46751
730.43        62.39305
730.85        62.46136
731.27        62.58011
731.69        62.70319
732.10        62.98972
732.52        63.11558
732.94        63.15452
733.36        63.05539
733.78        63.00144
734.20        63.02291
734.62        63.04462
735.04        63.04811
735.46        63.05166
735.88        63.04717
736.30        62.98302
736.72        62.94566
737.13        63.11863
737.55        63.42617
737.97        63.84386
738.39        64.19158
738.81         63.9795
739.23        63.38302
739.65        63.23014
740.06        63.47317
740.48        63.85226
740.90        63.72472
741.32        63.32259
741.74        63.19983
742.16        63.12182
742.57        63.31447
742.99        63.54142
743.41        63.74716
743.83        63.90583
744.25        63.97935
744.67        63.96235
745.08        63.88939
745.50        63.79917
745.92        63.72483
746.34        63.65439
746.75        63.59129
747.17         63.5423
747.59        63.51484
748.01        63.52163
748.42        63.56861
748.84        63.65817
749.26        63.79552
749.68          63.876
750.09        63.92395
750.51        64.14272
750.93        64.41605
751.35        64.36123
751.76         64.0728
752.18        63.63265
752.60        63.82813
753.01         63.8378
753.43        63.83339
753.85        63.82191
754.27        63.84826
754.68        64.39074
755.10        64.45869
755.52        64.49082
755.93        64.25129
756.35        64.14407
756.77        64.21935
757.18        64.15556
757.60        64.46288
758.02        64.63811
758.43        64.60718
758.85        65.24641
759.26        65.44287
759.68        64.32442
760.10        64.75947
760.51        64.84409
760.93        64.77933
761.34         64.2733
761.76        64.24062
762.18         64.0239
762.59        64.00111
763.01        64.19505
763.42        64.59505
763.84        64.95646
764.26        65.19255
764.67        65.09898
765.09        64.85534
765.50        65.01132
765.92        65.50462
766.33        65.68261
766.75        65.43309
767.16        65.18725
767.58        64.88448
768.00        64.62083
768.41        64.49757
768.83        64.73898
769.24        65.21983
769.66        65.55451
770.07        65.64172
770.49        65.46729
770.90        65.18599
771.32        65.33347
771.73        65.83617
772.15        65.98837
772.56        65.77237
772.97        65.64462
773.39        65.60434
773.80        65.45755
774.22        65.19805
774.63        64.90644
775.05        64.67374
775.46        64.65241
775.88        64.84901
776.29        65.25594
776.70        65.68358
777.12        65.83765
777.53        65.66268
777.95        65.21566
778.36        64.71342
778.77         64.5312
779.19        64.75529
779.60        65.31396
780.02        65.92268
780.43        66.27135
780.84        66.26962
781.26        65.70753
781.67        64.95444
782.09        65.35583
782.50        66.63506
782.91        66.89158
783.33        66.13008
783.74         65.9411
784.15        66.34468
784.57        66.39668
784.98        66.07234
785.39        65.77777
785.81        65.55092
786.22        65.31705
786.63        65.12762
787.04        65.05918
787.46        65.12277
787.87        65.30634
788.28        65.57331
788.70         65.8252
789.11        66.01919
789.52        66.18813
789.93         66.3181
790.35        66.36023
790.76        66.32236
791.17         66.2457
791.58        66.15804
792.00        65.99426
792.41        65.78819
792.82        65.77286
793.23        65.86082
793.65        65.56852
794.06        65.10243
794.47        65.20486
794.88        65.74803
795.29        66.63857
795.71        66.46287
796.12        66.53677
796.53        66.89761
796.94        66.48054
797.35        65.62656
797.76        65.41781
798.18        65.86018
798.59        66.02493
799.00        65.86423
799.41        65.98224
799.82        66.34012
800.23        66.55197
800.64        66.57442
801.06        66.48489
801.47        66.38002
801.88        66.36148
802.29        66.44831
802.70        66.56693
803.11        66.66384
803.52         66.6596
803.93        66.55032
804.34        66.41932
804.75        66.25143
805.17        66.05512
805.58        65.92097
805.99        65.63409
806.40        65.34789
806.81        66.03006
807.22        67.25279
807.63        67.22192
808.04        65.73373
808.45        65.41254
808.86        66.28459
809.27        67.13914
809.68        67.69283
810.09        68.03103
810.50        68.04445
810.91        67.71506
811.32        67.23125
811.73        66.87163
812.14        66.72031
812.55        66.76822
812.96        66.89342
813.37        66.75686
813.78         66.3662
814.19        66.07515
814.60        65.94592
815.01        65.84512
815.42        65.78897
815.83        65.85844
816.24        66.05122
816.65        66.29782
817.05        66.56882
817.46        66.83429
817.87        67.04654
818.28        67.09461
818.69        66.97995
819.10        66.73698
819.51        66.46896
819.92        66.42883
820.33        66.68813
820.74        66.99548
821.14        67.30997
821.55        67.94067
821.96        68.65184
822.37        68.53669
822.78        67.73646
823.19         67.3368
823.60        67.45095
824.00        67.50445
824.41        67.39859
824.82        67.34034
825.23        67.31852
825.64        67.29718
826.04        67.30617
826.45         67.3399
826.86        67.40259
827.27        67.48666
827.68        67.55599
828.08        67.57138
828.49        67.47285
828.90        67.30038
829.31         67.0924
829.72        66.91892
830.12        66.82979
830.53        66.78556
830.94        66.77957
831.35        66.76643
831.75        66.75756
832.16        66.72928
832.57        66.73192
832.97        66.82239
833.38          66.987
833.79         67.1903
834.20        67.38577
834.60        67.50135
835.01        67.53447
835.42        67.51528
835.82        67.44762
836.23        67.29073
836.64         67.0755
837.04         66.8093
837.45        66.58896
837.86        66.60993
838.26        66.91364
838.67        67.42384
839.08        67.95224
839.48        68.13535
839.89        67.88354
840.29        67.32923
840.70        66.74522
841.11        66.47102
841.51        66.60119
841.92        66.97868
842.33        67.50619
842.73        68.01572
843.14        68.33978
843.54        68.59009
843.95        68.67067
844.35        68.50056
844.76        68.10189
845.17        67.51791
845.57        66.93482
845.98        66.66469
846.38        66.77112
846.79        67.16988
847.19        67.74574
847.60         68.1525
848.00        68.32697
848.41        68.30259
848.81        68.21437
849.22        68.19271
849.62        68.32075
850.03        68.50664
850.43        68.72728
850.84        68.86578
851.24        68.92712
851.65        68.88998
852.05        68.83833
852.46        68.79701
852.86        68.78329
853.27        68.80164
853.67        68.75642
854.07        68.62494
854.48        68.38696
854.88        68.10584
855.29        67.79558
855.69        67.61906
856.10        67.54169
856.50        67.58227
856.90        67.71857
857.31        67.93069
857.71        68.25248
858.12        68.62864
858.52        68.94582
858.92        68.92363
859.33        68.50957
859.73        67.78751
860.13        67.01994
860.54        66.72662
860.94         67.1021
861.34        67.96762
861.75        68.91484
862.15        69.35957
862.55         69.1049
862.96        68.36873
863.36        67.44041
863.76        66.78835
864.17        66.57325
864.57        66.66113
864.97         66.9755
865.38        67.39222
865.78        67.88022
866.18        68.40794
866.58        68.83904
866.99        68.92175
867.39        68.63525
867.79        68.02863
868.19        67.15516
868.60        66.10358
869.00        64.92429
869.40        63.67076
869.80        62.66314
870.21        62.40583
870.61        63.03345
871.01        64.34434
871.41        65.82493
871.81        66.64731
872.22         66.6368
872.62        66.03323
873.02        65.14976
873.42        64.76205
873.82         64.8241
874.22        64.51398
874.63        64.06477
875.03        64.05399
875.43        64.52528
875.83        66.49734
876.23        66.41454
876.63        65.69581
877.03        63.70969
877.44        60.59406
877.84        136.8772
878.24        60.43353
878.64        62.35899
879.04        67.48369
879.44        64.07557
879.84        62.19934
880.24        67.23881
880.64        67.34645
881.04        63.77811
881.44        61.49377
881.84        61.33112
882.24        62.46792
882.65        64.22109
883.05        65.18067
883.45         64.8933
883.85        64.14709
884.25        63.45033
884.65        63.24239
885.05        63.66798
885.45        64.53025
885.85        65.44112
886.25        65.79742
886.65        65.45176
887.05        64.63556
887.45        63.74281
887.85        63.34491
888.25        63.58677
888.65        64.29565
889.04        65.21658
889.44        65.83414
889.84        66.00112
890.24        65.84699
890.64        65.55624
891.04        65.41056
891.44        65.46152
891.84        65.57641
892.24        65.61244
892.64        65.35161
893.04        64.77725
893.44        64.06203
893.83        63.29646
894.23        62.60418
894.63        62.02672
895.03         61.5193
895.43        61.21642
895.83        61.34469
896.23        61.90561
896.63        62.81799
897.02        63.76015
897.42        64.13831
897.82         63.8245
898.22        62.99904
898.62        62.00544
899.01        61.37889
899.41        61.29216
899.81        61.57098
900.21        62.06871
900.61        62.56259
901.00        62.95565
901.40        63.28761
901.80        63.56593
902.20        63.77603
902.59        63.92105
902.99        63.99072
903.39        63.92855
903.79        63.66224
904.18        63.20668
904.58        62.64528
904.98         62.1994
905.38         62.2051
905.77         62.6995
906.17        63.57556
906.57        64.51436
906.96        65.03734
907.36        64.98006
907.76        64.46272
908.15        63.79105
908.55        63.40701
908.95        63.45211
909.34        63.84065
909.74         64.2495
910.14        64.10877
910.53         63.3029
910.93        62.08899
911.33        61.00259
911.72        60.88216
912.12        61.82486
912.52        63.46934
912.91         65.2117
913.31        66.04325
913.70        65.77469
914.10        64.69164
914.49        63.14893
914.89        61.97852
915.29        61.51274
915.68        61.52015
916.08        61.87966
916.47        62.41012
916.87        62.96904
917.26        63.61149
917.66        64.17329
918.05        64.40473
918.45        64.23901
918.84        63.78647
919.24        63.11316
919.64        62.36433
920.03        61.64996
920.42        60.96866
920.82        60.59622
921.21        60.90684
921.61        61.86018
922.00        63.35067
922.40        64.82243
922.79        65.60122
923.19        65.51295
923.58        64.50291
923.98        62.83476
924.37        61.86925
924.77        62.17037
925.16        59.41878
925.55        60.98056
925.95        60.87555
926.34        61.27887
926.74        61.95527
927.13        62.81288
927.52           63.48
927.92        63.82573
928.31         63.9977
928.70        63.98033
929.10        63.82547
929.49        63.57973
929.89        63.21844
930.28          62.925
930.67        62.99643
931.07        63.44569
931.46        64.25018
931.85        65.06252
932.24        65.36172
932.64         65.0324
933.03        64.11126
933.42        62.95307
933.82        62.30444
934.21        62.35073
934.60        62.90226
934.99        63.31457
935.39         63.0237
935.78        61.97758
936.17        59.70201
936.56        56.53052
936.96        57.72736
937.35        57.09192
937.74        59.39022
938.13        61.73248
938.53        63.30098
938.92        63.98698
939.31        64.09956
939.70        63.88408
940.09        63.61913
940.49         63.4785
940.88         63.3863
941.27        63.37292
941.66        63.53595
942.05        63.85569
942.44        64.28225
942.84        64.79328
943.23        65.32912
943.62        65.81956
944.01        66.32394
944.40        66.55887
944.79        66.07963
945.18        64.83858
945.57        62.90631
945.97        61.01851
946.36        60.45337
946.75        61.55264
947.14        63.82951
947.53        66.21235
947.92        67.23367
948.31        66.64426
948.70        64.90968
949.09        62.73118
949.48         61.3472
949.87        61.17026
950.26        61.81037
950.65        62.85354
951.04        63.61248
951.43        63.83168
951.82        63.76073
952.21         63.5004
952.60        63.17541
952.99        62.86226
953.38        62.47472
953.77        62.08312
954.16        61.84555
954.55        61.78178
954.94        61.87231
955.33        62.01865
955.72        62.02219
956.11        61.84347
956.50        61.56473
956.89        61.25254
957.28        61.04661
957.66        61.02914
958.05        61.06581
958.44        61.22055
958.83        61.58874
959.22        62.14313
959.61        62.86209
960.00        63.45187
960.39         63.3867
960.78        62.55919
961.16        61.11678
961.55        59.58144
961.94         58.6286
962.33        58.43699
962.72        58.87218
963.11        59.54832
963.49        59.79863
963.88        59.36969
964.27        58.48036
964.66        57.60344
965.04        57.50705
965.43        58.33702
965.82        59.83148
966.21        61.39297
966.60        62.07211
966.98        61.66234
967.37        60.45157
967.76        59.06136
968.15        58.46846
968.53        58.93399
968.92        60.06642
969.31        61.40281
969.69        62.17443
970.08        62.08244
970.47        61.40962
970.86        60.37807
971.24        59.30063
971.63         58.3895
972.02        57.57002
972.40        56.86737
972.79        56.37947
973.17        56.14281
973.56        56.08612
973.95        56.29346
974.33        56.84884
974.72        57.58696
975.11        58.43698
975.49        59.04372
975.88        58.86949
976.26        57.86598
976.65         56.2711
977.04        54.47597
977.42        53.17775
977.81        52.64518
978.19        52.66111
978.58        53.19126
978.96        54.14021
979.35        55.32529
979.74        56.87123
980.12        58.34505
980.51        58.73498
980.89        57.99526
981.28        56.35164
981.66        54.70176
982.05        54.31732
982.43        55.36943
982.82         57.4427
983.20        59.84867
983.59        61.02958
983.97        60.59747
984.35        58.96377
984.74         56.8641
985.12        55.34331
985.51        54.74774
985.89        54.72609
986.28        55.09603
986.66        55.52287
987.04        55.75801
987.43        55.98386
987.81        55.98835
988.20        55.43478
988.58        54.20356
988.96        52.13767
989.35        49.62126
989.73        48.00348
990.12        48.07117
990.50        49.56214
990.88        51.38023
991.27        52.17576
991.65        51.94563
992.03        51.04171
992.42        50.18255
992.80        50.64159
993.18        52.71611
993.56        55.62798
993.95         58.5335
994.33        60.76743
994.71        61.95544
995.10        62.36015
995.48        62.03545
995.86        60.93333
996.24        59.14212
996.63        56.67102
997.01        53.80827
997.39        51.66714
997.77        50.88101
998.15        51.22476
998.54        52.27363
998.92        53.52642
999.30        54.87261
999.68        56.63764
1000.06        58.31659
1000.45        58.24665
1000.83        56.04744
1001.21        52.59484
1001.59        49.52415
1001.97        48.11615
1002.35        48.21267
1002.73        49.39486
1003.12        51.10992
1003.50        52.02581
1003.88        51.44498
1004.26        49.92376
1004.64         47.8344
1005.02        45.59078
1005.40        43.40973
1005.78        41.07902
1006.16        39.39614
1006.54        39.96385
1006.92        42.67894
1007.30        46.44396
1007.69         49.8192
1008.07        51.64096
1008.45        51.67844
1008.83        50.11584
1009.21        46.44017
1009.59        40.79855
1009.97        34.53637
1010.35        28.58446
1010.73         25.2065
1011.11        25.94872
1011.49        30.08103
1011.86        36.97086
1012.24        43.42382
1012.62        46.40039
1013.00         45.6632
1013.38        42.28554
1013.76        37.85032
1014.14        35.20021
1014.52        35.25471
1014.90        37.17454
1015.28        39.85953
1015.66        41.48059
1016.04        41.38332
1016.41         40.0781
1016.79        38.13615
1017.17        36.83722
1017.55        36.77903
1017.93        37.32488
1018.31        37.92815
1018.69        38.15818
1019.06        37.86507
1019.44         36.9482
1019.82        35.42602
1020.20        33.38675
1020.58        31.08687
1020.95        28.83185
1021.33        26.14667
1021.71        21.19431
1022.09        12.23599
1022.46       -5.237393
1022.84       -31.38138
1023.22       -39.89721
1023.60       -15.94305
1023.97        11.99559
1024.35        27.85236
1024.73        32.86803
