SpectraSmart Spectrum 2.9.0.0
--------- Device Information -----------
Spectrum Name :  反射率_0
Saving Time :  2024/04/20 00:54:36
Spectro-Module Model Name : SE2030-DUVN
Spectro-Module Serial Number : OS361AC55029948
Wavelength Start : 200
Wavelength End : 1025
Wavelength Unit : Wavelength(nm)
Spectrum Unit : Reflectance(%)
-----------Spectrum Setting ------------
Integration Time : 30ms
Average : 10
Boxcar : 0
Background removal :  enabled
linearity correction :  enabled
SC :  disabled
Intensity correction :  disabled
DWT denoise :  enabled
savitzky-golay :  disabled
FFT :  disabled
Running average :  disabled
Kalman :  disabled
High pass :  disabled
---------------BEGIN--------------------
Wavelength(nm)             Reflectance(%)
200.29               0
200.75        58.77655
201.21        56.64041
201.67        56.14009
202.13        58.56834
202.58        64.57497
203.04        74.55537
203.50        85.99612
203.96        91.33057
204.42        88.88384
204.88        82.59483
205.34        76.23405
205.80        71.68006
206.26         68.2902
206.72        64.72189
207.18        60.67185
207.64        57.70409
208.10         57.9186
208.55        61.52686
209.01        65.53522
209.47        67.81283
209.93        68.29318
210.39        67.60592
210.85        66.29244
211.31        64.92576
211.77        63.51858
212.23        61.71483
212.69        59.50125
213.14         57.9955
213.60        57.62251
214.06        58.42642
214.52        59.64116
214.98        60.85138
215.44        62.02958
215.90        63.05831
216.36        64.12272
216.81        65.37737
217.27        66.50229
217.73        67.51697
218.19        67.24002
218.65        63.93141
219.11        57.32714
219.57         47.5236
220.02        36.64951
220.48        30.82593
220.94         32.1935
221.40        39.77839
221.86        49.49426
222.32        54.87237
222.77        54.34084
223.23        49.95217
223.69        44.91673
224.15         43.8503
224.61        46.76571
225.06         51.1188
225.52        54.68659
225.98        55.72982
226.44        54.24515
226.90        51.16543
227.36        47.27077
227.81        43.93328
228.27        42.17368
228.73        41.52005
229.19        41.76398
229.65        42.63655
230.10        43.83506
230.56        45.26117
231.02        46.70591
231.48        47.92283
231.93        48.81709
232.39        49.45959
232.85        49.68771
233.31        49.30321
233.77        48.33235
234.22        46.84389
234.68        45.26121
235.14        44.23433
235.60        43.99646
236.05        44.46892
236.51         45.3149
236.97        45.96167
237.43        46.30463
237.88        46.61788
238.34        47.15486
238.80        48.80645
239.26         51.7525
239.71        55.36888
240.17         58.7497
240.63        61.42256
241.08        63.38551
241.54        64.68623
242.00        65.15306
242.46         64.3176
242.91        61.88997
243.37        57.14647
243.83        50.60152
244.28         46.9745
244.74        50.69024
245.20        60.87589
245.66        70.73847
246.11        74.60212
246.57        71.98043
247.03         63.2043
247.48        50.31794
247.94        45.91573
248.40        52.16676
248.85        60.56346
249.31        66.68073
249.77        69.43148
250.22        69.64234
250.68        68.29106
251.14        65.99426
251.59        64.03614
252.05        63.46442
252.51        64.21117
252.96        65.28622
253.42        65.18491
253.88        63.74451
254.33         61.6552
254.79        61.11718
255.25        63.99534
255.70         69.6032
256.16        76.36793
256.62        81.86165
257.07        83.42134
257.53        81.33945
257.99        76.85004
258.44        71.45699
258.90        67.90889
259.35        66.07338
259.81        65.52647
260.27        65.01329
260.72        63.46471
261.18        61.18599
261.63        58.22504
262.09        55.64688
262.55        54.38441
263.00        54.38265
263.46         55.2553
263.91        55.92945
264.37        55.45769
264.83        53.80299
265.28        51.34929
265.74        49.11003
266.19        48.03378
266.65        48.27368
267.11        49.27868
267.56        50.31307
268.02        50.32967
268.47        49.14224
268.93        47.13174
269.38        44.78391
269.84        43.11576
270.30        42.39711
270.75        42.33592
271.21        42.52454
271.66        42.34299
272.12        41.61718
272.57        40.54229
273.03        39.40258
273.48        38.53598
273.94        38.07626
274.39         37.8561
274.85        37.67398
275.31        37.21399
275.76        36.40414
276.22        35.38243
276.67        34.36412
277.13        33.77018
277.58        33.59703
278.04        33.73125
278.49         33.8138
278.95        33.41386
279.40        32.44863
279.86        31.17822
280.31        29.87577
280.77        29.06479
281.22        28.76554
281.68         28.8286
282.13        28.99724
282.59          28.936
283.04        28.56083
283.50        28.03432
283.95         27.4639
284.41        27.03824
284.86        26.78498
285.32        26.65249
285.77        26.60786
286.22        26.67708
286.68        26.82913
287.13        27.02833
287.59        27.19925
288.04        27.20078
288.50        27.03391
288.95        26.71139
289.41        26.33547
289.86        25.99113
290.32          25.762
290.77        25.61967
291.22        25.57889
291.68        25.62096
292.13        25.74359
292.59        25.97551
293.04        26.32294
293.50        26.80658
293.95        27.40908
294.40        28.09873
294.86        28.84265
295.31        29.60562
295.77        30.36957
296.22         31.1353
296.68        31.87569
297.13        32.52942
297.58        33.09781
298.04        33.60224
298.49        34.10383
298.95        34.74268
299.40        35.52322
299.85        36.39655
300.31        37.27654
300.76        38.02125
301.21        38.59745
301.67        39.08036
302.12        39.47755
302.58        39.86742
303.03        40.25394
303.48        40.63825
303.94        41.08402
304.39        41.64536
304.84        42.32729
305.30        43.09353
305.75        43.82489
306.20        44.36452
306.66        44.69936
307.11        44.86075
307.57        44.93964
308.02        44.99549
308.47        45.08345
308.93        45.17389
309.38        45.28741
309.83        45.51245
310.29        45.84158
310.74         46.2545
311.19        46.60451
311.65        46.65226
312.10        46.35865
312.55        45.80115
313.00        45.19768
313.46        44.88719
313.91        44.92343
314.36        45.21806
314.82         45.5643
315.27        45.64724
315.72        45.37482
316.18        44.87164
316.63        44.28723
317.08        43.85985
317.53        43.65031
317.99         43.5678
318.44        43.53817
318.89         43.4343
319.35        43.21198
319.80        42.91885
320.25        42.57917
320.70        42.22638
321.16        41.87157
321.61        41.50608
322.06        41.12725
322.51        40.74283
322.97        40.35011
323.42        39.96264
323.87        39.58248
324.32        39.21434
324.78        38.85182
325.23        38.50692
325.68        38.15667
326.13        37.77195
326.59        37.34919
327.04        36.92104
327.49        36.51635
327.94        36.18628
328.39        35.94085
328.85        35.74569
329.30        35.61219
329.75        35.50138
330.20        35.39309
330.66        35.26964
331.11        35.13408
331.56        34.93275
332.01        34.65444
332.46        34.30757
332.92        33.91148
333.37          33.521
333.82        33.16003
334.27        32.83581
334.72        32.55579
335.17        32.32797
335.63        32.14312
336.08        32.00766
336.53        31.92219
336.98        31.89794
337.43        31.92249
337.88        31.98928
338.34        31.99806
338.79          31.835
339.24        31.46528
339.69        30.92039
340.14        30.36579
340.59        30.08217
341.05        30.11955
341.50        30.40423
341.95        30.73647
342.40        30.80074
342.85        30.52964
343.30        30.03398
343.75        29.47113
344.20        29.10018
344.66        28.98948
345.11        29.02338
345.56        29.13577
346.01        29.22019
346.46        29.22391
346.91        29.19823
347.36        29.07569
347.81        28.74015
348.26        28.20635
348.72        27.54058
349.17        26.89559
349.62        26.60649
350.07        26.74392
350.52        27.19212
350.97        27.76579
351.42        28.18277
351.87        28.35271
352.32        28.34425
352.77        28.19392
353.22        27.96852
353.67        27.70739
354.13        27.40148
354.58        27.06992
355.03        26.78879
355.48        26.58313
355.93        26.46196
356.38        26.40194
356.83        26.35016
357.28         26.2859
357.73        26.20672
358.18        26.13438
358.63        26.10858
359.08        26.12649
359.53        26.16776
359.98        26.16014
360.43        25.99786
360.88        25.67247
361.33        25.22629
361.78        24.76636
362.23        24.46783
362.68        24.37019
363.13        24.41297
363.58        24.50302
364.03        24.49287
364.48        24.33949
364.93        24.09085
365.38        23.77915
365.83         23.4626
366.28        23.17364
366.73        22.89271
367.18        22.64924
367.63        22.49122
368.08        22.41805
368.53        22.41962
368.98        22.43653
369.43        22.36763
369.88        22.19662
370.33        21.95962
370.78        21.70907
371.23        21.54022
371.68        21.48184
372.13        21.49151
372.58        21.56105
373.03        21.67675
373.48        21.80885
373.93        21.95235
374.38        22.02895
374.83        21.91983
375.28        21.61454
375.72          21.145
376.17        20.64445
376.62        20.29218
377.07        20.14428
377.52        20.15263
377.97        20.24637
378.42        20.30782
378.87        20.29675
379.32        20.24546
379.77        20.17495
380.22        20.11415
380.67        20.07067
381.11        20.02987
381.56        19.96679
382.01        19.86656
382.46        19.72664
382.91        19.55373
383.36        19.38194
383.81        19.25668
384.26        19.18752
384.71        19.17211
385.15        19.15437
385.60        19.05292
386.05        18.85596
386.50        18.58633
386.95        18.33858
387.40        18.26119
387.85        18.37243
388.29        18.61417
388.74        18.85739
389.19        18.91417
389.64         18.7514
390.09        18.42358
390.54        18.05597
390.98        17.84374
391.43        17.84854
391.88        17.99292
392.33        18.15382
392.78        18.15471
393.23        17.97185
393.67        17.66475
394.12        17.36674
394.57        17.19748
395.02        17.18261
395.47        17.27715
395.91        17.41139
396.36         17.4468
396.81        17.35477
397.26        17.17672
397.71        16.99388
398.15        16.90959
398.60        16.96374
399.05        17.10678
399.50        17.25727
399.95        17.30199
400.39        17.21716
400.84        17.03192
401.29        16.83269
401.74        16.77581
402.18        16.90291
402.63        17.15414
403.08        17.40278
403.53        17.44867
403.97        17.25546
404.42        16.90224
404.87        16.52661
405.32        16.35327
405.76        16.43307
406.21        16.68691
406.66        16.99626
407.11        17.17674
407.55        17.17791
408.00        17.06134
408.45        16.88375
408.90        16.70116
409.34        16.56943
409.79        16.54589
410.24        16.59093
410.68        16.57627
411.13        16.49385
411.58        16.42007
412.03        16.36979
412.47        16.34079
412.92        16.33529
413.37        16.34311
413.81        16.37614
414.26        16.46918
414.71        16.61311
415.15        16.80137
415.60        16.95513
416.05        16.97365
416.49        16.83448
416.94        16.57585
417.39        16.28181
417.83        16.08934
418.28        16.04202
418.73        16.09599
419.17        16.19363
419.62        16.23063
420.07        16.18446
420.51        16.09102
420.96         15.9866
421.41        15.90661
421.85        15.85985
422.30        15.84175
422.74        15.84714
423.19        15.89954
423.64        15.98858
424.08        16.11543
424.53        16.23468
424.98        16.29303
425.42        16.27772
425.87        16.20636
426.31        16.09966
426.76        16.00002
427.21        15.91304
427.65        15.82194
428.10        15.75781
428.54        15.74797
428.99        15.79787
429.44        15.96838
429.88        16.15528
430.33        16.08594
430.77        15.81096
431.22        15.65643
431.66        15.67022
432.11        15.74574
432.56        15.86223
433.00        16.08862
433.45         16.2713
433.89        16.19526
434.34        15.96905
434.78         15.7468
435.23        15.50266
435.67        16.25381
436.12        15.72487
436.57        15.61869
437.01        15.34706
437.46        15.23391
437.90        15.30003
438.35        15.40014
438.79        15.49158
439.24        15.57628
439.68        15.63527
440.13        15.53932
440.57        15.36392
441.02        15.48176
441.46        15.74679
441.91        15.68576
442.35          14.972
442.80        14.70424
443.24        14.73495
443.69        14.72589
444.13        14.64779
444.58        14.61979
445.02        14.63961
445.47        14.71422
445.91        14.80278
446.36        14.80506
446.80        14.70467
447.24        14.54909
447.69        14.39123
448.13        14.28139
448.58        14.24333
449.02        14.25908
449.47        14.29737
449.91        14.30042
450.36        14.25864
450.80        14.18756
451.25        14.12143
451.69        14.09606
452.13        14.12407
452.58         14.1833
453.02        14.25166
453.47        14.29601
453.91        14.30858
454.36        14.29886
454.80        14.27332
455.24        14.24265
455.69        14.21786
456.13        14.17892
456.58        14.14526
457.02        14.13882
457.46        14.15937
457.91        14.16845
458.35        14.15579
458.79        14.13884
459.24        14.11372
459.68        14.07895
460.13        14.08166
460.57        14.05827
461.01        13.99896
461.46        14.28349
461.90        14.35045
462.34        14.19898
462.79        14.30143
463.23        14.18162
463.68        14.07924
464.12        14.00851
464.56        14.09453
465.01        14.22334
465.45        14.35117
465.89        14.42879
466.34        14.44867
466.78        14.38107
467.22        14.27374
467.67        14.30589
468.11        14.44851
468.55         14.4167
468.99        14.24294
469.44        14.21107
469.88        14.33457
470.32        14.45916
470.77        14.54059
471.21        14.58392
471.65        14.57778
472.10        14.52394
472.54         14.4554
472.98        14.45905
473.42        14.54761
473.87        14.65149
474.31        14.74406
474.75        14.87394
475.20        15.00012
475.64        14.97279
476.08        14.84628
476.52        14.83584
476.97        14.95627
477.41        15.10859
477.85        15.24126
478.29        15.31614
478.74        15.32013
479.18        15.24141
479.62        15.14794
480.06        15.14953
480.50        15.24668
480.95         15.3369
481.39        15.38882
481.83        15.42534
482.27         15.4438
482.72        15.44287
483.16         15.4435
483.60        15.48089
484.04        15.55458
484.48         15.7065
484.93        15.98789
485.37        16.11894
485.81        16.21492
486.25        16.79167
486.69        17.41173
487.14        16.77781
487.58        16.48266
488.02        17.45687
488.46        16.93202
488.90        17.18436
489.34        17.16813
489.79        17.30752
490.23        17.54293
490.67        17.71622
491.11        17.82449
491.55        17.83074
491.99         17.7746
492.43        17.78287
492.88        17.87956
493.32        17.98067
493.76        18.10187
494.20        18.30287
494.64        18.58077
495.08        18.92214
495.52        19.27097
495.96        19.51908
496.41        19.66717
496.85        19.78167
497.29        19.88892
497.73         20.0554
498.17        20.26349
498.61        20.34587
499.05        20.33354
499.49        20.45935
499.93        20.74016
500.37        20.99555
500.82        21.20413
501.26        21.50662
501.70         21.8406
502.14        21.92267
502.58        21.79787
503.02        21.79018
503.46        21.92768
503.90        22.04117
504.34        22.10775
504.78        22.16531
505.22        22.20886
505.66        22.23761
506.10        22.26302
506.54        22.29736
506.98        22.34873
507.42        22.42016
507.86        22.51116
508.30        22.61981
508.74        22.74094
509.18        22.86513
509.62         22.9981
510.06        23.14929
510.50        23.31563
510.94        23.49665
511.38        23.64743
511.82        23.69687
512.26        23.63678
512.70        23.48849
513.14        23.33747
513.58        23.31553
514.02        23.44279
514.46        23.68318
514.90        23.94251
515.34        24.00585
515.78        23.87449
516.22        23.66521
516.66        23.49278
517.10        23.20068
517.54        22.82393
517.98        23.43262
518.42        23.37012
518.86        23.62469
519.30        23.68409
519.74         23.7238
520.18         23.7442
520.62         23.7224
521.06        23.68135
521.50        23.61087
521.93        23.52151
522.37         23.4419
522.81        23.37965
523.25        23.33163
523.69        23.30301
524.13        23.29907
524.57        23.31355
525.01         23.3392
525.45        23.35483
525.89        23.32622
526.32        23.24648
526.76        23.13149
527.20        22.99283
527.64        22.85464
528.08        22.72703
528.52        22.59951
528.96         22.4914
529.40        22.42974
529.83        22.41313
530.27        22.44226
530.71        22.46152
531.15        22.38291
531.59        22.19792
532.03        21.93806
532.46        21.68392
532.90        21.58117
533.34        21.64719
533.78        21.82738
534.22        22.03899
534.66        22.15419
535.09        22.13485
535.53        22.03156
535.97        21.87573
536.41        21.71466
536.85        21.57476
537.28        21.45297
537.72         21.3806
538.16        21.34248
538.60        21.44436
539.04        21.58286
539.47        21.73469
539.91        21.86961
540.35        21.98548
540.79         21.9058
541.22         21.9458
541.66        22.00034
542.10        22.18532
542.54        22.12686
542.97        22.39518
543.41        22.55522
543.85        22.75775
544.29        22.95172
544.72        23.11462
545.16        23.27842
545.60        23.43579
546.04        23.50503
546.47        23.55271
546.91        23.83435
547.35        24.28986
547.79        24.60938
548.22        24.75226
548.66        24.82405
549.10        24.87426
549.53        25.07147
549.97        25.43056
550.41        25.51117
550.84        25.78142
551.28        25.98306
551.72        26.26118
552.15        26.53036
552.59        26.78366
553.03         27.0323
553.46        27.24737
553.90        27.39606
554.34        27.47193
554.77        27.51904
555.21        27.58736
555.65        27.56577
556.08        27.74633
556.52         27.8852
556.96        28.04094
557.39        28.20115
557.83        28.34884
558.27        28.41837
558.70        28.42648
559.14        28.46913
559.57        28.54641
560.01        28.63709
560.45        28.72166
560.88        28.75185
561.32        28.77755
561.75         28.8449
562.19        29.04828
562.63        29.17031
563.06         29.2368
563.50        29.25861
563.93        29.26911
564.37        29.50683
564.80        29.78002
565.24        29.91415
565.68        29.87164
566.11        29.92735
566.55        30.11078
566.98        30.21514
567.42        30.21985
567.85        30.55676
568.29        30.44172
568.72        30.76592
569.16        31.22013
569.60        31.61971
570.03        31.68494
570.47        31.88355
570.90        32.02156
571.34        32.26786
571.77        31.83603
572.21        32.60031
572.64        32.68381
573.08        32.92939
573.51        32.87426
573.95        33.40575
574.38        33.63905
574.82        33.94487
575.25        34.17012
575.69        33.97555
576.12        33.79049
576.56         33.7118
576.99        33.91615
577.42        33.87618
577.86        33.98784
578.29        33.95168
578.73        34.52802
579.16        34.15444
579.60        33.84576
580.03         33.6676
580.47         33.8879
580.90        33.48495
581.33        33.42049
581.77        33.24866
582.20         33.7087
582.64        33.49497
583.07        32.82269
583.51        32.97855
583.94        32.55172
584.37        32.53811
584.81        32.05639
585.24        32.02577
585.68        32.18665
586.11        32.11073
586.54        31.77426
586.98        31.42708
587.41        31.47787
587.85        31.51084
588.28        31.56566
588.71        31.42536
589.15        31.14969
589.58        30.88322
590.01        31.02649
590.45        31.27718
590.88        31.25555
591.31        31.17124
591.75        30.89214
592.18        31.08609
592.61        31.04539
593.05        31.35399
593.48        31.14381
593.91        31.98403
594.35        31.41589
594.78        31.68251
595.21        31.89167
595.65        32.30443
596.08        32.23227
596.51        32.27001
596.94        32.33988
597.38         32.4207
597.81        32.55412
598.24        32.94736
598.68        33.39502
599.11        33.72034
599.54        34.48893
599.97        34.74375
600.41        34.87412
600.84        35.44603
601.27        36.10062
601.70        36.40068
602.14        36.72938
602.57        37.12491
603.00        37.73155
603.43        38.16553
603.87        38.44659
604.30        38.91981
604.73        39.56276
605.16        39.94242
605.60        40.41978
606.03        40.94942
606.46        41.42164
606.89        42.40055
607.32        42.56719
607.76        42.58062
608.19        43.06213
608.62        43.73437
609.05        43.80639
609.48        44.18651
609.92        44.64165
610.35        44.49965
610.78        45.44499
611.21        46.18563
611.64        45.90315
612.07        46.35302
612.50        46.82887
612.94        46.66521
613.37        47.32401
613.80        47.61987
614.23        47.99658
614.66        48.29888
615.09        48.45627
615.52        48.84678
615.96        49.31439
616.39        49.65921
616.82        49.93773
617.25        49.57413
617.68        50.03271
618.11         50.3957
618.54        50.92849
618.97        51.08094
619.40        50.88013
619.84        50.72534
620.27        50.46937
620.70        50.90163
621.13        51.75983
621.56        52.03078
621.99        51.80258
622.42        51.83472
622.85        52.21086
623.28        52.33763
623.71        52.19254
624.14        52.49806
624.57        52.26012
625.00        52.12511
625.43         52.4618
625.86         51.6589
626.29        51.83666
626.72        51.64607
627.15         51.5931
627.58        51.49439
628.01        51.22675
628.44        51.57582
628.87          50.991
629.30        50.73304
629.73        50.39843
630.16        50.02663
630.59        49.81854
631.02        49.45546
631.45        49.02217
631.88         48.6219
632.31        48.25921
632.74         47.8612
633.17        47.41299
633.60        46.93273
634.03        46.42211
634.46        45.88137
634.89         45.3323
635.32        44.80858
635.75        44.32335
636.18        43.87656
636.61        43.45294
637.04        43.02188
637.47         42.5722
637.89        42.11183
638.32        41.65314
638.75        41.24289
639.18        40.89439
639.61        40.60279
640.04        40.32841
640.47        40.00418
640.90         39.6213
641.33        39.20462
641.76        38.82007
642.18        38.57773
642.61        38.49319
643.04         38.5306
643.47        38.62238
643.90        38.65685
644.33        38.60371
644.76        38.50298
645.18        38.39397
645.61        38.33931
646.04        38.36587
646.47        38.46349
646.90        38.62415
647.33        38.87614
647.75        39.20615
648.18        39.59143
648.61        40.00582
649.04        40.41074
649.47        40.78882
649.89        41.14942
650.32        41.50813
650.75        41.88153
651.18        42.33778
651.61        42.91208
652.03        43.61253
652.46        44.60362
652.89        45.71827
653.32        46.31752
653.74        46.10521
654.17        46.90395
654.60        47.09262
655.03        48.26366
655.46        47.64768
655.88        49.83678
656.31        50.90853
656.74        58.64838
657.16        54.88562
657.59        50.68304
658.02        51.24662
658.45        52.09434
658.87        53.16401
659.30        53.41265
659.73        54.28305
660.15        55.01893
660.58        54.92079
661.01        54.80653
661.44        54.61903
661.86        54.61938
662.29        55.56204
662.72        56.36353
663.14        57.03563
663.57        57.10267
664.00         56.7485
664.42        56.78848
664.85        57.29297
665.27        57.72972
665.70        58.00462
666.13        58.26428
666.55        58.49359
666.98        58.64894
667.41        58.76189
667.83        58.88024
668.26        59.00693
668.69        59.14183
669.11        59.29043
669.54        59.41728
669.96         59.5183
670.39        59.73367
670.82        59.95457
671.24        60.02029
671.67         59.9948
672.09        60.29131
672.52        60.81647
672.94        61.15522
673.37        61.16647
673.80        60.96774
674.22        60.67808
674.65        60.59008
675.07        60.76951
675.50        61.04914
675.92        61.34239
676.35        61.52565
676.77        61.54641
677.20        61.50283
677.62        61.47142
678.05        61.39224
678.47         61.2471
678.90        61.77719
679.32        61.62729
679.75        61.82829
680.17        61.96217
680.60         62.1374
681.02        62.31821
681.45        62.30441
681.87        62.18887
682.30        62.30356
682.72        62.62189
683.15        62.78116
683.57        62.77303
684.00        62.72791
684.42        62.81515
684.85        62.93705
685.27        63.15595
685.70        63.40244
686.12        63.57358
686.54        63.82429
686.97        64.04485
687.39        63.53001
687.82        63.60323
688.24        63.67843
688.66        63.96824
689.09        63.99366
689.51        63.77658
689.94         63.7587
690.36        63.94494
690.78        64.10827
691.21        64.23275
691.63         64.2471
692.06        64.43076
692.48        64.59243
692.90        64.50717
693.33        64.82829
693.75        64.43374
694.17        64.59737
694.60        64.90963
695.02        64.90956
695.44        64.59074
695.87        64.43449
696.29        64.48944
696.71         64.3819
697.14        64.25374
697.56        64.58723
697.98        65.18755
698.41        65.72495
698.83        65.62785
699.25        65.13859
699.68         65.1625
700.10        65.02419
700.52        65.05977
700.94        65.22952
701.37        65.46191
701.79        65.66512
702.21        65.77113
702.64        65.82101
703.06        65.85802
703.48        65.96195
703.90        66.14724
704.33        66.37065
704.75        66.56803
705.17        66.60027
705.59        66.44461
706.01        66.18351
706.44        65.92113
706.86        65.75836
707.28        65.76225
707.70        66.01547
708.12        66.41908
708.55        66.68731
708.97        66.76952
709.39        66.80239
709.81        66.79794
710.23        66.74163
710.66        66.65629
711.08        66.54402
711.50        66.45684
711.92        66.49783
712.34        66.68554
712.76        66.99271
713.19        67.30643
713.61        67.51331
714.03         67.5522
714.45        67.36703
714.87        67.24473
715.29        67.22082
715.71        67.38446
716.13        67.67625
716.56        67.98006
716.98        68.17496
717.40        68.18482
717.82        68.06081
718.24        67.88506
718.66        67.78001
719.08        67.78139
719.50        67.88459
719.92        67.97102
720.34         67.9883
720.76        67.90166
721.19        67.75417
721.61        67.62039
722.03        67.58091
722.45        67.67794
722.87        67.86206
723.29        68.10046
723.71        68.31681
724.13         68.4823
724.55        68.66239
724.97        68.84892
725.39        68.90872
725.81         68.8876
726.23        69.06101
726.65        69.39336
727.07        69.52758
727.49         69.4272
727.91         69.5635
728.33        69.43001
728.75        69.39272
729.17         69.3123
729.59        69.22628
730.01        69.13942
730.43        69.14264
730.85        69.26066
731.27        69.35368
731.69        69.22948
732.10        69.82555
732.52        69.68166
732.94        69.78204
733.36        69.69865
733.78        69.64143
734.20        69.65989
734.62           69.52
735.04         69.1921
735.46         69.6274
735.88        69.48723
736.30        69.27347
736.72        69.47726
737.13        69.81052
737.55        70.33801
737.97        70.62818
738.39        70.62893
738.81        70.32759
739.23        69.90781
739.65        70.01381
740.06        70.48845
740.48        70.57216
740.90        70.22538
741.32        69.70618
741.74        69.61787
742.16        69.54646
742.57        69.68079
742.99        69.99156
743.41        70.37906
743.83        70.64839
744.25        70.73843
744.67        70.68008
745.08         70.5394
745.50        70.42921
745.92        70.38319
746.34        70.30289
746.75        70.18653
747.17        70.08717
747.59        70.02087
748.01        69.99479
748.42        69.99421
748.84        70.03642
749.26        70.14922
749.68        70.08864
750.09        69.96006
750.51        70.48289
750.93        71.37053
751.35        71.32327
751.76        70.49252
752.18        70.09151
752.60          70.289
753.01        70.58193
753.43        70.36097
753.85        70.38387
754.27        70.46598
754.68        70.65875
755.10        70.83755
755.52        70.79054
755.93        70.77745
756.35           70.73
756.77         70.7654
757.18        70.87231
757.60        71.10094
758.02        71.35637
758.43        71.46951
758.85        71.87225
759.26        71.79162
759.68        71.18972
760.10        71.12807
760.51        71.12808
760.93        71.56206
761.34        70.79797
761.76        71.10361
762.18        70.71522
762.59        70.45506
763.01        70.50037
763.42        70.89915
763.84        71.40594
764.26        71.84056
764.67        71.72186
765.09        71.27835
765.50        71.42509
765.92        72.07654
766.33        72.29667
766.75        71.96223
767.16        71.55029
767.58        71.16436
768.00        70.89951
768.41        70.88821
768.83        71.12759
769.24        71.51205
769.66         71.9559
770.07        72.28698
770.49         72.1025
770.90        71.59251
771.32        71.65301
771.73        72.22214
772.15        72.41135
772.56        72.18486
772.97        71.96168
773.39        71.77593
773.80        71.68853
774.22        71.63768
774.63        71.30478
775.05        70.83528
775.46        70.80272
775.88        71.23378
776.29        71.89553
776.70        72.51923
777.12        72.77631
777.53         72.5825
777.95         72.0087
778.36        71.32887
778.77        71.01015
779.19        71.16934
779.60        71.71619
780.02        72.35059
780.43         72.7481
780.84        72.80928
781.26        72.29837
781.67        71.58009
782.09        72.08023
782.50        73.46671
782.91        73.62272
783.33        72.61758
783.74        72.32921
784.15        72.80331
784.57        73.01659
784.98        72.85696
785.39        72.48689
785.81        71.99576
786.22        71.69487
786.63         71.6442
787.04         71.6315
787.46        71.66399
787.87         71.8996
788.28        72.28832
788.70         72.5936
789.11        72.75841
789.52        72.93547
789.93        73.09358
790.35         72.9866
790.76        72.69734
791.17        72.63752
791.58        72.82291
792.00        72.77699
792.41        72.49454
792.82        72.57874
793.23        72.86649
793.65        72.34159
794.06        71.40253
794.47        71.53423
794.88        72.44764
795.29        73.74088
795.71        73.22643
796.12        72.71487
796.53        73.37035
796.94        72.92146
797.35        72.08917
797.76        71.89746
798.18        72.35599
798.59        72.62708
799.00        72.60252
799.41        72.67068
799.82        72.81847
800.23        72.92062
800.64        72.96179
801.06        72.87696
801.47        72.76061
801.88         72.7629
802.29        72.89909
802.70         73.0942
803.11        73.26315
803.52        73.25642
803.93        73.05704
804.34        72.79926
804.75        72.53256
805.17        72.27172
805.58        72.16204
805.99        72.18314
806.40        72.35938
806.81        73.15157
807.22         74.1672
807.63        73.95744
808.04        72.79069
808.45        72.37748
808.86        72.93558
809.27         73.7477
809.68        74.52673
810.09        74.95284
810.50        74.88001
810.91         74.5138
811.32        74.03033
811.73        73.58788
812.14        73.27103
812.55         73.1287
812.96        73.11115
813.37         72.9325
813.78         72.6568
814.19        72.75081
814.60        73.12922
815.01        73.29633
815.42        73.21418
815.83        73.11492
816.24        73.06245
816.65        73.06909
817.05        73.16889
817.46        73.31575
817.87        73.46531
818.28        73.50316
818.69        73.41879
819.10        73.25015
819.51        73.08475
819.92        73.12727
820.33        73.42764
820.74        73.76254
821.14        74.07009
821.55        74.58139
821.96        75.09335
822.37        74.82832
822.78        73.96799
823.19        73.55738
823.60        73.71847
824.00        73.92853
824.41        74.03265
824.82        74.10944
825.23        74.11173
825.64        74.03818
826.04        73.95004
826.45        73.89268
826.86        73.89519
827.27        73.94028
827.68        73.99653
828.08        74.03693
828.49        73.99744
828.90         73.9194
829.31        73.84089
829.72        73.82508
830.12        73.90249
830.53        74.01173
830.94        74.11118
831.35        74.10983
831.75         74.0125
832.16        73.80975
832.57        73.57757
832.97        73.42258
833.38        73.36117
833.79        73.36417
834.20        73.40577
834.60          73.435
835.01        73.45045
835.42        73.47957
835.82        73.50284
836.23        73.43119
836.64        73.27729
837.04        73.05039
837.45        72.85384
837.86        72.90366
838.26        73.25035
838.67        73.80988
839.08        74.38499
839.48        74.59489
839.89        74.34859
840.29        73.78936
840.70        73.22382
841.11        73.03399
841.51        73.32081
841.92        73.90522
842.33        74.65431
842.73         75.3376
843.14        75.75035
843.54         76.0195
843.95        76.05251
844.35        75.78688
844.76        75.26456
845.17        74.53905
845.57        73.81432
845.98        73.42908
846.38        73.45621
846.79        73.80789
847.19        74.38828
847.60        74.86543
848.00        75.17155
848.41        75.31701
848.81        75.38638
849.22        75.43755
849.62        75.53265
850.03         75.5783
850.43        75.59155
850.84        75.51956
851.24        75.41452
851.65        75.25599
852.05        75.10467
852.46        74.97291
852.86        74.88827
853.27        74.75619
853.67        74.56363
854.07        74.69633
854.48        75.00133
854.88        74.85376
855.29        74.29041
855.69        74.11549
856.10        74.32682
856.50         74.5834
856.90        74.76434
857.31        74.89465
857.71        75.00685
858.12        75.02525
858.52        75.02726
858.92        75.02621
859.33        75.01723
859.73        75.03381
860.13        75.06989
860.54        75.12475
860.94        75.24696
861.34        75.38836
861.75        75.47321
862.15        75.47678
862.55         75.3532
862.96        75.15582
863.36        74.91047
863.76        74.63337
864.17        74.35281
864.57        74.09069
864.97          73.952
865.38        74.07806
865.78        74.52493
866.18        75.17461
866.58        75.80737
866.99        76.03519
867.39        75.78777
867.79        75.14996
868.19        74.23746
868.60        73.22422
869.00        72.18204
869.40        71.13412
869.80        70.29729
870.21        70.01335
870.61        70.39285
871.01        71.28517
871.41        72.34206
871.81        72.99141
872.22         73.0985
872.62        72.82343
873.02        72.31673
873.42         72.0429
873.82        71.94743
874.22        71.43751
874.63        70.78817
875.03        70.66933
875.43        71.18049
875.83         73.0567
876.23        73.38235
876.63        73.27577
877.03        72.22177
877.44        70.35402
877.84        127.3859
878.24        70.66933
878.64        71.81397
879.04        75.19344
879.44        71.97189
879.84        69.95185
880.24        73.62981
880.64        73.48813
881.04        70.45782
881.44        68.57883
881.84        68.52739
882.24        69.65522
882.65        71.22857
883.05        71.85044
883.45        71.10403
883.85        69.73182
884.25         68.4535
884.65        68.07048
885.05        68.77905
885.45        70.26216
885.85        71.96357
886.25        72.97247
886.65        73.00279
887.05        72.34699
887.45        71.40524
887.85        70.76991
888.25        70.62586
888.65        70.80276
889.04        71.14336
889.44        71.31373
889.84        71.24999
890.24        71.07323
890.64         70.9249
891.04         70.9966
891.44         71.2961
891.84        71.69046
892.24        72.02079
892.64        72.03658
893.04        71.69245
893.44        71.15343
893.83        70.46373
894.23        69.70698
894.63        68.93887
895.03        68.14413
895.43         67.5761
895.83        67.65594
896.23        68.42513
896.63        69.74233
897.02        71.15861
897.42        71.83964
897.82         71.5834
898.22        70.64307
898.62        69.42595
899.01        68.57005
899.41        68.30117
899.81        68.41014
900.21         68.7901
900.61        69.28497
901.00        69.79421
901.40        70.33871
901.80        70.83859
902.20        71.12605
902.59         71.1653
902.99        70.98434
903.39        70.59966
903.79         70.0658
904.18        69.44965
904.58        68.81272
904.98        68.35609
905.38        68.38184
905.77        68.90749
906.17        69.83167
906.57        70.84161
906.96        71.46481
907.36        71.52864
907.76        71.13998
908.15        70.55149
908.55        70.12946
908.95        70.00373
909.34        70.11107
909.74        70.21378
910.14        69.89928
910.53        69.10317
910.93        68.05576
911.33        67.18742
911.72        67.17086
912.12        68.06202
912.52        69.52202
912.91         71.0702
913.31        71.88818
913.70        71.82397
914.10        71.13092
914.49        69.96071
914.89        68.74674
915.29        67.76137
915.68        66.93314
916.08        66.52904
916.47        66.89148
916.87        67.94669
917.26        69.55501
917.66        71.20969
918.05        72.09379
918.45        71.96719
918.84        71.11172
919.24        69.80054
919.64        68.53336
920.03        67.54527
920.42         66.7202
920.82        66.28421
921.21        66.53258
921.61        67.40068
922.00        68.85667
922.40        70.31964
922.79        71.04646
923.19        70.84077
923.58        69.67953
923.98        67.94426
924.37        67.08251
924.77        67.64487
925.16        65.88261
925.55        67.80542
925.95        68.02077
926.34        68.26634
926.74         68.4476
927.13        68.74968
927.52        69.24397
927.92        69.88972
928.31        70.70784
928.70        71.40901
929.10        71.54224
929.49        71.02197
929.89        69.99297
930.28        68.93266
930.67        68.60054
931.07        69.12996
931.46        70.32993
931.85        71.66835
932.24        72.35058
932.64        72.16489
933.03        71.25299
933.42        69.97753
933.82        69.10636
934.21        68.87981
934.60        69.10511
934.99        69.25018
935.39        68.84671
935.78        67.83842
936.17        65.83407
936.56        63.11841
936.96        64.14698
937.35        63.65194
937.74        65.66045
938.13        67.68409
938.53        68.98456
938.92        69.47111
939.31         69.4136
939.70         69.0621
940.09        68.73851
940.49        68.62937
940.88        68.66391
941.27        68.82554
941.66        69.13914
942.05        69.56654
942.44        70.05863
942.84        70.63568
943.23        71.32188
943.62        72.05344
944.01        72.85934
944.40        73.36784
944.79        72.99798
945.18        71.67311
945.57        69.49965
945.97        67.32018
946.36          66.633
946.75        67.83943
947.14        70.38679
947.53        73.08643
947.92        74.31192
948.31        73.78424
948.70        72.01834
949.09        69.77789
949.48        68.40714
949.87        68.34104
950.26        69.13461
950.65        70.31474
951.04        71.10651
951.43         71.2251
951.82        70.95868
952.21        70.42977
952.60        69.79021
952.99        69.15405
953.38        68.45587
953.77        67.81397
954.16        67.45616
954.55        67.41743
954.94        67.65492
955.33        68.04713
955.72        68.35585
956.11        68.50871
956.50        68.57593
956.89        68.55552
957.28        68.47168
957.66        68.36847
958.05        68.14794
958.44        67.96196
958.83        68.01897
959.22         68.3317
959.61        68.88187
960.00        69.36646
960.39        69.23652
960.78        68.38898
961.16        66.97602
961.55        65.57395
961.94        64.94302
962.33        65.24477
962.72        66.27725
963.11         67.5075
963.49        68.02287
963.88        67.49978
964.27        66.26054
964.66        64.87443
965.04        64.27602
965.43        64.69925
965.82        65.84496
966.21        67.23663
966.60        68.10841
966.98        68.24375
967.37        67.85864
967.76         67.2888
968.15        67.04613
968.53        67.28033
968.92        67.71498
969.31        68.14616
969.69         68.2567
970.08        67.89924
970.47        67.26029
970.86        66.41206
971.24        65.40974
971.63        64.39302
972.02        63.38456
972.40        62.55158
972.79        62.20298
973.17        62.42833
973.56        63.05609
973.95         63.9918
974.33        65.02682
974.72         65.8983
975.11        66.61717
975.49         66.9733
975.88        66.66602
976.26        65.71189
976.65        64.26675
977.04        62.65243
977.42        61.45027
977.81        60.88073
978.19        60.79233
978.58        61.15304
978.96        61.87338
979.35        62.78754
979.74        64.03168
980.12         65.2586
980.51        65.59787
980.89        65.02595
981.28        63.70121
981.66        62.41437
982.05         62.3216
982.43        63.55473
982.82        65.73525
983.20        68.16322
983.59        69.25191
983.97        68.63107
984.35        66.70915
984.74        64.30451
985.12        62.59819
985.51        61.95731
985.89          62.028
986.28        62.54111
986.66        63.00689
987.04        63.12272
987.43        63.16865
987.81        62.99663
988.20        62.36166
988.58        61.16776
988.96        59.22045
989.35         56.9312
989.73        55.74426
990.12        56.34048
990.50        58.36213
990.88         60.5224
991.27        61.31327
991.65        60.72867
992.03        59.18287
992.42        57.53058
992.80        57.40808
993.18        59.25837
993.56        62.20617
993.95        65.31747
994.33        67.76323
994.71         69.1186
995.10        69.71143
995.48        69.53281
995.86        68.43974
996.24        66.51019
996.63        63.71798
997.01        60.51775
997.39         58.3703
997.77        57.98784
998.15        58.98683
998.54        60.67049
998.92        62.21611
999.30        63.49742
999.68        64.91603
1000.06        65.99768
1000.45        65.39785
1000.83        63.01509
1001.21        59.53999
1001.59        56.60008
1001.97        55.48527
1002.35        56.01352
1002.73        57.86517
1003.12        60.15094
1003.50        60.80543
1003.88        58.90597
1004.26        55.27698
1004.64        51.18003
1005.02        48.25718
1005.40        46.97986
1005.78         46.9156
1006.16        48.11748
1006.54        50.45358
1006.92           53.21
1007.30        55.90558
1007.69        58.00809
1008.07        59.32157
1008.45        59.85022
1008.83        59.69523
1009.21        58.16814
1009.59         54.0846
1009.97        47.47305
1010.35        39.43617
1010.73        33.50805
1011.11        32.97806
1011.49        37.35711
1011.86        45.37935
1012.24        53.12101
1012.62         56.6436
1013.00         55.6051
1013.38        51.44922
1013.76        46.10791
1014.14        43.01032
1014.52        43.23099
1014.90        45.63363
1015.28        48.92747
1015.66        50.99745
1016.04        51.07685
1016.41        49.90986
1016.79        47.75996
1017.17        45.44341
1017.55        43.76245
1017.93        42.45662
1018.31         41.8755
1018.69        42.48202
1019.06        44.11103
1019.44        46.53775
1019.82        49.05842
1020.20        49.69487
1020.58        47.63406
1020.95        43.49017
1021.33        38.18214
1021.71        32.05019
1022.09        24.26782
1022.46        11.34986
1022.84       -6.515035
1023.22       -11.51304
1023.60        5.543608
1023.97        25.08017
1024.35        36.26817
1024.73        40.37721
