SpectraSmart Spectrum 2.9.0.0
--------- Device Information -----------
Spectrum Name :  反射率_0
Saving Time :  2024/04/20 00:51:53
Spectro-Module Model Name : SE2030-DUVN
Spectro-Module Serial Number : OS361AC55029948
Wavelength Start : 200
Wavelength End : 1025
Wavelength Unit : Wavelength(nm)
Spectrum Unit : Reflectance(%)
-----------Spectrum Setting ------------
Integration Time : 30ms
Average : 10
Boxcar : 0
Background removal :  enabled
linearity correction :  enabled
SC :  disabled
Intensity correction :  disabled
DWT denoise :  enabled
savitzky-golay :  disabled
FFT :  disabled
Running average :  disabled
Kalman :  disabled
High pass :  disabled
---------------BEGIN--------------------
Wavelength(nm)             Reflectance(%)
200.29               0
200.75        56.74221
201.21        57.34443
201.67        60.71648
202.13        67.00207
202.58         75.8761
203.04        87.76023
203.50        98.84438
203.96        100.1144
204.42        91.76019
204.88        79.88379
205.34        69.49043
205.80        62.55883
206.26         57.8381
206.72        53.59885
207.18        49.89129
207.64        49.08447
208.10         53.1158
208.55         61.1635
209.01        68.35435
209.47        71.61924
209.93        71.39106
210.39         68.6229
210.85        65.24287
211.31        63.46513
211.77        63.58073
212.23        65.36269
212.69        67.61492
213.14        66.83076
213.60        62.34585
214.06        57.48098
214.52        54.55859
214.98        54.75429
215.44         57.5829
215.90        62.30692
216.36        68.18939
216.81        72.76734
217.27        74.38091
217.73        73.90431
218.19        71.52408
218.65        67.38689
219.11        61.69835
219.57        53.98736
220.02         45.8466
220.48        42.14002
220.94         44.4032
221.40        52.15434
221.86        61.59719
222.32        66.70824
222.77        66.08163
223.23        61.43895
223.69        56.33844
224.15        55.89187
224.61        59.94507
225.06         65.7338
225.52         70.3594
225.98        71.25885
226.44        68.52987
226.90        63.36338
227.36        57.51699
227.81        54.13133
228.27        54.43245
228.73        57.01284
229.19        60.25804
229.65        62.30371
230.10        62.82965
230.56         62.5983
231.02        62.17444
231.48        62.25617
231.93        62.87114
232.39        63.72216
232.85         64.3675
233.31        64.23402
233.77        63.22083
234.22        61.57065
234.68        59.69178
235.14        58.19678
235.60        57.34241
236.05        57.00396
236.51        56.98541
236.97        56.92477
237.43        56.70241
237.88        56.56075
238.34        56.40435
238.80        56.52794
239.26         56.9938
239.71        57.55149
240.17        58.06862
240.63        58.90248
241.08        60.15155
241.54        61.75716
242.00        62.94117
242.46        62.12181
242.91        58.45975
243.37        50.83325
243.83        39.84614
244.28        32.89244
244.74        37.23105
245.20        51.53167
245.66        65.49856
246.11        70.01478
246.57        64.13435
247.03        48.29375
247.48        26.03444
247.94        18.34473
248.40        28.95748
248.85        43.22808
249.31         53.7977
249.77        59.06342
250.22        60.50735
250.68         59.9777
251.14        58.04247
251.59        55.60106
252.05        53.63915
252.51        51.85328
252.96        50.46324
253.42        50.23407
253.88        51.15023
254.33        52.89101
254.79        55.53203
255.25        58.76907
255.70        62.24127
256.16         65.6461
256.62        68.07549
257.07        68.54597
257.53        67.30876
257.99        64.71756
258.44        61.54736
258.90        59.55159
259.35          58.471
259.81         58.2376
260.27        57.82911
260.72        56.35254
261.18         54.1348
261.63        51.20019
262.09         48.6618
262.55        47.56361
263.00        47.84706
263.46        49.07275
263.91        50.08565
264.37        49.78891
264.83        48.18107
265.28        45.73106
265.74        43.54296
266.19        42.71755
266.65        43.39886
267.11        44.95803
267.56        46.60739
268.02        47.23235
268.47        46.63138
268.93        45.21329
269.38        43.40771
269.84        42.12383
270.30        41.60706
270.75        41.58146
271.21        41.76021
271.66        41.72119
272.12         41.3243
272.57        40.70528
273.03        40.01687
273.48        39.38343
273.94        38.90127
274.39        38.49411
274.85        38.08398
275.31          37.523
275.76         36.7825
276.22        35.94685
276.67        35.17015
277.13        34.78904
277.58        34.76652
278.04        35.00564
278.49        35.17607
278.95        34.88751
279.40        34.05861
279.86        32.94064
280.31        31.74633
280.77        30.92289
281.22        30.49349
281.68        30.34726
282.13        30.33031
282.59        30.26307
283.04        30.07175
283.50        29.84871
283.95        29.57631
284.41        29.26897
284.86        28.91235
285.32        28.51127
285.77        28.10674
286.22        27.84374
286.68        27.73316
287.13        27.71356
287.59        27.67726
288.04        27.42904
288.50         26.9649
288.95        26.32858
289.41        25.66733
289.86        25.13293
290.32        24.81653
290.77        24.65046
291.22        24.60093
291.68        24.58111
292.13        24.56223
292.59        24.58523
293.04        24.65621
293.50        24.79818
293.95        25.00513
294.40        25.24884
294.86        25.52118
295.31        25.82705
295.77        26.16166
296.22        26.52518
296.68        26.88763
297.13        27.17495
297.58        27.39179
298.04        27.57573
298.49        27.79244
298.95        28.17892
299.40        28.74465
299.85        29.43815
300.31        30.18122
300.76        30.85549
301.21        31.41452
301.67        31.90066
302.12        32.29945
302.58        32.64647
303.03        32.93814
303.48        33.18839
303.94        33.44392
304.39        33.74198
304.84        34.09937
305.30        34.49424
305.75        34.88496
306.20         35.2243
306.66        35.51298
307.11        35.75209
307.57        35.94312
308.02        36.01808
308.47        36.00148
308.93        35.90547
309.38        35.81471
309.83        35.90847
310.29        36.19937
310.74        36.63082
311.19        37.02963
311.65        37.11931
312.10         36.8495
312.55        36.31783
313.00        35.72636
313.46         35.3853
313.91        35.35387
314.36        35.55075
314.82        35.82646
315.27        35.95903
315.72        35.87056
316.18        35.64592
316.63        35.36436
317.08        35.15139
317.53        35.04165
317.99        34.98078
318.44        34.93525
318.89        34.84783
319.35        34.70135
319.80        34.52243
320.25        34.32962
320.70        34.14813
321.16        33.98134
321.61        33.82056
322.06        33.65329
322.51        33.46613
322.97        33.24867
323.42        33.01408
323.87        32.76022
324.32        32.48889
324.78        32.20005
325.23        31.90643
325.68        31.61162
326.13        31.32592
326.59         31.0586
327.04        30.83632
327.49        30.66092
327.94        30.53695
328.39        30.46074
328.85        30.40318
329.30        30.40429
329.75        30.48372
330.20        30.62785
330.66        30.80074
331.11        30.93349
331.56        30.86559
332.01        30.56885
332.46        30.08484
332.92        29.53782
333.37        29.15404
333.82        29.00797
334.27        29.06494
334.72        29.22173
335.17        29.29035
335.63        29.20012
336.08        29.00326
336.53        28.80046
336.98        28.77174
337.43        28.95157
337.88        29.28064
338.34        29.56814
338.79        29.55689
339.24        29.17937
339.69        28.52059
340.14        27.83403
340.59        27.54119
341.05        27.72714
341.50        28.26407
341.95         28.8799
342.40        29.15299
342.85        28.98796
343.30        28.53473
343.75        27.98041
344.20        27.62936
344.66        27.56944
345.11        27.66673
345.56        27.86098
346.01        28.05965
346.46        28.20279
346.91        28.33239
347.36         28.3563
347.81        28.11808
348.26         27.6263
348.72        26.96622
349.17        26.29639
349.62        25.96459
350.07         26.0544
350.52        26.44574
350.97         26.9918
351.42        27.46804
351.87        27.78445
352.32        27.98976
352.77        28.04826
353.22        27.90811
353.67         27.5878
354.13        27.12116
354.58        26.60032
355.03        26.21906
355.48        26.03137
355.93        26.00191
356.38        26.07211
356.83        26.13395
357.28        26.14274
357.73        26.11743
358.18        26.05958
358.63        25.97313
359.08        25.86172
359.53        25.72112
359.98        25.53979
360.43        25.30649
360.88        25.03009
361.33        24.72293
361.78         24.4425
362.23        24.27916
362.68        24.24275
363.13        24.29449
363.58        24.35555
364.03        24.30289
364.48          24.104
364.93        23.79621
365.38        23.42009
365.83         23.0511
366.28        22.72878
366.73        22.43922
367.18        22.20092
367.63        22.03953
368.08        21.94943
368.53        21.92216
368.98        21.91693
369.43        21.86307
369.88        21.74454
370.33        21.58329
370.78         21.3953
371.23        21.21563
371.68        21.06162
372.13        20.91553
372.58        20.81028
373.03          20.801
373.48        20.88338
373.93        21.03439
374.38        21.16386
374.83        21.13303
375.28        20.91708
375.72        20.54937
376.17        20.14386
376.62        19.84669
377.07        19.70789
377.52        19.68934
377.97        19.73587
378.42        19.75895
378.87        19.72848
379.32        19.66653
379.77         19.6032
380.22        19.58006
380.67        19.60179
381.11        19.65215
381.56        19.67031
382.01        19.58021
382.46        19.36801
382.91        19.05755
383.36        18.73516
383.81         18.5283
384.26        18.46256
384.71        18.51028
385.15        18.56654
385.60        18.47249
386.05        18.20131
386.50        17.80665
386.95        17.42524
387.40        17.27002
387.85        17.37774
388.29        17.66852
388.74        17.98782
389.19        18.11609
389.64        18.00913
390.09         17.7281
390.54        17.40581
390.98        17.24723
391.43        17.31317
391.88        17.52093
392.33        17.73066
392.78        17.74386
393.23        17.54015
393.67        17.19293
394.12        16.86424
394.57        16.71539
395.02        16.77778
395.47        16.99163
395.91        17.26174
396.36        17.40014
396.81        17.35853
397.26        17.19304
397.71         16.9931
398.15        16.87681
398.60        16.89392
399.05         16.9907
399.50        17.10263
399.95        17.14199
400.39        17.08731
400.84        16.96345
401.29        16.83136
401.74        16.79912
402.18        16.89562
402.63        17.07548
403.08        17.24323
403.53         17.2464
403.97        17.06127
404.42        16.75502
404.87        16.44252
405.32        16.31174
405.76        16.40385
406.21         16.6499
406.66        16.95444
407.11        17.16898
407.55        17.24916
408.00        17.24338
408.45        17.17589
408.90        17.04583
409.34        16.89505
409.79        16.80268
410.24         16.7649
410.68        16.70529
411.13        16.62983
411.58        16.60098
412.03        16.61266
412.47        16.62613
412.92        16.63118
413.37        16.62861
413.81        16.64633
414.26        16.74263
414.71        16.91447
415.15        17.14846
415.60        17.34881
416.05        17.38796
416.49        17.23885
416.94        16.94996
417.39        16.63083
417.83        16.45785
418.28        16.48156
418.73        16.64228
419.17        16.85357
419.62        16.96835
420.07        16.95129
420.51        16.84914
420.96         16.7159
421.41        16.61411
421.85        16.56182
422.30        16.55002
422.74        16.56164
423.19        16.60336
423.64        16.66283
424.08        16.74782
424.53        16.83517
424.98        16.90893
425.42        16.96344
425.87        17.00315
426.31        17.01212
426.76        16.97856
427.21        16.89642
427.65         16.7632
428.10        16.64467
428.54        16.62707
428.99        16.72985
429.44        16.99613
429.88         17.2868
430.33        17.27107
430.77         16.9941
431.22        16.82098
431.66        16.82018
432.11        16.90148
432.56         17.0504
433.00        17.33491
433.45        17.57739
433.89        17.52019
434.34        17.27461
434.78        17.01882
435.23        16.74136
435.67        17.56449
436.12        17.03363
436.57        16.97771
437.01        16.74912
437.46          16.682
437.90        16.79167
438.35        16.92515
438.79        17.03115
439.24        17.10442
439.68        17.12873
440.13        16.96886
440.57        16.72885
441.02        16.84712
441.46        17.17019
441.91         17.1692
442.35        16.46436
442.80        16.23276
443.24         16.3092
443.69        16.32815
444.13        16.25344
444.58        16.21111
445.02        16.20244
445.47        16.23719
445.91        16.29012
446.36        16.28318
446.80        16.20474
447.24        16.09818
447.69        16.00003
448.13        15.93136
448.58        15.90954
449.02        15.92475
449.47        15.95683
449.91        15.96545
450.36        15.94617
450.80        15.90744
451.25        15.87614
451.69        15.87702
452.13        15.91885
452.58        15.98122
453.02        16.04785
453.47        16.09523
453.91        16.11765
454.36        16.12436
454.80        16.11019
455.24        16.06585
455.69        16.00328
456.13        15.91125
456.58        15.83666
457.02         15.8397
457.46        15.92416
457.91        16.03205
458.35        16.12616
458.79        16.19031
459.24        16.20972
459.68        16.19395
460.13        16.20625
460.57        16.18998
461.01        16.13824
461.46        16.48365
461.90        16.57705
462.34        16.41931
462.79        16.55428
463.23        16.43017
463.68         16.3196
464.12        16.23141
464.56        16.30963
465.01        16.43037
465.45        16.54234
465.89        16.58719
466.34        16.55923
466.78        16.42535
467.22        16.25863
467.67        16.29245
468.11        16.49802
468.55        16.54019
468.99        16.42418
469.44        16.42737
469.88        16.55479
470.32        16.64319
470.77        16.66693
471.21        16.67234
471.65        16.65804
472.10         16.6102
472.54        16.55844
472.98        16.58753
473.42        16.70441
473.87         16.8362
474.31        16.94296
474.75        17.06595
475.20        17.15956
475.64        17.05957
476.08        16.85008
476.52        16.80825
476.97        16.95756
477.41        17.17589
477.85        17.38966
478.29         17.5293
478.74        17.56796
479.18        17.49537
479.62        17.39172
480.06        17.38756
480.50        17.48603
480.95        17.56803
481.39        17.59444
481.83        17.59098
482.27        17.55301
482.72        17.47419
483.16        17.39837
483.60        17.39015
484.04        17.45262
484.48        17.65388
484.93        18.00099
485.37        18.10243
485.81        18.08431
486.25         18.6482
486.69        18.96443
487.14        18.57245
487.58        18.29971
488.02        19.33143
488.46        18.87568
488.90        18.97862
489.34        18.72642
489.79         18.8742
490.23        19.33137
490.67        19.50195
491.11        19.39451
491.55        19.32636
491.99        19.33507
492.43        19.32248
492.88        19.30604
493.32        19.31132
493.76        19.36064
494.20        19.48844
494.64         19.6971
495.08        19.96485
495.52        20.24282
495.96        20.47299
496.41        20.63843
496.85        20.71257
497.29        20.73288
497.73        20.86221
498.17          21.083
498.61        21.16329
499.05        21.12199
499.49        21.20571
499.93        21.42913
500.37        21.60949
500.82        21.73111
501.26        21.94539
501.70        22.19312
502.14        22.18671
502.58        21.99029
503.02        21.95537
503.46        22.11108
503.90        22.27921
504.34        22.40712
504.78        22.48416
505.22        22.49313
505.66        22.44698
506.10        22.38737
506.54        22.36532
506.98        22.39857
507.42        22.49794
507.86        22.64957
508.30        22.70842
508.74        22.85261
509.18        22.93053
509.62        23.01236
510.06        23.11272
510.50        23.23493
510.94        23.37205
511.38         23.4836
511.82          23.512
512.26        23.45054
512.70         23.3197
513.14        23.19117
513.58        23.17359
514.02        23.28185
514.46         23.4841
514.90        23.70457
515.34        23.75871
515.78        23.65366
516.22        23.49927
516.66        23.38472
517.10        23.11299
517.54        22.71043
517.98        23.25968
518.42        23.13383
518.86        23.37506
519.30        23.47952
519.74        23.60639
520.18        23.71629
520.62         23.7245
521.06        23.64051
521.50        23.47378
521.93        23.27643
522.37        23.14331
522.81         23.1003
523.25        23.12688
523.69        23.19062
524.13        23.23817
524.57        23.25076
525.01        23.23949
525.45        23.22158
525.89         23.2232
526.32        23.24726
526.76        23.28398
527.20        23.29969
527.64        23.24885
528.08        23.12458
528.52        22.94108
528.96        22.75262
529.40        22.63911
529.83        22.61695
530.27        22.67334
530.71        22.73914
531.15        22.70545
531.59        22.55474
532.03        22.32256
532.46        22.09739
532.90        22.03511
533.34        22.15311
533.78        22.39302
534.22        22.64987
534.66        22.76386
535.09        22.69534
535.53        22.50706
535.97        22.27105
536.41        22.09846
536.85        22.02696
537.28        22.03236
537.72        22.09901
538.16        22.13396
538.60        22.22775
539.04         22.2972
539.47        22.35666
539.91        22.43448
540.35        22.54437
540.79        22.48621
541.22        22.56055
541.66        22.62525
542.10        22.78905
542.54        22.67938
542.97        22.89566
543.41        23.01305
543.85        23.18989
544.29        23.36469
544.72         23.4996
545.16        23.60464
545.60        23.66982
546.04        23.62541
546.47        23.55531
546.91        23.74062
547.35        24.12867
547.79        24.40203
548.22        24.51816
548.66        24.57607
549.10        24.61763
549.53        24.80973
549.97        25.15057
550.41        25.17799
550.84        25.35207
551.28        25.42759
551.72        25.57214
552.15        25.74421
552.59        25.94895
553.03        26.18398
553.46        26.40101
553.90        26.55302
554.34        26.62834
554.77          26.644
555.21        26.64275
555.65        26.67991
556.08        26.76684
556.52         26.8835
556.96        27.01076
557.39        27.15342
557.83        27.29296
558.27        27.36539
558.70        27.38073
559.14        27.40972
559.57        27.45141
560.01        27.50381
560.45        27.55118
560.88        27.53492
561.32        27.51262
561.75        27.55986
562.19        27.77251
562.63        27.90544
563.06        27.97481
563.50        28.05583
563.93        28.14736
564.37        28.30054
564.80        28.38516
565.24        28.51385
565.68        28.61488
566.11        28.69072
566.55        28.76209
566.98        28.73766
567.42        28.64571
567.85        28.98426
568.29         28.9707
568.72         29.2696
569.16        29.58532
569.60        29.82304
570.03        29.93739
570.47        30.00984
570.90        29.93531
571.34        30.26964
571.77        30.03727
572.21        30.52485
572.64        30.65145
573.08        30.82614
573.51         30.7197
573.95        31.30015
574.38        31.39417
574.82        31.59766
575.25        31.58742
575.69        31.38018
576.12        31.34912
576.56        31.34301
576.99        31.45692
577.42        31.66492
577.86        31.68469
578.29         31.4274
578.73        32.09708
579.16        31.65074
579.60        31.44358
580.03        31.45226
580.47        31.49527
580.90        31.34502
581.33        31.15857
581.77        31.23604
582.20        31.66219
582.64        31.19118
583.07        30.59934
583.51        30.79053
583.94        30.42937
584.37        30.45571
584.81        30.14871
585.24        30.11492
585.68        30.23055
586.11        30.03907
586.54        29.91994
586.98        29.75389
587.41        29.95647
587.85        30.04057
588.28        30.01318
588.71        29.81436
589.15        29.54871
589.58        29.25974
590.01        29.46574
590.45        29.90417
590.88         29.6969
591.31        29.64044
591.75        29.45806
592.18         29.6597
592.61        29.54644
593.05        29.95401
593.48        29.67671
593.91        30.30235
594.35        29.93152
594.78        29.85286
595.21        30.28586
595.65        30.59629
596.08         30.4482
596.51        30.46961
596.94         30.5766
597.38        30.72637
597.81        30.95377
598.24         31.1671
598.68        31.57348
599.11        31.79807
599.54        32.55506
599.97        32.28126
600.41        32.56514
600.84        33.09074
601.27        33.51518
601.70        33.80098
602.14         33.9879
602.57        34.26204
603.00        34.65155
603.43        35.30519
603.87        35.44281
604.30        35.79374
604.73        36.16024
605.16        36.39135
605.60        36.70352
606.03        37.16365
606.46        37.70432
606.89        38.28289
607.32        38.52893
607.76        38.80833
608.19        39.07239
608.62        39.49138
609.05        39.60764
609.48        39.75966
609.92        39.95585
610.35        40.28147
610.78        41.05495
611.21        41.48092
611.64        41.34915
612.07        41.80672
612.50        42.04544
612.94        41.85459
613.37        42.44336
613.80         42.7031
614.23        43.01492
614.66        43.32021
615.09        43.49137
615.52        43.76041
615.96        44.02722
616.39        44.25085
616.82        44.48776
617.25        44.33971
617.68        44.77775
618.11         45.0197
618.54         45.2856
618.97        45.29373
619.40        45.06693
619.84        45.23157
620.27        44.95241
620.70        45.28122
621.13        45.84121
621.56        46.10015
621.99        46.12627
622.42        46.19578
622.85        46.36968
623.28        46.49125
623.71        46.57025
624.14         46.5771
624.57        46.47307
625.00        46.34882
625.43        46.58408
625.86         45.8609
626.29        46.02042
626.72         45.8942
627.15        45.79294
627.58        45.77969
628.01        45.73869
628.44        45.73015
628.87        45.74739
629.30        45.13484
629.73        45.23166
630.16         44.7683
630.59        44.60896
631.02        44.33185
631.45        44.06663
631.88        43.76386
632.31        43.40622
632.74        43.01611
633.17        42.59908
633.60        42.17636
634.03        41.75865
634.46        41.34697
634.89         40.9436
635.32        40.54958
635.75         40.1683
636.18        39.80515
636.61        39.46338
637.04        39.14334
637.47        38.84138
637.89        38.55704
638.32        38.27709
638.75        38.00382
639.18        37.73892
639.61        37.48632
640.04        37.24438
640.47        37.00798
640.90        36.77896
641.33        36.56191
641.76        36.37011
642.18         36.2284
642.61        36.13509
643.04        36.08353
643.47        36.06188
643.90        36.04927
644.33        36.04036
644.76        36.04474
645.18        36.06069
645.61        36.08968
646.04        36.13488
646.47        36.19058
646.90        36.28139
647.33         36.4575
647.75        36.72541
648.18         37.0422
648.61        37.36047
649.04        37.66779
649.47        37.93246
649.89        38.02625
650.32        38.04252
650.75        38.34245
651.18         38.9364
651.61        39.43727
652.03        39.85725
652.46        40.59461
652.89        41.51339
653.32        41.93624
653.74           41.97
654.17        42.10308
654.60        42.68965
655.03        43.55559
655.46        43.10459
655.88        44.86562
656.31        45.35168
656.74        51.38935
657.16        48.29728
657.59        44.11187
658.02        44.94608
658.45        45.82509
658.87        47.09542
659.30        47.27532
659.73        48.11035
660.15        48.79876
660.58        48.66113
661.01        48.54763
661.44        48.30793
661.86        48.60895
662.29         49.3577
662.72        49.97945
663.14        50.33837
663.57        50.41332
664.00         50.3215
664.42         50.3975
664.85        50.69815
665.27        50.96901
665.70         51.1633
666.13        51.36562
666.55        51.56876
666.98        51.74127
667.41        51.89051
667.83        52.02464
668.26        52.14181
668.69        52.25102
669.11        52.35212
669.54        52.44317
669.96        52.53314
670.39        52.61942
670.82        52.72916
671.24        52.90903
671.67        53.15873
672.09        53.43121
672.52        53.67786
672.94        53.87677
673.37        53.98955
673.80        53.89108
674.22        53.68164
674.65        53.64272
675.07        53.82483
675.50        54.08725
675.92        54.35728
676.35        54.52525
676.77        54.55545
677.20        54.50823
677.62        54.43987
678.05        54.38003
678.47        54.33829
678.90        54.56448
679.32        54.58576
679.75        54.75549
680.17        54.92096
680.60        55.13887
681.02        55.31102
681.45        55.46035
681.87        55.57175
682.30         55.6394
682.72        55.68511
683.15        55.74709
683.57        55.84877
684.00        55.89168
684.42         56.0354
684.85        56.19148
685.27        56.39379
685.70        56.63303
686.12        56.85453
686.54        56.98583
686.97        57.00907
687.39        56.95547
687.82        56.87008
688.24        56.85339
688.66        56.92558
689.09        57.05629
689.51        57.22237
689.94        57.36216
690.36        57.47518
690.78        57.55001
691.21        57.57744
691.63         57.6824
692.06        57.89859
692.48        57.74893
692.90        57.80946
693.33        58.20325
693.75        58.10485
694.17        58.30013
694.60        58.44849
695.02        58.45588
695.44        58.28633
695.87        58.15877
696.29        58.13461
696.71         57.9009
697.14        57.68582
697.56        58.28636
697.98        59.41452
698.41        60.03525
698.83        59.92038
699.25         59.3304
699.68        59.21327
700.10        58.99296
700.52        59.00093
700.94        59.17529
701.37        59.42433
701.79         59.6889
702.21        59.90271
702.64        59.88487
703.06         60.0481
703.48        60.11487
703.90        60.21735
704.33        60.31977
704.75        60.40475
705.17        60.41997
705.59        60.35736
706.01        60.24207
706.44        60.14899
706.86        60.18744
707.28        60.36924
707.70        60.67262
708.12        61.00476
708.55        61.17085
708.97        61.15599
709.39        61.10841
709.81        61.07026
710.23        61.02972
710.66        61.01288
711.08         61.0564
711.50         61.1487
711.92        61.23148
712.34        61.29174
712.76        61.40629
713.19        61.56004
713.61        61.48634
714.03        61.61977
714.45        61.59789
714.87        61.60113
715.29        61.69005
715.71        61.87793
716.13         62.1362
716.56         62.3896
716.98         62.5945
717.40        62.69783
717.82        62.71652
718.24        62.68573
718.66         62.6666
719.08        62.67738
719.50        62.69886
719.92        62.71095
720.34        62.67994
720.76        62.60286
721.19        62.50075
721.61        62.40672
722.03        62.33716
722.45        62.32197
722.87         62.3415
723.29        62.40705
723.71        62.52221
724.13        62.68244
724.55        62.89316
724.97        63.12706
725.39        63.29448
725.81        63.44979
726.23        63.53651
726.65        63.60556
727.07         63.7103
727.49        63.86127
727.91        64.03982
728.33        64.20016
728.75        64.26801
729.17        64.22744
729.59        64.10801
730.01        63.96323
730.43        63.87472
730.85        63.86836
731.27        63.92458
731.69        64.01221
732.10        64.08984
732.52        64.13338
732.94        64.14999
733.36        64.14813
733.78        64.19442
734.20        64.33252
734.62        64.41679
735.04         64.3676
735.46        64.70302
735.88        64.80807
736.30        64.27596
736.72         64.5554
737.13        64.67462
737.55        65.01348
737.97        65.40842
738.39        65.73114
738.81        65.62032
739.23        65.19152
739.65         65.1282
740.06        65.36872
740.48         65.4511
740.90        65.39448
741.32        64.82516
741.74        65.16836
742.16        65.17107
742.57        65.25607
742.99        65.39666
743.41        65.56599
743.83        65.68574
744.25        65.72643
744.67        65.62724
745.08        65.57544
745.50        65.47057
745.92        65.38951
746.34        65.31587
746.75        65.27052
747.17        65.26276
747.59        65.29369
748.01        65.43954
748.42        65.66261
748.84        65.72744
749.26        65.70563
749.68         65.8833
750.09        66.23496
750.51          66.593
750.93        66.80641
751.35        66.66691
751.76        66.29977
752.18        66.03717
752.60        65.87502
753.01        66.42531
753.43        66.11316
753.85         66.2581
754.27         66.3812
754.68        66.58271
755.10        66.81668
755.52        66.73067
755.93        66.76633
756.35        66.74733
756.77        66.83073
757.18        66.92957
757.60        67.06653
758.02        67.27682
758.43        67.47201
758.85        67.56683
759.26        67.64211
759.68        67.30689
760.10        67.07357
760.51        66.92593
760.93        67.06641
761.34        66.52625
761.76        66.66575
762.18         66.6773
762.59        66.22985
763.01        66.50569
763.42        67.26237
763.84        67.82627
764.26        68.02052
764.67        67.68491
765.09        67.13786
765.50        67.18067
765.92        67.78494
766.33        68.20415
766.75        68.23443
767.16        68.02984
767.58        67.62913
768.00        67.25562
768.41        67.11783
768.83        67.12041
769.24        67.75085
769.66        68.08375
770.07        68.19025
770.49        68.28684
770.90        68.39059
771.32        68.41164
771.73        68.37883
772.15        68.31406
772.56        68.24789
772.97        68.24741
773.39        68.25146
773.80         68.1541
774.22        67.93113
774.63        67.63928
775.05        67.39268
775.46        67.41929
775.88        67.67077
776.29        68.17421
776.70        68.70525
777.12        68.94154
777.53        68.81676
777.95        68.40214
778.36        67.90772
778.77        67.69756
779.19        67.86397
779.60        68.33595
780.02        68.86655
780.43        69.22766
780.84        69.34429
781.26        68.93518
781.67        68.31013
782.09        68.84606
782.50        70.17915
782.91        70.14629
783.33        68.89819
783.74        68.52518
784.15        69.11342
784.57        69.53534
784.98        69.61306
785.39        69.45074
785.81         69.0872
786.22        68.79729
786.63        68.67942
787.04        68.62305
787.46         68.6587
787.87          68.909
788.28        69.28719
788.70        69.54587
789.11        69.63225
789.52        69.61926
789.93        69.56209
790.35        69.56535
790.76        69.63231
791.17        69.64073
791.58        69.59762
792.00        69.48855
792.41         69.3097
792.82        69.33376
793.23        69.47144
793.65        68.92647
794.06        68.04663
794.47        68.40037
794.88        69.71433
795.29        70.48127
795.71         70.0889
796.12        70.01015
796.53        70.15142
796.94        69.93897
797.35        69.48461
797.76        69.36399
798.18        69.57314
798.59        69.72587
799.00        69.79723
799.41         69.9237
799.82        70.26784
800.23         70.3665
800.64        70.25416
801.06        69.96706
801.47        69.67271
801.88        69.58441
802.29        69.74446
802.70        70.06391
803.11        70.40679
803.52        70.55049
803.93        70.45224
804.34        70.21001
804.75        69.89323
805.17        69.69995
805.58        69.71043
805.99        69.57159
806.40        69.41149
806.81        70.10736
807.22        71.22355
807.63        71.52642
808.04        70.04491
808.45        69.73894
808.86        70.44218
809.27        71.24013
809.68        71.86166
810.09        72.20416
810.50        72.16165
810.91        71.83348
811.32        71.39208
811.73         71.0113
812.14         70.7636
812.55        70.71299
812.96        70.77739
813.37        70.56761
813.78        70.16067
814.19        70.14484
814.60        70.45433
815.01        70.54242
815.42        70.38175
815.83        70.24557
816.24        70.22224
816.65        70.33215
817.05        70.60561
817.46        70.99387
817.87        71.38076
818.28        71.54611
818.69        71.45016
819.10        71.14309
819.51        70.79379
819.92        70.71359
820.33        70.98207
820.74        71.49305
821.14         72.0652
821.55        72.37736
821.96        72.35814
822.37        72.10393
822.78         71.7374
823.19        71.45992
823.60        71.34698
824.00         71.3653
824.41        71.43257
824.82         71.5039
825.23        71.54974
825.64        71.59756
826.04        71.67433
826.45        71.77253
826.86        71.89759
827.27        72.02809
827.68         72.1241
828.08        72.15455
828.49         72.0556
828.90        71.86524
829.31        71.62914
829.72        71.43105
830.12        71.32483
830.53        71.26959
830.94        71.24718
831.35         71.1902
831.75        71.10882
832.16        70.98752
832.57        70.89829
832.97        70.93524
833.38        71.09361
833.79         71.3266
834.20        71.56984
834.60         71.7232
835.01        71.77394
835.42         71.7588
835.82         71.6846
836.23        71.51335
836.64        71.28008
837.04        70.99058
837.45        70.74502
837.86        70.74815
838.26        71.04529
838.67        71.55767
839.08        72.09849
839.48         72.3008
839.89        72.07413
840.29        71.55689
840.70        71.01924
841.11        70.79345
841.51        70.97427
841.92        71.39647
842.33        71.98228
842.73        72.59982
843.14        73.07328
843.54        73.49946
843.95        73.72079
844.35        73.56178
844.76        73.03479
845.17         72.2299
845.57         71.4024
845.98        70.96777
846.38        71.01916
846.79        71.44031
847.19        72.11391
847.60        72.67429
848.00        73.03547
848.41        73.22739
848.81        73.32864
849.22        73.38219
849.62        73.45865
850.03        73.47766
850.43        73.48586
850.84        73.48934
851.24        73.53887
851.65        73.57734
852.05        73.64294
852.46        73.67249
852.86        73.65773
853.27        73.64154
853.67        73.53796
854.07        73.34363
854.48        73.04229
854.88        72.67712
855.29        72.29029
855.69        72.10521
856.10         72.0976
856.50        72.30098
856.90        72.60197
857.31        72.81908
857.71        72.96053
858.12        73.00605
858.52         73.0234
858.92        73.01623
859.33        72.98034
859.73        72.92904
860.13        72.88358
860.54        72.90741
860.94        73.05957
861.34        73.28228
861.75        73.44187
862.15        73.41158
862.55         73.1339
862.96        72.70705
863.36        72.23695
863.76        71.87703
864.17        71.68418
864.57        71.61484
864.97        71.72499
865.38        72.08525
865.78        72.71432
866.18        73.51938
866.58        74.21608
866.99        74.30288
867.39        73.71009
867.79        72.57506
868.19        71.17548
868.60        69.94617
869.00        69.01819
869.40        68.33694
869.80        68.00562
870.21        68.15208
870.61        68.79446
871.01        69.84082
871.41        70.92731
871.81        71.46384
872.22        71.35041
872.62        70.75758
873.02        69.95338
873.42        69.61559
873.82        69.70555
874.22        69.52782
874.63        69.28682
875.03        69.47385
875.43        70.09408
875.83        71.97023
876.23        72.08793
876.63        71.61199
877.03        70.00592
877.44        67.37219
877.84        130.6612
878.24        66.92115
878.64        68.34341
879.04        72.49434
879.44        69.45589
879.84        67.74129
880.24        71.98328
880.64        72.05077
881.04        69.01678
881.44         67.1488
881.84        67.15398
882.24        68.31462
882.65        69.95571
883.05        70.77671
883.45        70.36022
883.85         69.4192
884.25        68.50577
884.65        68.16859
885.05        68.57375
885.45        69.50371
885.85        70.56262
886.25        71.12153
886.65        70.99534
887.05        70.39265
887.45        69.65954
887.85        69.30113
888.25        69.45143
888.65        69.96646
889.04        70.60617
889.44        70.88704
889.84        70.71484
890.24        70.24157
890.64        69.73738
891.04        69.59898
891.44        69.88302
891.84        70.41117
892.24        70.93713
892.64        71.04807
893.04        70.65916
893.44        69.99953
893.83        69.18566
894.23        68.40298
894.63        67.71888
895.03        67.05306
895.43        66.62195
895.83        66.79308
896.23        67.58298
896.63        68.88657
897.02        70.20479
897.42        70.61812
897.82        69.94656
898.22        68.49452
898.62        66.84983
899.01        65.92262
899.41        65.96574
899.81        66.65875
900.21        67.70509
900.61        68.65382
901.00        69.32708
901.40        69.84184
901.80        70.18326
902.20        70.30054
902.59        70.21209
902.99        69.89207
903.39        69.42785
903.79        68.99661
904.18        68.66629
904.58        68.47015
904.98        68.42783
905.38        68.55522
905.77        68.82933
906.17        69.24146
906.57        69.68481
906.96        70.01942
907.36        70.14851
907.76         70.0723
908.15        69.87747
908.55        69.66598
908.95        69.49691
909.34        69.39576
909.74        69.22337
910.14        68.73811
910.53        67.92921
910.93         66.9489
911.33        66.19601
911.72        66.29871
912.12        67.29474
912.52        68.89237
912.91        70.54959
913.31        71.34692
913.70        71.12424
914.10        70.12956
914.49        68.68965
914.89         67.5772
915.29        67.10815
915.68        67.06863
916.08        67.38448
916.47        67.92635
916.87        68.56479
917.26        69.33775
917.66        70.02734
918.05        70.29749
918.45        70.06303
918.84        69.46165
919.24        68.63106
919.64        67.83743
920.03        67.21069
920.42        66.69985
920.82        66.50404
921.21        66.87585
921.61        67.75013
922.00        69.07376
922.40        70.33363
922.79        70.92136
923.19        70.68474
923.58        69.59676
923.98        67.96017
924.37        67.07349
924.77        67.45998
925.16        65.37405
925.55        67.04424
925.95         67.2376
926.34        67.75337
926.74        68.40498
927.13        69.14693
927.52         69.7168
927.92        70.01822
928.31        70.17014
928.70        70.11691
929.10        69.83863
929.49        69.38214
929.89        68.76163
930.28        68.24286
930.67        68.23825
931.07        68.78286
931.46        69.81107
931.85        70.89954
932.24        71.41088
932.64         71.1981
933.03        70.34801
933.42        69.23429
933.82        68.64496
934.21        68.77829
934.60        69.39756
934.99        69.91297
935.39        69.79607
935.78        68.97749
936.17        67.10184
936.56        64.41161
936.96        65.17188
937.35        64.32148
937.74        65.84666
938.13        67.44414
938.53        68.51811
938.92        68.98492
939.31        69.06562
939.70         68.9589
940.09        68.86979
940.49        68.91264
940.88        69.03333
941.27        69.18697
941.66        69.35777
942.05        69.53084
942.44        69.69637
942.84        69.94473
943.23        70.43227
943.62        71.13709
944.01        72.02802
944.40        72.76569
944.79         72.8162
945.18        72.07935
945.57        70.66161
945.97        69.13749
946.36        68.51918
946.75        69.12116
947.14        70.57368
947.53        72.14371
947.92        72.82287
948.31        72.42435
948.70        71.27667
949.09        69.82507
949.48        68.84588
949.87        68.60321
950.26        68.84599
950.65        69.32692
951.04        69.64433
951.43         69.6524
951.82        69.51231
952.21        69.28483
952.60        69.03894
952.99        68.81575
953.38        68.55594
953.77        68.31382
954.16        68.20145
954.55        68.23341
954.94        68.40574
955.33        68.61391
955.72        68.66285
956.11        68.52298
956.50        68.26135
956.89         68.0229
957.28        68.08122
957.66        68.50433
958.05        69.08073
958.44        69.69081
958.83        70.19278
959.22        70.52778
959.61        70.74541
960.00        70.70354
960.39        70.16267
960.78        69.14026
961.16        67.74168
961.55        66.37599
961.94         65.5325
962.33         65.3326
962.72         65.6665
963.11        66.28005
963.49        66.72682
963.88        66.76723
964.27        66.53565
964.66        66.20522
965.04        66.07581
965.43        66.22023
965.82        66.55244
966.21        66.87757
966.60        66.90154
966.98        66.58456
967.37        66.00429
967.76        65.48368
968.15        65.50673
968.53        66.17016
968.92         67.2365
969.31        68.32385
969.69        68.79134
970.08        68.42754
970.47        67.48343
970.86        66.26543
971.24        65.24782
971.63        64.66473
972.02        64.39439
972.40        64.39645
972.79        64.61771
973.17        65.01807
973.56        65.53458
973.95        66.13145
974.33        66.70888
974.72        67.09261
975.11        67.28277
975.49        67.18569
975.88        66.67465
976.26        65.79567
976.65        64.68242
977.04        63.52744
977.42        62.66759
977.81        62.23812
978.19        62.12039
978.58        62.37392
978.96        63.09274
979.35        64.14763
979.74        65.59686
980.12        66.96808
980.51        67.18707
980.89        66.20735
981.28        64.31825
981.66        62.44247
982.05        61.87678
982.43        62.78799
982.82         64.7532
983.20        67.08443
983.59        68.22402
983.97        67.78577
984.35        66.15855
984.74        64.07321
985.12        62.57555
985.51        61.99093
985.89        61.97813
986.28        62.29088
986.66         62.5277
987.04        62.44621
987.43        62.31762
987.81        62.01088
988.20        61.28266
988.58        60.02457
988.96         58.0545
989.35         55.7785
989.73        54.58908
990.12         55.1725
990.50        57.20864
990.88        59.42707
991.27         60.3515
991.65        59.98769
992.03        58.71161
992.42        57.42676
992.80        57.82266
993.18        60.27629
993.56        63.86042
993.95        67.43817
994.33          69.905
994.71        70.84591
995.10         70.7052
995.48        69.75127
995.86        68.26652
996.24         66.4427
996.63         64.1691
997.01        61.75002
997.39        60.20298
997.77        60.00013
998.15        60.87944
998.54         62.2873
998.92         63.5682
999.30        64.61481
999.68        65.69712
1000.06         66.3359
1000.45        65.34752
1000.83        62.79089
1001.21        59.42743
1001.59        56.63421
1001.97        55.39327
1002.35        55.51055
1002.73        56.69685
1003.12        58.38899
1003.50        59.28341
1003.88        58.69077
1004.26        57.09639
1004.64        55.05215
1005.02        53.28822
1005.40        52.06305
1005.78        51.11585
1006.16        50.78949
1006.54        51.73573
1006.92        53.67225
1007.30        55.96544
1007.69        57.85979
1008.07        58.81177
1008.45        58.69453
1008.83        57.66624
1009.21         55.1067
1009.59        50.37228
1009.97        44.06992
1010.35        37.14317
1010.73        32.81195
1011.11        33.98049
1011.49        39.93845
1011.86         49.4043
1012.24        58.05174
1012.62        61.46099
1013.00        59.37835
1013.38        53.44258
1013.76        46.25289
1014.14        42.42521
1014.52        43.33926
1014.90        47.56378
1015.28        52.94851
1015.66        55.91531
1016.04        55.19173
1016.41         51.6984
1016.79        46.40445
1017.17        42.09964
1017.55         40.4204
1017.93         40.4006
1018.31        41.26492
1018.69        42.32147
1019.06        43.30885
1019.44        44.35691
1019.82        45.26379
1020.20         45.2557
1020.58        44.02237
1020.95        41.69641
1021.33         38.5007
1021.71         33.9608
1022.09         27.0523
1022.46        14.54151
1022.84       -4.186655
1023.22       -12.46378
1023.60        1.212675
1023.97        18.92178
1024.35        29.37775
1024.73        33.16493
