SpectraSmart Spectrum 2.9.0.0
--------- Device Information -----------
Spectrum Name :  反射率_0
Saving Time :  2024/04/19 23:53:18
Spectro-Module Model Name : SE2030-DUVN
Spectro-Module Serial Number : OS361AC55029948
Wavelength Start : 200
Wavelength End : 1025
Wavelength Unit : Wavelength(nm)
Spectrum Unit : Reflectance(%)
-----------Spectrum Setting ------------
Integration Time : 30ms
Average : 10
Boxcar : 0
Background removal :  enabled
linearity correction :  enabled
SC :  disabled
Intensity correction :  disabled
DWT denoise :  enabled
savitzky-golay :  disabled
FFT :  disabled
Running average :  disabled
Kalman :  disabled
High pass :  disabled
---------------BEGIN--------------------
Wavelength(nm)             Reflectance(%)
200.29               0
200.75        56.33286
201.21        58.22969
201.67        62.58818
202.13        68.60408
202.58        75.50213
203.04        83.50489
203.50        90.54215
203.96        91.69123
204.42        87.13554
204.88        80.24722
205.34        73.87454
205.80        69.06218
206.26        64.88287
206.72        59.86748
207.18        53.81608
207.64        49.65981
208.10        50.76437
208.55        56.84377
209.01        62.66066
209.47        64.06616
209.93        61.50009
210.39        56.75063
210.85        51.99887
211.31        49.58587
211.77        49.81127
212.23        52.11495
212.69        56.01604
213.14        58.93004
213.60        58.85204
214.06        57.69398
214.52        56.70665
214.98        56.76892
215.44          57.798
215.90        59.08426
216.36        60.88019
216.81        63.43843
217.27        66.20676
217.73        69.21033
218.19        70.56339
218.65         67.5644
219.11        59.85914
219.57         47.6025
220.02        33.81382
220.48        26.72363
220.94        29.28554
221.40        39.97547
221.86        53.25544
222.32        60.42292
222.77        59.39148
223.23        53.01406
223.69         45.5368
224.15        43.02863
224.61         45.8377
225.06        50.89376
225.52        55.38659
225.98        57.08847
226.44        55.99084
226.90        53.15647
227.36        49.81965
227.81        48.00265
228.27        48.52834
228.73        50.35573
229.19        52.34116
229.65        53.21168
230.10        52.84728
230.56        51.86808
231.02        50.83978
231.48        50.43303
231.93        50.68011
232.39        51.31937
232.85        51.93402
233.31        51.95239
233.77        51.26458
234.22        50.07578
234.68         48.7905
235.14        47.99709
235.60        47.90054
236.05        48.34282
236.51        49.05489
236.97          49.628
237.43        49.97405
237.88        50.33648
238.34        50.74632
238.80        51.63004
239.26        52.99586
239.71        54.44469
240.17        55.57217
240.63        56.42938
241.08        57.10181
241.54        57.63561
242.00        57.52671
242.46        55.61848
242.91        51.21986
243.37        43.24809
243.83        32.34615
244.28        25.82424
244.74        30.90136
245.20        46.09762
245.66         61.2354
246.11        67.77939
246.57        65.23351
247.03        54.53516
247.48        38.12549
247.94        31.62705
248.40        38.55032
248.85        48.39594
249.31        56.02796
249.77        60.53868
250.22        62.91328
250.68         64.4423
251.14          65.332
251.59        65.31795
252.05        64.47366
252.51        62.75958
252.96        60.17208
253.42        57.38163
253.88        54.98949
254.33        53.20727
254.79        53.18455
255.25        55.57302
255.70         59.8026
256.16        64.97713
256.62        69.40887
257.07        71.23567
257.53        70.59426
257.99         68.1227
258.44        64.80581
258.90        62.67685
259.35        61.52732
259.81        61.23857
260.27        60.75172
260.72        59.14837
261.18        56.78038
261.63        53.69011
262.09        51.04372
262.55        49.93575
263.00        50.29856
263.46        51.66185
263.91        52.80367
264.37        52.57553
264.83        50.96006
265.28         48.4323
265.74        46.13955
266.19         45.2255
266.65         45.8443
267.11        47.35383
267.56         48.9063
268.02        49.30772
268.47        48.34436
268.93        46.44385
269.38         44.1372
269.84        42.51377
270.30        41.86489
270.75        41.87125
271.21        42.10463
271.66        41.91888
272.12        41.14317
272.57        40.00312
273.03        38.80817
273.48        37.92729
273.94        37.50316
274.39        37.35264
274.85        37.27225
275.31        36.94679
275.76        36.29105
276.22        35.43182
276.67        34.54681
277.13        34.00433
277.58         33.7943
278.04         33.8234
278.49        33.77272
278.95        33.26947
279.40        32.24819
279.86        30.95905
280.31        29.65387
280.77        28.82339
281.22        28.48259
281.68        28.49128
282.13        28.61885
282.59        28.56649
283.04        28.25027
283.50        27.81319
283.95         27.3195
284.41        26.89684
284.86        26.56466
285.32        26.29296
285.77        26.09303
286.22        26.05929
286.68        26.17492
287.13        26.38152
287.59        26.56911
288.04        26.54657
288.50        26.30479
288.95        25.87855
289.41        25.39063
289.86        24.95797
290.32         24.6745
290.77        24.49935
291.22        24.44166
291.68        24.47602
292.13        24.59251
292.59        24.81565
293.04        25.13928
293.50        25.56519
293.95        26.06935
294.40         26.6198
294.86        27.18982
295.31         27.7555
295.77        28.30605
296.22        28.84881
296.68        29.35481
297.13        29.75886
297.58        30.06984
298.04        30.31578
298.49        30.59164
298.95        31.08224
299.40         31.7972
299.85        32.67342
300.31        33.56782
300.76        34.25508
301.21        34.68574
301.67         34.9563
302.12        35.13757
302.58        35.39732
303.03        35.75336
303.48        36.16574
303.94        36.63452
304.39        37.12213
304.84        37.61475
305.30        38.11506
305.75        38.55202
306.20        38.83703
306.66        38.97918
307.11        38.99191
307.57        38.95809
308.02        38.93192
308.47        38.95884
308.93        39.01434
309.38        39.09845
309.83        39.25925
310.29        39.48108
310.74        39.74929
311.19        39.95335
311.65        39.91584
312.10           39.61
312.55        39.09533
313.00        38.53506
313.46        38.18256
313.91        38.07773
314.36        38.16018
314.82        38.29223
315.27        38.27045
315.72        38.03016
316.18        37.65586
316.63        37.23147
317.08        36.89017
317.53        36.66719
317.99        36.50624
318.44        36.37612
318.89        36.22202
319.35        36.02187
319.80        35.79605
320.25        35.54554
320.70        35.26835
321.16        34.96356
321.61        34.63488
322.06        34.28448
322.51        33.92474
322.97        33.55694
323.42        33.18762
323.87        32.82495
324.32        32.48525
324.78        32.16584
325.23         31.8755
325.68         31.5844
326.13        31.24597
326.59        30.85703
327.04        30.45944
327.49        30.09425
327.94        29.83085
328.39        29.68432
328.85        29.60992
329.30        29.61893
329.75        29.68212
330.20        29.76743
330.66        29.84847
331.11        29.87753
331.56        29.72816
332.01         29.3775
332.46        28.85513
332.92        28.25143
333.37        27.73597
333.82        27.37625
334.27         27.1626
334.72        27.04688
335.17        26.93322
335.63        26.78032
336.08        26.61323
336.53         26.4959
336.98         26.5414
337.43        26.75548
337.88        27.09371
338.34        27.36143
338.79        27.29715
339.24        26.83728
339.69        26.06231
340.14        25.25033
340.59        24.86926
341.05        25.01833
341.50        25.56474
341.95        26.20936
342.40        26.48473
342.85        26.28198
343.30        25.75729
343.75        25.12562
344.20        24.73721
344.66        24.68744
345.11        24.82866
345.56        25.05173
346.01        25.18832
346.46        25.17028
346.91        25.07043
347.36        24.86747
347.81        24.51106
348.26        24.02947
348.72        23.47235
349.17        22.93577
349.62        22.66317
350.07        22.71115
350.52        23.00079
350.97        23.42344
351.42        23.80986
351.87        24.09011
352.32        24.29156
352.77         24.3835
353.22        24.32602
353.67        24.12615
354.13         23.8053
354.58        23.42162
355.03        23.11105
355.48        22.91754
355.93        22.82996
356.38        22.80643
356.83        22.76835
357.28        22.68846
357.73        22.57641
358.18        22.47219
358.63         22.4405
359.08        22.48494
359.53        22.57864
359.98        22.62737
360.43        22.49205
360.88        22.16092
361.33        21.68937
361.78        21.21271
362.23        20.95181
362.68        20.95092
363.13        21.12414
363.58        21.35003
364.03        21.44118
364.48        21.33997
364.93        21.10605
365.38        20.76809
365.83        20.37925
366.28        19.98294
366.73        19.57107
367.18        19.20505
367.63        18.98163
368.08         18.9111
368.53        18.96764
368.98        19.07398
369.43        19.09952
369.88        19.01233
370.33        18.85122
370.78        18.65227
371.23        18.48523
371.68         18.3757
372.13        18.28849
372.58        18.24054
373.03        18.26403
373.48        18.34712
373.93        18.47819
374.38        18.57234
374.83        18.49613
375.28         18.2316
375.72        17.81426
376.17        17.37068
376.62         17.0671
377.07        16.95617
377.52          16.991
377.97        17.10308
378.42         17.1829
378.87        17.19063
379.32        17.15021
379.77         17.0896
380.22         17.0486
380.67        17.03473
381.11         17.0352
381.56        16.99887
382.01        16.86437
382.46        16.62812
382.91        16.31798
383.36        16.02287
383.81        15.87172
384.26        15.88614
384.71        16.02967
385.15        16.19576
385.60         16.2219
386.05        16.07475
386.50        15.80568
386.95        15.52185
387.40        15.39356
387.85        15.45383
388.29        15.63693
388.74        15.83968
389.19        15.91921
389.64        15.84377
390.09        15.65723
390.54        15.43157
390.98        15.27371
391.43         15.2283
391.88        15.24941
392.33        15.27547
392.78        15.21994
393.23        15.07309
393.67        14.86199
394.12        14.66837
394.57        14.55029
395.02        14.51968
395.47        14.55222
395.91        14.60595
396.36        14.59328
396.81        14.50083
397.26        14.35346
397.71        14.20748
398.15        14.13277
398.60        14.15985
399.05        14.25453
399.50        14.35623
399.95         14.3797
400.39        14.30621
400.84        14.15649
401.29        13.99756
401.74        13.95288
402.18        14.05479
402.63        14.25342
403.08        14.44617
403.53         14.4692
403.97        14.29375
404.42        13.98798
404.87        13.66429
405.32        13.50665
405.76        13.55861
406.21        13.75511
406.66        14.00704
407.11        14.17543
407.55        14.21962
408.00        14.18548
408.45        14.10244
408.90         13.9857
409.34        13.87159
409.79         13.8152
410.24        13.80283
410.68        13.75672
411.13        13.67836
411.58        13.62744
412.03        13.59835
412.47        13.55939
412.92        13.50715
413.37         13.4414
413.81        13.40484
414.26        13.47642
414.71        13.65518
415.15         13.9217
415.60        14.15941
416.05        14.20235
416.49        14.01366
416.94        13.65339
417.39        13.25172
417.83        13.01981
418.28        13.01803
418.73        13.17688
419.17        13.39839
419.62        13.51472
420.07        13.48652
420.51        13.37034
420.96        13.22396
421.41        13.11803
421.85        13.07207
422.30        13.06581
422.74         13.0856
423.19        13.14082
423.64        13.21797
424.08        13.32415
424.53        13.41818
424.98        13.44919
425.42        13.40671
425.87        13.30755
426.31        13.17598
426.76        13.05983
427.21        12.96658
427.65        12.88026
428.10          12.825
428.54        12.81772
428.99        12.86111
429.44        13.00679
429.88        13.16946
430.33        13.12446
430.77        12.91223
431.22         12.7959
431.66         12.8173
432.11        12.89435
432.56        13.01048
433.00        13.22367
433.45         13.3961
433.89        13.33094
434.34        13.11475
434.78        12.88175
435.23        12.63507
435.67        13.23362
436.12        12.82887
436.57        12.79656
437.01        12.63022
437.46        12.55128
437.90        12.56597
438.35        12.56989
438.79        12.55337
439.24        12.55808
439.68        12.58078
440.13        12.50667
440.57        12.38264
441.02         12.4871
441.46        12.69436
441.91        12.62761
442.35        12.03296
442.80        11.80756
443.24        11.83173
443.69        11.83141
444.13        11.76643
444.58           11.71
445.02        11.65831
445.47        11.62672
445.91        11.61027
446.36        11.57385
446.80        11.51223
447.24        11.44737
447.69        11.39211
448.13        11.33878
448.58        11.29671
449.02        11.26918
449.47        11.24992
449.91        11.22305
450.36        11.19099
450.80        11.15248
451.25        11.13443
451.69        11.16571
452.13        11.24967
452.58        11.36415
453.02        11.47328
453.47        11.51902
453.91        11.49162
454.36        11.40999
454.80        11.29786
455.24        11.19854
455.69         11.1353
456.13        11.08455
456.58        11.06221
457.02        11.08369
457.46        11.14416
457.91        11.21317
458.35        11.26668
458.79        11.29097
459.24        11.27946
459.68        11.23576
460.13         11.2179
460.57        11.20694
461.01        11.20128
461.46        11.49126
461.90        11.60841
462.34        11.51774
462.79        11.59514
463.23        11.46439
463.68        11.33283
464.12        11.23253
464.56        11.27413
465.01         11.3602
465.45        11.45317
465.89        11.50756
466.34        11.51563
466.78        11.45805
467.22        11.37242
467.67        11.40001
468.11        11.51709
468.55        11.49458
468.99        11.36153
469.44        11.35024
469.88        11.47157
470.32        11.59936
470.77        11.68741
471.21        11.72525
471.65        11.70056
472.10        11.62062
472.54        11.52351
472.98        11.50016
473.42        11.56667
473.87        11.66198
474.31        11.75466
474.75        11.86538
475.20        11.95764
475.64        11.91736
476.08        11.79838
476.52        11.78788
476.97        11.89969
477.41        12.04927
477.85         12.1832
478.29        12.25135
478.74        12.23904
479.18        12.14348
479.62         12.0303
480.06        12.00549
480.50        12.07239
480.95        12.13928
481.39        12.17605
481.83        12.19675
482.27        12.19649
482.72        12.17308
483.16        12.14008
483.60        12.14105
484.04        12.18753
484.48         12.2728
484.93        12.44561
485.37        12.64196
485.81        12.88189
486.25        13.27553
486.69        13.34977
487.14        12.98799
487.58        13.37188
488.02        13.98745
488.46        13.43474
488.90        13.40858
489.34        13.47602
489.79        13.63094
490.23        13.81261
490.67        13.98954
491.11        14.11361
491.55        14.07656
491.99         13.9213
492.43        13.84416
492.88        13.87723
493.32        13.89613
493.76        13.92104
494.20        14.04377
494.64        14.26594
495.08        14.55134
495.52        14.85032
495.96        15.09704
496.41        15.27107
496.85        15.36173
497.29        15.39663
497.73        15.49684
498.17        15.65495
498.61        15.70197
499.05        15.66656
499.49        15.75497
499.93        15.98227
500.37        16.20312
500.82        16.39061
501.26        16.63805
501.70         16.8922
502.14        16.93778
502.58        16.81784
503.02        16.79511
503.46        16.89478
503.90        16.98407
504.34        17.03842
504.78        17.07559
505.22        17.09051
505.66         17.0878
506.10        17.08766
506.54        17.11704
506.98        17.18494
507.42        17.28605
507.86        17.40722
508.30        17.52681
508.74        17.63399
509.18         17.7265
509.62          17.814
510.06        17.91283
510.50        18.02516
510.94        18.14922
511.38        18.25144
511.82        18.27873
512.26        18.22562
512.70        18.10935
513.14        17.99641
513.58         17.9882
514.02        18.09725
514.46        18.29316
514.90        18.50047
515.34        18.54143
515.78        18.41097
516.22        18.23716
516.66        18.11245
517.10        17.83044
517.54        17.41776
517.98        18.02884
518.42        17.91817
518.86        18.18598
519.30        18.29205
519.74        18.41228
520.18        18.50874
520.62        18.49769
521.06        18.39362
521.50        18.20468
521.93        17.99402
522.37        17.87508
522.81        17.87296
523.25        17.95679
523.69        18.07509
524.13        18.14509
524.57        18.14062
525.01        18.08321
525.45        17.99724
525.89        17.92138
526.32        17.86744
526.76        17.82441
527.20        17.77293
527.64        17.68874
528.08        17.56823
528.52        17.42117
528.96        17.28022
529.40        17.19062
529.83        17.15987
530.27        17.17975
530.71        17.20122
531.15        17.14785
531.59        17.00916
532.03        16.81172
532.46         16.6198
532.90        16.54955
533.34        16.61348
533.78        16.76762
534.22        16.94068
534.66        17.02394
535.09        16.98673
535.53        16.87083
535.97        16.71334
536.41        16.57113
536.85        16.46805
537.28         16.3957
537.72        16.36312
538.16         16.3329
538.60        16.38289
539.04        16.44676
539.47        16.52186
539.91        16.60742
540.35        16.70704
540.79        16.67463
541.22        16.74791
541.66        16.84395
542.10        17.04473
542.54        17.06136
542.97        17.31139
543.41        17.42689
543.85        17.52149
544.29        17.56918
544.72        17.58508
545.16        17.64255
545.60        17.74902
546.04         17.8306
546.47        17.91817
546.91        18.17368
547.35        18.54043
547.79         18.7906
548.22        18.90288
548.66        18.97118
549.10        19.03655
549.53        19.22054
549.97        19.52663
550.41        19.60272
550.84        19.80503
551.28        19.94187
551.72        20.13556
552.15        20.33849
552.59        20.54906
553.03         20.7691
553.46         20.9652
553.90        21.10372
554.34        21.17899
554.77        21.20967
555.21         21.2351
555.65        21.27274
556.08        21.38533
556.52        21.51658
556.96        21.66144
557.39         21.8142
557.83        21.95827
558.27        22.04118
558.70        22.07821
559.14        22.13904
559.57        22.22245
560.01        22.32016
560.45        22.40322
560.88        22.39925
561.32        22.35322
561.75        22.33811
562.19        22.44878
562.63        22.51198
563.06        22.55082
563.50        22.62182
563.93        22.71916
564.37        22.87441
564.80        22.97626
565.24        23.11623
565.68        23.23865
566.11        23.33798
566.55        23.42828
566.98        23.46666
567.42        23.46194
567.85          23.725
568.29        23.65204
568.72        23.95907
569.16        24.37916
569.60        24.66233
570.03        24.77385
570.47        24.84631
570.90        24.79427
571.34        25.14681
571.77        25.11408
572.21        25.34921
572.64        25.61215
573.08        25.78143
573.51        25.95841
573.95        26.34585
574.38         26.3604
574.82        26.53437
575.25        26.64618
575.69        26.65316
576.12         26.6072
576.56        26.55605
576.99         26.5199
577.42        26.77953
577.86         26.5911
578.29        26.65069
578.73        27.14379
579.16        26.92927
579.60        26.61414
580.03        26.50416
580.47        26.58208
580.90        26.42814
581.33        26.42402
581.77         26.4619
582.20        26.49457
582.64        26.20044
583.07        25.78431
583.51         25.8361
583.94        25.54336
584.37        25.45638
584.81        25.13967
585.24        25.04312
585.68        25.08911
586.11        24.84822
586.54        24.63737
586.98        24.57846
587.41        24.75971
587.85        24.83531
588.28        24.73231
588.71        24.60658
589.15        24.52346
589.58        24.07965
590.01         24.2009
590.45        24.35128
590.88         24.2028
591.31        24.16058
591.75        24.08675
592.18        23.95632
592.61        24.00601
593.05        24.28864
593.48        24.20978
593.91        24.72013
594.35        24.63838
594.78        24.49103
595.21        24.85485
595.65        25.06753
596.08        24.96603
596.51        25.00193
596.94         25.1029
597.38        25.25664
597.81        25.51206
598.24        25.63236
598.68        26.30479
599.11        26.44572
599.54        27.16481
599.97        27.02518
600.41        27.39482
600.84        28.01823
601.27        28.42331
601.70        28.83767
602.14        29.03564
602.57        29.49828
603.00         30.1795
603.43        30.56152
603.87         30.6976
604.30        31.15163
604.73        31.91078
605.16        32.26249
605.60        32.67347
606.03        33.19124
606.46         33.8501
606.89        34.54631
607.32        34.97253
607.76        35.20726
608.19        35.58115
608.62        36.16539
609.05        36.27632
609.48        36.55925
609.92        36.83196
610.35        37.12144
610.78        37.93445
611.21        38.65027
611.64        38.69154
612.07        39.01708
612.50        39.50496
612.94        39.62431
613.37        40.13157
613.80        40.47078
614.23        40.83701
614.66        41.25441
615.09        41.44622
615.52        41.86475
615.96         42.3639
616.39        42.71503
616.82        42.92726
617.25        43.13065
617.68        43.48403
618.11        43.79327
618.54        44.01999
618.97        44.16902
619.40        44.31175
619.84        44.01926
620.27        44.17253
620.70        44.57659
621.13        45.32308
621.56        45.59099
621.99        45.47402
622.42        45.57251
622.85        45.93893
623.28        46.03564
623.71        45.84404
624.14        46.09453
624.57        46.06107
625.00        45.75964
625.43        46.08965
625.86        45.59528
626.29        45.67836
626.72        45.48151
627.15        45.34947
627.58        45.20376
628.01        45.01352
628.44        44.80204
628.87        44.56602
629.30        44.03547
629.73        43.83009
630.16        43.34052
630.59        43.11904
631.02         42.7887
631.45        42.44398
631.88        42.07079
632.31        41.65347
632.74        41.18165
633.17        40.65874
633.60        40.11457
634.03        39.56026
634.46        38.99413
634.89        38.42483
635.32        37.86362
635.75        37.31987
636.18        36.80362
636.61        36.31363
637.04        35.83987
637.47        35.37635
637.89        34.92233
638.32        34.48341
638.75         34.0906
639.18        33.75112
639.61          33.463
640.04         33.1891
640.47        32.86714
640.90         32.4889
641.33        32.07518
641.76        31.68968
642.18        31.43944
642.61        31.34109
643.04        31.36156
643.47        31.43393
643.90        31.44639
644.33        31.37168
644.76         31.2514
645.18        31.12963
645.61        31.08141
646.04        31.13156
646.47        31.25202
646.90        31.44631
647.33         31.7215
647.75        32.06825
648.18        32.48283
648.61        32.91673
649.04        33.28979
649.47        33.59535
649.89        33.84882
650.32         34.1196
650.75         34.5631
651.18        35.20205
651.61        35.87117
652.03        36.54834
652.46        37.43364
652.89         38.4369
653.32        38.98558
653.74        39.15547
654.17        39.84896
654.60        40.44976
655.03        41.45639
655.46        41.79945
655.88         43.1583
656.31        44.27635
656.74        48.32431
657.16        47.71825
657.59         46.1017
658.02        46.31361
658.45        46.23774
658.87         47.5513
659.30        47.94253
659.73        48.84182
660.15        49.31148
660.58        49.73918
661.01        49.75925
661.44        49.62192
661.86        49.97063
662.29         50.7843
662.72         51.6012
663.14        52.25219
663.57         52.5234
664.00        52.51278
664.42        52.68893
664.85        53.10996
665.27        53.46724
665.70        53.74545
666.13        53.92854
666.55        54.33802
666.98        54.66399
667.41        54.98223
667.83        55.23814
668.26        55.40642
668.69        55.54811
669.11        55.69221
669.54        55.77187
669.96        55.78082
670.39        56.18831
670.82        56.18423
671.24        56.45727
671.67        56.74989
672.09        57.08186
672.52        57.40831
672.94        57.59917
673.37        57.65667
673.80        57.71299
674.22        57.84668
674.65        57.69412
675.07        57.98103
675.50        58.13465
675.92        58.32539
676.35         58.4322
676.77        58.45015
677.20        58.41717
677.62        58.36378
678.05        58.36327
678.47        58.42799
678.90          58.536
679.32        58.69416
679.75        58.89481
680.17        59.11795
680.60        59.42317
681.02        59.74984
681.45        59.78905
681.87        59.69713
682.30        59.72994
682.72        59.92006
683.15        59.98706
683.57        59.94681
684.00        59.89367
684.42        59.99687
684.85        60.15501
685.27        60.35925
685.70        60.64486
686.12        60.93201
686.54        61.13665
686.97        61.23214
687.39        61.23348
687.82        61.17564
688.24        61.18299
688.66        61.25891
689.09        61.29655
689.51        61.31329
689.94        61.38741
690.36        61.53905
690.78        61.68882
691.21        61.79806
691.63        61.97468
692.06        62.23297
692.48        62.06675
692.90        62.09917
693.33        62.43754
693.75        62.19831
694.17        62.32605
694.60        62.45734
695.02        62.28233
695.44        61.88393
695.87         61.9562
696.29        62.43031
696.71         62.4864
697.14        62.25486
697.56        62.52398
697.98        63.11876
698.41        63.94825
698.83         63.5288
699.25        63.38686
699.68         63.2206
700.10        63.13696
700.52        63.18394
700.94        63.33379
701.37        63.52452
701.79        63.69184
702.21        63.78347
702.64        63.81947
703.06        63.84002
703.48        63.91901
703.90        64.07433
704.33        64.27535
704.75        64.46063
705.17          64.505
705.59        64.38878
706.01        64.15423
706.44        63.92919
706.86        63.91514
707.28          64.145
707.70        64.54994
708.12        64.99265
708.55        65.25302
708.97        65.27712
709.39        65.13691
709.81        64.92716
710.23        64.81593
710.66        64.85821
711.08        65.00342
711.50        65.18596
711.92        65.32162
712.34        65.38648
712.76        65.41911
713.19        65.42283
713.61        65.45683
714.03        65.51211
714.45        65.57066
714.87         65.6508
715.29        65.78731
715.71        65.97897
716.13        66.21534
716.56         66.4296
716.98        66.58304
717.40         66.6304
717.82        66.58928
718.24        66.50641
718.66        66.46448
719.08        66.49161
719.50        66.55064
719.92         66.6067
720.34          66.651
720.76         66.6823
721.19        66.51562
721.61        66.53967
722.03        66.49188
722.45        66.50871
722.87        66.55953
723.29        66.64377
723.71        66.74468
724.13        66.85413
724.55        66.97849
724.97        67.12059
725.39        67.28565
725.81        67.46579
726.23        67.64478
726.65        67.80611
727.07        67.92979
727.49        68.01051
727.91        68.05704
728.33        68.06735
728.75        68.03918
729.17        67.98205
729.59        67.90423
730.01        67.84005
730.43         67.8402
730.85        67.91398
731.27        68.04613
731.69        68.19778
732.10         68.3179
732.52        68.38291
732.94        68.38625
733.36        68.33269
733.78        68.32802
734.20        68.41953
734.62        68.30509
735.04         68.2896
735.46        68.48293
735.88        68.41135
736.30        68.13177
736.72        68.25463
737.13        68.31989
737.55        68.49346
737.97        68.91416
738.39        69.39565
738.81        69.30565
739.23        68.79174
739.65        68.64127
740.06        68.77241
740.48        69.29543
740.90        69.00254
741.32        68.46847
741.74        68.64661
742.16        68.59919
742.57        68.73397
742.99        68.88714
743.41        69.00053
743.83        69.14961
744.25        69.34543
744.67        68.75565
745.08        68.93248
745.50         68.7706
745.92        68.75001
746.34        68.78743
746.75        68.86494
747.17        68.90644
747.59        68.88439
748.01        68.92381
748.42        68.99426
748.84        68.88997
749.26        68.71362
749.68         68.6937
750.09        68.86532
750.51         69.3048
750.93        69.79812
751.35        69.74445
751.76        69.25632
752.18          69.007
752.60        69.00554
753.01        69.39548
753.43        69.08601
753.85        69.11794
754.27        69.18289
754.68        69.26772
755.10        69.34463
755.52        69.40114
755.93        69.43864
756.35        69.45127
756.77        69.48398
757.18        69.59065
757.60        69.81766
758.02        70.07677
758.43        70.24049
758.85        70.26143
759.26        70.66691
759.68        69.47773
760.10        69.66267
760.51        69.36057
760.93        69.48222
761.34        69.32247
761.76        69.83168
762.18        69.72092
762.59        69.40689
763.01        69.12046
763.42        69.50778
763.84        69.81776
764.26         70.1291
764.67        70.14822
765.09         70.0278
765.50        70.33051
765.92        70.95483
766.33         71.2491
766.75        71.06915
767.16        70.64109
767.58        70.09268
768.00        69.73373
768.41        69.72128
768.83        69.97379
769.24        70.38677
769.66        70.86025
770.07        71.21735
770.49        71.15012
770.90        70.78808
771.32         70.7707
771.73        71.09423
772.15        71.16216
772.56        70.96233
772.97        70.83226
773.39        70.75373
773.80        70.60955
774.22        70.38608
774.63        70.10617
775.05        69.88374
775.46        69.94074
775.88        70.28506
776.29        70.88563
776.70        71.48913
777.12        71.70084
777.53        71.44331
777.95        70.80167
778.36        70.07848
778.77        69.78392
779.19        70.04269
779.60        70.75304
780.02        71.54638
780.43         72.0162
780.84        72.04631
781.26        71.33069
781.67        70.35313
782.09        70.90594
782.50        72.60015
782.91         72.8213
783.33        71.63033
783.74         71.3033
784.15        71.89706
784.57        72.10373
784.98        71.84346
785.39        71.54501
785.81        71.26436
786.22         71.0515
786.63        70.95988
787.04        70.94424
787.46        71.01693
787.87        71.24211
788.28        71.56099
788.70        71.81781
789.11        71.97196
789.52        72.00568
789.93        72.03934
790.35        72.06628
790.76        72.11375
791.17        72.03444
791.58        71.86349
792.00        71.74946
792.41        71.67628
792.82         71.6102
793.23        71.47771
793.65        71.02583
794.06        70.55001
794.47        70.74406
794.88         71.3693
795.29        72.71769
795.71        72.30279
796.12        72.32469
796.53        73.03558
796.94        72.74484
797.35        71.90273
797.76        71.50916
798.18        71.67712
798.59         71.8318
799.00        71.89934
799.41        72.08069
799.82        72.32031
800.23         72.5287
800.64        72.66368
801.06        72.61963
801.47         72.4958
801.88        72.47969
802.29        72.59293
802.70        72.74243
803.11         72.8532
803.52        72.79552
803.93        72.56152
804.34        72.29874
804.75        72.03976
805.17         71.7545
805.58        71.57774
805.99        71.52003
806.40        71.65143
806.81        72.42112
807.22        73.45954
807.63         73.5086
808.04        72.71178
808.45        72.24439
808.86        72.38889
809.27        73.08617
809.68        74.08298
810.09        74.56874
810.50        74.38576
810.91         74.0481
811.32        73.72427
811.73        73.38744
812.14        73.09995
812.55        72.99102
812.96        72.99786
813.37        72.73263
813.78        72.30193
814.19        72.35412
814.60        72.78752
815.01        72.93701
815.42        72.75861
815.83        72.58121
816.24        72.49773
816.65        72.51827
817.05        72.68185
817.46        72.94308
817.87        73.20503
818.28        73.27259
818.69        73.12009
819.10        72.80505
819.51        72.47813
819.92        72.45281
820.33        72.81012
820.74        73.31776
821.14        73.84704
821.55        74.45805
821.96         74.9466
822.37        74.71074
822.78        73.93375
823.19         73.5273
823.60         73.6153
824.00        73.75944
824.41        73.81437
824.82        73.83487
825.23        73.78061
825.64        73.66068
826.04        73.55263
826.45        73.52167
826.86        73.59637
827.27        73.75358
827.68        73.91924
828.08        73.99518
828.49        73.90097
828.90        73.69409
829.31        73.47161
829.72        73.40407
830.12        73.55015
830.53        73.81483
830.94        74.09626
831.35         74.2096
831.75        74.13789
832.16        73.90556
832.57        73.62069
832.97        73.44541
833.38        73.41293
833.79        73.46394
834.20         73.5723
834.60        73.69018
835.01        73.80895
835.42        73.96421
835.82        74.08644
836.23        73.99986
836.64        73.70721
837.04        73.24182
837.45         72.8035
837.86         72.7676
838.26        73.21675
838.67        74.01919
839.08        74.87216
839.48        75.20321
839.89        74.87086
840.29        74.09492
840.70         73.2623
841.11         72.8687
841.51        73.05102
841.92        73.58694
842.33         74.3576
842.73        75.15884
843.14        75.77261
843.54        76.32003
843.95        76.61632
844.35        76.44234
844.76        75.81287
845.17        74.82959
845.57        73.80644
845.98        73.25481
846.38        73.28694
846.79        73.76138
847.19         74.5256
847.60        75.13762
848.00         75.4895
848.41        75.64076
848.81        75.67744
849.22        75.65518
849.62        75.64954
850.03         75.5538
850.43        75.46309
850.84        75.46613
851.24        75.63914
851.65        75.92513
852.05        76.23361
852.46         76.3177
852.86         76.1459
853.27        75.72024
853.67        75.18704
854.07        75.11724
854.48        75.43755
854.88        75.58363
855.29        75.42673
855.69        75.36322
856.10        75.29966
856.50        75.05788
856.90        74.68427
857.31         74.4585
857.71        74.50776
858.12        74.68494
858.52        74.92683
858.92        75.02583
859.33        74.91827
859.73        74.70692
860.13         74.4832
860.54        74.42431
860.94        74.63818
861.34        75.00814
861.75        75.37918
862.15        75.60715
862.55         75.6011
862.96        75.44975
863.36        75.19261
863.76        74.86868
864.17        74.52028
864.57         74.1521
864.97        73.89151
865.38        73.92101
865.78        74.30004
866.18        74.90659
866.58        75.48347
866.99        75.56846
867.39        75.08678
867.79        74.16943
868.19        72.98364
868.60        71.78163
869.00        70.65551
869.40        69.58929
869.80        68.81778
870.21        68.70713
870.61        69.34663
871.01        70.58056
871.41        71.92249
871.81        72.58737
872.22        72.41944
872.62        71.64336
873.02        70.62493
873.42        70.18678
873.82        70.32854
874.22        70.32453
874.63        70.27121
875.03         70.4557
875.43        70.83704
875.83        72.31013
876.23        72.06335
876.63        71.44727
877.03        69.98563
877.44        67.74938
877.84        129.8803
878.24        67.99239
878.64         69.2925
879.04        73.08254
879.44         69.7523
879.84         67.7317
880.24        71.79613
880.64        71.75101
881.04         68.6182
881.44        66.70215
881.84         66.7155
882.24        67.93798
882.65        69.67685
883.05        70.58908
883.45        70.23519
883.85        69.32402
884.25        68.39028
884.65        67.96198
885.05        68.21711
885.45        68.96806
885.85        69.85107
886.25        70.29366
886.65        70.13717
887.05        69.56807
887.45          68.967
887.85        68.89094
888.25        69.46065
888.65        70.50768
889.04         71.6491
889.44         72.1544
889.84        71.86501
890.24        70.99522
890.64        69.99454
891.04         69.5321
891.44        69.73137
891.84        70.35269
892.24        71.01013
892.64        71.05489
893.04         70.3487
893.44        69.20502
893.83        67.91454
894.23         66.8917
894.63        66.24754
895.03        65.85123
895.43         65.7253
895.83         65.9229
896.23        66.39819
896.63        67.12744
897.02        67.90778
897.42         68.3293
897.82        68.29768
898.22        67.90932
898.62        67.34064
899.01        66.88374
899.41        66.66839
899.81        66.60652
900.21        66.69675
900.61        66.93481
901.00        67.28554
901.40          67.731
901.80        68.19618
902.20        68.52824
902.59        68.69125
902.99         68.7208
903.39         68.6244
903.79        68.42661
904.18        68.15685
904.58        67.84328
904.98         67.6363
905.38        67.77956
905.77        68.28332
906.17        69.07262
906.57        69.86234
906.96        70.22704
907.36        70.02767
907.76        69.37657
908.15        68.57253
908.55        68.04382
908.95         67.9312
909.34        68.16263
909.74        68.43991
910.14        68.23517
910.53        67.44367
910.93        66.31271
911.33        65.33479
911.72        65.28107
912.12        66.23634
912.52        67.85059
912.91        69.56474
913.31        70.44784
913.70        70.32285
914.10          69.444
914.49        68.11069
914.89        67.03115
915.29        66.50761
915.68        66.36023
916.08        66.52944
916.47        66.90782
916.87        67.38239
917.26        67.98242
917.66         68.5619
918.05        68.90116
918.45        68.92331
918.84        68.72714
919.24        68.30694
919.64        67.68865
920.03        66.95585
920.42         66.1408
920.82        65.58905
921.21        65.78537
921.61        66.71885
922.00        68.24833
922.40        69.79096
922.79        70.62366
923.19        70.53788
923.58        69.54254
923.98        67.89819
924.37        66.82926
924.77        66.88447
925.16        64.27155
925.55        65.51263
925.95        65.42291
926.34        65.92692
926.74        66.77419
927.13        67.83049
927.52        68.68943
927.92        69.20697
928.31        69.53503
928.70        69.62416
929.10        69.46169
929.49        69.09844
929.89        68.53768
930.28        68.03767
930.67        68.01765
931.07        68.51456
931.46        69.44836
931.85        70.44366
932.24        70.93524
932.64        70.77531
933.03        70.03452
933.42        68.96059
933.82        68.11253
934.21        67.68365
934.60        67.58703
934.99        67.42775
935.39        66.91479
935.78        66.03146
936.17         64.3078
936.56        61.97383
936.96         63.4158
937.35        63.12845
937.74        65.25795
938.13        67.33713
938.53        68.71202
938.92         69.3206
939.31          69.416
939.70        69.19947
940.09        68.91025
940.49        68.70768
940.88        68.53757
941.27        68.49313
941.66        68.74936
942.05        69.29356
942.44        70.05927
942.84        70.88873
943.23        71.50618
943.62        71.79309
944.01        71.85783
944.40        71.63395
944.79        71.03062
945.18        70.08573
945.57        68.79647
945.97         67.6204
946.36        67.31731
946.75        68.08817
947.14        69.64312
947.53         71.2636
947.92        71.95714
948.31        71.55489
948.70        70.35728
949.09        68.84626
949.48        67.88196
949.87        67.74809
950.26        68.17981
950.65        68.87739
951.04        69.34418
951.43        69.39911
951.82        69.21288
952.21         68.8894
952.60        68.57069
952.99        68.31718
953.38        68.05879
953.77        67.78564
954.16        67.50801
954.55        67.23534
954.94        67.00863
955.33        66.84871
955.72         66.7577
956.11        66.75872
956.50        66.87546
956.89         67.1206
957.28        67.50563
957.66         67.9993
958.05        68.44986
958.44        68.86978
958.83        69.30702
959.22        69.74774
959.61        70.19522
960.00        70.39743
960.39        69.92635
960.78        68.74683
961.16         67.0145
961.55        65.31071
961.94        64.37911
962.33        64.38575
962.72        65.15946
963.11        66.21153
963.49        66.68813
963.88        66.26939
964.27        65.23659
964.66        64.08886
965.04        63.65277
965.43        64.12734
965.82        65.24311
966.21        66.53481
966.60        67.26653
966.98         67.2456
967.37        66.67612
967.76        65.96559
968.15        65.73727
968.53        66.16048
968.92        66.94823
969.31        67.76751
969.69        68.07862
970.08        67.68432
970.47        66.81995
970.86        65.73478
971.24        64.78057
971.63        64.15865
972.02        63.79788
972.40        63.64033
972.79         63.6146
973.17        63.69433
973.56        63.79663
973.95        64.04018
974.33        64.59608
974.72        65.32134
975.11         66.1263
975.49        66.61707
975.88        66.19557
976.26        64.82385
976.65        62.79041
977.04        60.58413
977.42        59.05608
977.81        58.51236
978.19        58.69261
978.58        59.48587
978.96        60.67128
979.35        62.00787
979.74        63.66182
980.12        65.17477
980.51        65.49515
980.89        64.58698
981.28        62.67044
981.66        60.76213
982.05        60.31519
982.43        61.51139
982.82        63.91437
983.20        66.65026
983.59        67.80717
983.97        66.92378
984.35        64.50341
984.74        61.58839
985.12        59.71029
985.51        59.32233
985.89        59.96907
986.28         61.1506
986.66        61.88303
987.04        61.71184
987.43        61.11744
987.81        60.22615
988.20        59.09324
988.58        57.67919
988.96        55.70048
989.35        53.56983
989.73        52.65309
990.12        53.55253
990.50        55.90182
990.88        58.35242
991.27        59.35558
991.65        58.91536
992.03        57.42061
992.42        55.75138
992.80        55.59452
993.18        57.43439
993.56        60.44316
993.95        63.62457
994.33        66.05493
994.71        67.31656
995.10        67.74681
995.48        67.54112
995.86        66.89138
996.24        65.92972
996.63        64.57597
997.01        62.89577
997.39        61.36103
997.77        60.33967
998.15        59.87177
998.54        59.89876
998.92        60.24366
999.30        60.83633
999.68         61.8187
1000.06        62.83026
1000.45        62.75181
1000.83        61.33976
1001.21        59.11615
1001.59        57.08574
1001.97        56.00398
1002.35        55.76224
1002.73        56.11555
1003.12        56.69442
1003.50        56.80988
1003.88        56.11234
1004.26        54.92441
1004.64        53.62012
1005.02        52.65469
1005.40        52.16022
1005.78          51.965
1006.16        52.14472
1006.54        52.82581
1006.92        53.75523
1007.30        54.63924
1007.69        55.15398
1008.07        55.13982
1008.45        54.43849
1008.83         53.0521
1009.21        50.41968
1009.59        46.01938
1009.97        40.52682
1010.35        34.95208
1010.73        31.87746
1011.11        33.46838
1011.49        39.02961
1011.86        47.42804
1012.24        55.09341
1012.62        58.61715
1013.00        57.76189
1013.38        53.82349
1013.76        48.62404
1014.14        45.37484
1014.52        45.10244
1014.90        46.83434
1015.28        49.28128
1015.66        50.26667
1016.04        48.99531
1016.41        46.10245
1016.79        42.29076
1017.17        39.36999
1017.55        38.42866
1017.93        38.83422
1018.31        39.86619
1018.69        40.93984
1019.06        41.82983
1019.44        42.39553
1019.82        42.72778
1020.20        42.79105
1020.58        42.46939
1020.95        41.85816
1021.33        40.07173
1021.71        34.82256
1022.09        24.06641
1022.46         2.52775
1022.84       -31.40356
1023.22       -46.37879
1023.60       -20.72246
1023.97         11.9841
1024.35        31.93041
1024.73        40.28246
