SpectraSmart Spectrum 2.9.0.0
--------- Device Information -----------
Spectrum Name :  反射率_0
Saving Time :  2024/04/20 00:58:43
Spectro-Module Model Name : SE2030-DUVN
Spectro-Module Serial Number : OS361AC55029948
Wavelength Start : 200
Wavelength End : 1025
Wavelength Unit : Wavelength(nm)
Spectrum Unit : Reflectance(%)
-----------Spectrum Setting ------------
Integration Time : 30ms
Average : 10
Boxcar : 0
Background removal :  enabled
linearity correction :  enabled
SC :  disabled
Intensity correction :  disabled
DWT denoise :  enabled
savitzky-golay :  disabled
FFT :  disabled
Running average :  disabled
Kalman :  disabled
High pass :  disabled
---------------BEGIN--------------------
Wavelength(nm)             Reflectance(%)
200.29               0
200.75        52.85887
201.21        50.69928
201.67        50.01781
202.13        52.39228
202.58        58.50838
203.04         68.5697
203.50         79.6412
203.96        83.63982
204.42        79.28431
204.88        71.27715
205.34        63.34699
205.80        56.80842
206.26        50.54401
206.72        42.53051
207.18        32.12762
207.64        23.73668
208.10        23.28213
208.55        30.46094
209.01        39.48286
209.47        45.44376
209.93        47.97641
210.39        48.49239
210.85        47.67885
211.31        46.24257
211.77        44.31652
212.23        41.32757
212.69        37.59986
213.14        35.74142
213.60        36.68739
214.06        39.55717
214.52        42.62947
214.98        45.07874
215.44        47.11658
215.90        48.87751
216.36        50.83584
216.81        53.49356
217.27        56.44501
217.73        59.37434
218.19        60.67918
218.65         58.2284
219.11        51.70168
219.57        41.17633
220.02        28.97795
220.48        21.80809
220.94        22.11429
221.40        28.98538
221.86        37.97199
222.32        41.94883
222.77        39.32865
223.23         32.4523
223.69        25.53477
224.15        24.48484
224.61        29.07498
225.06        35.97233
225.52        41.67101
225.98        43.37295
226.44         41.1613
226.90         36.3745
227.36        30.76098
227.81        27.42259
228.27        27.59797
228.73        29.91412
229.19        32.92453
229.65        34.96872
230.10         35.7723
230.56        35.93809
231.02        35.93978
231.48        36.31014
231.93         37.0781
232.39        37.95308
232.85        38.63227
233.31        38.71466
233.77        38.12752
234.22        37.06733
234.68        35.77838
235.14         34.5634
235.60        33.62673
236.05         32.9573
236.51        32.63001
236.97        32.71352
237.43        33.26435
237.88        34.49353
238.34        36.34763
238.80        38.42525
239.26        40.12776
239.71        41.09814
240.17        41.36717
240.63        41.72987
241.08        42.49414
241.54        43.51809
242.00        44.04857
242.46        42.54101
242.91        38.09731
243.37        29.72169
243.83        18.23061
244.28        11.72252
244.74        18.12634
245.20        35.48937
245.66        52.30329
246.11        59.11247
246.57        55.33834
247.03        41.66395
247.48        21.29655
247.94        13.72926
248.40        22.89944
248.85         35.6653
249.31        45.12954
249.77         49.7943
250.22        50.95871
250.68         50.2577
251.14        48.38855
251.59        46.48053
252.05        45.61913
252.51        45.57304
252.96        45.76025
253.42        45.58549
253.88        44.91348
254.33        43.97936
254.79        44.35628
255.25        47.33557
255.70        52.34677
256.16        58.24183
256.62        62.76908
257.07        63.40323
257.53        60.54959
257.99         55.5005
258.44        50.22354
258.90         47.8029
259.35        47.75594
259.81        48.95046
260.27        49.81618
260.72        49.07372
261.18        47.06715
261.63        44.10827
262.09         41.3333
262.55        39.83558
263.00        39.65339
263.46        40.33478
263.91        40.91188
264.37         40.4448
264.83        38.92654
265.28         36.7614
265.74        34.85461
266.19        34.08011
266.65        34.54705
267.11        35.73196
267.56        37.01033
268.02        37.47087
268.47        36.94617
268.93        35.75069
269.38        34.19022
269.84        32.96832
270.30        32.27586
270.75        31.92989
271.21        31.72211
271.66        31.34564
272.12        30.70319
272.57        29.90961
273.03        29.14059
273.48        28.56977
273.94         28.2719
274.39        28.14938
274.85        28.04249
275.31        27.70869
275.76        27.09572
276.22        26.29899
276.67        25.50503
277.13        25.07802
277.58        25.01858
278.04         25.2293
278.49        25.40207
278.95        25.14808
279.40        24.40363
279.86        23.39566
280.31        22.37359
280.77        21.80658
281.22        21.71095
281.68         21.9355
282.13        22.25153
282.59        22.34763
283.04        22.14676
283.50        21.79314
283.95        21.36187
284.41        20.98289
284.86        20.68762
285.32        20.44219
285.77        20.27802
286.22        20.30839
286.68        20.51496
287.13        20.84114
287.59        21.14388
288.04        21.19753
288.50        20.98416
288.95        20.55116
289.41        20.05445
289.86        19.66904
290.32        19.49237
290.77        19.46182
291.22        19.53373
291.68        19.60714
292.13         19.6579
292.59        19.72601
293.04        19.85554
293.50           20.12
293.95        20.51665
294.40        20.99845
294.86         21.4853
295.31         21.8709
295.77        22.13138
296.22        22.30136
296.68        22.44009
297.13        22.61996
297.58        22.88173
298.04        23.21624
298.49        23.60651
298.95        24.05838
299.40        24.54782
299.85        25.06449
300.31        25.59209
300.76        26.10672
301.21        26.59117
301.67        27.06788
302.12        27.47775
302.58        27.78274
303.03        27.97299
303.48        28.08018
303.94        28.22632
304.39        28.56586
304.84        29.12035
305.30        29.81691
305.75        30.49226
306.20        30.91117
306.66         31.0429
307.11        30.96157
307.57        30.79309
308.02        30.66383
308.47         30.6446
308.93        30.68818
309.38         30.8018
309.83        31.03942
310.29        31.37811
310.74        31.80229
311.19        32.18316
311.65        32.31145
312.10        32.15061
312.55        31.76412
313.00        31.31021
313.46        31.03899
313.91        30.99808
314.36        31.13105
314.82        31.32431
315.27        31.41142
315.72        31.33153
316.18        31.14682
316.63        30.92089
317.08        30.75331
317.53        30.66683
317.99          30.616
318.44        30.55783
318.89        30.41905
319.35        30.18574
319.80        29.89366
320.25        29.58513
320.70        29.32319
321.16        29.12453
321.61        28.97192
322.06        28.84591
322.51        28.71874
322.97        28.56826
323.42        28.40175
323.87        28.20691
324.32        27.96888
324.78        27.68402
325.23        27.36913
325.68        27.02251
326.13         26.6494
326.59        26.26628
327.04        25.90062
327.49        25.59753
327.94        25.42689
328.39        25.39603
328.85        25.46428
329.30        25.59999
329.75        25.70356
330.20        25.73055
330.66         25.6793
331.11        25.55853
331.56        25.33946
332.01        25.02605
332.46        24.61844
332.92        24.18095
333.37        23.82861
333.82        23.60403
334.27        23.51157
334.72        23.48189
335.17        23.38366
335.63        23.17513
336.08        22.88628
336.53        22.63219
336.98        22.61407
337.43        22.86265
337.88        23.31494
338.34        23.73578
338.79        23.79084
339.24        23.39333
339.69        22.64091
340.14        21.83192
340.59        21.46939
341.05        21.65973
341.50        22.25217
341.95        22.92953
342.40        23.20065
342.85         22.9538
343.30        22.36043
343.75        21.65069
344.20        21.19734
344.66         21.1043
345.11        21.21607
345.56        21.42778
346.01        21.57575
346.46         21.5898
346.91        21.54552
347.36        21.39651
347.81        21.05337
348.26        20.54003
348.72        19.91458
349.17        19.31544
349.62        19.05961
350.07        19.21311
350.52        19.66579
350.97        20.24945
351.42        20.70687
351.87        20.95065
352.32        21.04036
352.77        20.98737
353.22        20.81818
353.67        20.56503
354.13        20.23279
354.58        19.86939
355.03        19.59357
355.48        19.43823
355.93        19.39246
356.38        19.41518
356.83        19.42609
357.28        19.39498
357.73        19.33294
358.18        19.25488
358.63        19.18799
359.08        19.13741
359.53        19.09232
359.98         19.0188
360.43        18.86918
360.88        18.64334
361.33        18.36318
361.78        18.09573
362.23        17.94841
362.68        17.93728
363.13        18.01658
363.58         18.1098
364.03        18.09966
364.48        17.95247
364.93        17.70405
365.38        17.38537
365.83        17.05304
366.28        16.74336
366.73        16.45222
367.18        16.20499
367.63        16.03834
368.08        15.95341
368.53        15.93806
368.98        15.96305
369.43        15.97687
369.88        15.96114
370.33        15.92724
370.78        15.86417
371.23         15.7605
371.68        15.62065
372.13        15.44261
372.58        15.27478
373.03         15.2009
373.48        15.23424
373.93        15.34877
374.38        15.47112
374.83        15.48647
375.28        15.36881
375.72        15.14137
376.17        14.88717
376.62            14.7
377.07        14.61131
377.52        14.59187
377.97         14.6029
378.42        14.58448
378.87         14.5199
379.32         14.4309
379.77        14.34276
380.22        14.28845
380.67        14.27491
381.11        14.29097
381.56        14.30165
382.01        14.26803
382.46        14.17576
382.91        14.02751
383.36        13.86512
383.81        13.74906
384.26        13.69381
384.71        13.69965
385.15        13.69199
385.60        13.55722
386.05        13.28676
386.50        12.91564
386.95        12.59165
387.40         12.5452
387.85        12.79878
388.29        13.25864
388.74        13.71609
389.19        13.88222
389.64        13.70792
390.09        13.28741
390.54        12.79516
390.98        12.50871
391.43        12.51187
391.88        12.69777
392.33          12.934
392.78        13.03074
393.23        12.95071
393.67        12.76128
394.12        12.56069
394.57        12.43236
395.02         12.3995
395.47        12.42583
395.91        12.47882
396.36        12.49472
396.81        12.45888
397.26        12.38654
397.71        12.31272
398.15        12.27501
398.60        12.29658
399.05        12.35858
399.50        12.40935
399.95        12.37541
400.39        12.24537
400.84        12.03826
401.29        11.83708
401.74        11.79368
402.18        11.94467
402.63        12.23037
403.08        12.52137
403.53        12.61299
403.97        12.46519
404.42        12.15457
404.87        11.80577
405.32        11.62486
405.76        11.66338
406.21        11.84951
406.66         12.0919
407.11        12.24805
407.55        12.27732
408.00        12.23123
408.45         12.1413
408.90        12.02873
409.34        11.92883
409.79        11.88288
410.24        11.88323
410.68        11.87201
411.13        11.84787
411.58        11.85794
412.03        11.88065
412.47        11.85868
412.92        11.78464
413.37        11.67273
413.81        11.57751
414.26        11.59498
414.71        11.73388
415.15        11.96945
415.60        12.20473
416.05        12.30326
416.49        12.22697
416.94        12.02396
417.39        11.77776
417.83        11.62545
418.28         11.6111
418.73        11.68629
419.17        11.79736
419.62        11.84784
420.07        11.81771
420.51        11.74177
420.96        11.65193
421.41         11.5791
421.85        11.53165
422.30        11.50407
422.74        11.49385
423.19        11.52237
423.64        11.58081
424.08        11.66951
424.53        11.74758
424.98        11.76463
425.42        11.71154
425.87        11.61011
426.31        11.48334
426.76        11.37568
427.21        11.29436
427.65        11.22108
428.10        11.18717
428.54        11.22242
428.99        11.32617
429.44        11.53697
429.88        11.75219
430.33        11.73115
430.77         11.5093
431.22        11.33727
431.66        11.28475
432.11        11.33329
432.56        11.48168
433.00        11.76577
433.45        12.03441
433.89        12.05058
434.34        11.86886
434.78        11.63164
435.23        11.35902
435.67        11.84175
436.12        11.43237
436.57        11.35411
437.01        11.16703
437.46        11.08874
437.90         11.1274
438.35        11.18934
438.79        11.23898
439.24        11.26912
439.68        11.26732
440.13        11.14053
440.57        10.96515
441.02        11.04009
441.46        11.26364
441.91        11.28468
442.35        10.83057
442.80        10.64949
443.24        10.62819
443.69        10.54061
444.13        10.38747
444.58        10.29255
445.02        10.26605
445.47        10.30166
445.91        10.36685
446.36         10.3858
446.80        10.33985
447.24        10.26312
447.69        10.18143
448.13        10.10832
448.58         10.0594
449.02        10.02982
449.47        10.01007
449.91        9.981251
450.36        9.944441
450.80        9.902474
451.25        9.882072
451.69        9.910749
452.13         9.99232
452.58        10.10517
453.02        10.21599
453.47        10.27014
453.91        10.25836
454.36        10.19734
454.80         10.1087
455.24        10.03247
455.69        9.988686
456.13        9.954243
456.58        9.941281
457.02        9.960983
457.46        10.00904
457.91        10.05947
458.35        10.09292
458.79        10.09902
459.24        10.07332
459.68        10.01829
460.13         9.98873
460.57        9.970352
461.01        9.963983
461.46        10.22884
461.90        10.34351
462.34        10.26708
462.79        10.33298
463.23        10.20468
463.68        10.08034
464.12        10.00943
464.56        10.09134
465.01        10.22969
465.45        10.36394
465.89        10.41588
466.34        10.37574
466.78        10.24023
467.22        10.07442
467.67        10.05405
468.11        10.17105
468.55        10.20827
468.99        10.16335
469.44        10.19881
469.88        10.31213
470.32        10.40295
470.77        10.44499
471.21        10.45333
471.65        10.42443
472.10        10.35741
472.54        10.27851
472.98        10.25949
473.42        10.31236
473.87        10.38671
474.31        10.46163
474.75        10.56382
475.20        10.66132
475.64        10.64773
476.08        10.56203
476.52        10.55877
476.97        10.64881
477.41        10.76307
477.85        10.86003
478.29        10.90584
478.74        10.89052
479.18        10.80498
479.62         10.7115
480.06        10.70996
480.50        10.80175
480.95        10.90626
481.39        10.97472
481.83        10.98442
482.27        10.92798
482.72        10.81698
483.16        10.70097
483.60        10.66859
484.04        10.73292
484.48        10.90089
484.93        11.17805
485.37        11.34762
485.81        11.40354
486.25        11.82521
486.69        11.89313
487.14         11.4923
487.58        11.41043
488.02        12.27316
488.46        11.85858
488.90        11.92513
489.34        11.75319
489.79        11.86486
490.23        12.20421
490.67         12.4191
491.11        12.47324
491.55        12.42215
491.99         12.3075
492.43        12.24148
492.88        12.25276
493.32         12.2456
493.76        12.24937
494.20        12.36448
494.64        12.59472
495.08        12.89829
495.52        13.21356
495.96         13.4565
496.41        13.60341
496.85        13.65384
497.29         13.6471
497.73        13.71475
498.17        13.85736
498.61        13.91755
499.05        13.91559
499.49        14.02559
499.93        14.25643
500.37        14.48201
500.82        14.67227
501.26        14.90225
501.70        15.12363
502.14        15.14467
502.58        15.01556
503.02         14.9906
503.46        15.09531
503.90        15.20479
504.34        15.28411
504.78        15.32736
505.22        15.32512
505.66        15.29052
506.10        15.25052
506.54        15.24331
506.98        15.28283
507.42        15.35959
507.86        15.46485
508.30        15.58433
508.74          15.706
509.18         15.8252
509.62        15.93806
510.06        16.03826
510.50        16.12452
510.94        16.20359
511.38        16.25631
511.82        16.25402
512.26        16.19875
512.70        16.09893
513.14        16.01639
513.58        16.04541
514.02        16.19203
514.46        16.42523
514.90        16.65851
515.34        16.69908
515.78        16.53396
516.22        16.30223
516.66         16.1095
517.10        15.76543
517.54        15.30513
517.98        15.91201
518.42        15.78987
518.86         16.0555
519.30        16.15234
519.74        16.26413
520.18        16.36137
520.62        16.37279
521.06        16.31256
521.50        16.17951
521.93        16.02016
522.37        15.92282
522.81        15.90721
523.25        15.95301
523.69        16.02147
524.13         16.0493
524.57        16.01913
525.01        15.94912
525.45        15.86695
525.89        15.81611
526.32        15.80557
526.76        15.81988
527.20        15.82954
527.64        15.79292
528.08        15.70094
528.52         15.5688
528.96        15.42827
529.40        15.32488
529.83         15.2708
530.27        15.25818
530.71         15.2558
531.15        15.21521
531.59        15.12848
532.03        15.01156
532.46        14.90282
532.90        14.87609
533.34          14.934
533.78        15.04566
534.22        15.15812
534.66         15.1921
535.09        15.12666
535.53        14.99486
535.97        14.83008
536.41        14.68255
536.85          14.575
537.28        14.50506
537.72        14.47819
538.16        14.45605
538.60        14.50431
539.04        14.55827
539.47        14.62578
539.91        14.72252
540.35        14.85153
540.79        14.87986
541.22        14.98582
541.66        15.04339
542.10         15.1216
542.54        14.98348
542.97        15.05576
543.41        15.10743
543.85        15.25471
544.29        15.44444
544.72        15.62555
545.16        15.76367
545.60        15.84277
546.04        15.82774
546.47         15.7935
546.91        15.96186
547.35        16.30361
547.79        16.58263
548.22        16.74917
548.66        16.85988
549.10        16.93091
549.53        17.04776
549.97         17.2363
550.41        17.25657
550.84        17.43603
551.28        17.57251
551.72        17.76303
552.15        17.96177
552.59        18.16195
553.03        18.36662
553.46         18.5511
553.90        18.69391
554.34        18.79108
554.77        18.84917
555.21        18.89205
555.65        18.94775
556.08         19.0223
556.52        19.10827
556.96        19.20002
557.39        19.31294
557.83        19.43691
558.27          19.522
558.70        19.56997
559.14        19.62126
559.57        19.67141
560.01        19.72104
560.45        19.76017
560.88        19.74578
561.32        19.72134
561.75        19.74982
562.19        19.89893
562.63        19.97206
563.06        19.99203
563.50         20.0569
563.93        20.16217
564.37        20.30085
564.80        20.37653
565.24         20.4934
565.68        20.60063
566.11        20.68538
566.55        20.76085
566.98        20.77722
567.42        20.75173
567.85         21.0042
568.29        20.98267
568.72        21.24845
569.16         21.5714
569.60        21.77622
570.03        21.82499
570.47        21.86647
570.90        21.84369
571.34        22.00901
571.77         21.8759
572.21        22.23378
572.64        22.35921
573.08        22.41433
573.51        22.60904
573.95        23.16001
574.38        23.21408
574.82        23.33702
575.25        23.29815
575.69        23.11886
576.12        23.06705
576.56        23.13171
576.99        23.37751
577.42        23.39569
577.86        23.21955
578.29         23.2936
578.73        23.66685
579.16         23.3679
579.60        23.02203
580.03        22.96246
580.47        23.27012
580.90        22.82718
581.33        22.79574
581.77        22.77711
582.20        23.15966
582.64        22.80322
583.07        22.48444
583.51        22.41704
583.94        22.08712
584.37        21.95727
584.81        21.76907
585.24        21.74832
585.68        21.82254
586.11        21.69072
586.54         21.5967
586.98         21.5046
587.41        21.49998
587.85        21.54022
588.28        21.57838
588.71         21.4276
589.15        21.14727
589.58        20.98552
590.01        21.22861
590.45        21.31288
590.88        21.29694
591.31        21.17242
591.75        20.97754
592.18        21.07544
592.61        20.97656
593.05        21.24747
593.48         21.2363
593.91        21.52907
594.35        21.33426
594.78        21.47325
595.21        21.77873
595.65        21.99639
596.08         21.7863
596.51        21.82036
596.94        22.00953
597.38        22.18633
597.81        22.38129
598.24        22.41151
598.68        22.75321
599.11        23.00896
599.54        23.63768
599.97        23.46394
600.41        23.83408
600.84        24.43285
601.27        24.57174
601.70        24.80802
602.14         24.8808
602.57        25.21925
603.00        25.78739
603.43        26.16439
603.87        26.34303
604.30        26.67784
604.73        27.20693
605.16        27.34587
605.60        27.78859
606.03        28.20034
606.46        28.68612
606.89        29.01744
607.32        29.32864
607.76        29.44786
608.19        29.71041
608.62        30.11426
609.05        30.36288
609.48        30.36619
609.92        30.60172
610.35        30.88682
610.78        31.51697
611.21        31.90479
611.64        31.77215
612.07        32.15382
612.50        32.32071
612.94        32.24794
613.37        32.75594
613.80        33.01647
614.23        33.28399
614.66        33.68833
615.09         33.8773
615.52        34.10565
615.96        34.24394
616.39        34.40812
616.82        34.65854
617.25        34.55434
617.68        34.90347
618.11         35.1851
618.54        35.49165
618.97        35.47621
619.40        35.18739
619.84        35.24389
620.27        35.17226
620.70        35.54977
621.13        36.06748
621.56         36.2776
621.99        36.27937
622.42        36.07144
622.85        36.41461
623.28        36.45925
623.71         36.4487
624.14        36.39987
624.57         36.3536
625.00        36.42919
625.43         36.4831
625.86         35.9218
626.29        36.04654
626.72         35.8797
627.15        35.85666
627.58        35.75168
628.01        35.49749
628.44        35.79795
628.87        35.45436
629.30        35.04123
629.73        35.02977
630.16        34.65053
630.59        34.50217
631.02        34.27288
631.45        34.06475
631.88        33.81321
632.31        33.50422
632.74        33.15564
633.17        32.77928
633.60        32.40561
634.03        32.04546
634.46        31.69479
634.89        31.34525
635.32        30.98162
635.75        30.60452
636.18        30.22618
636.61        29.86065
637.04         29.5249
637.47        29.21959
637.89        28.94012
638.32        28.67509
638.75         28.4127
639.18        28.15047
639.61        27.93159
640.04        27.68797
640.47        27.45287
640.90        27.20926
641.33        26.96344
641.76        26.74441
642.18        26.60375
642.61        26.54585
643.04        26.55499
643.47        26.59292
643.90        26.59491
644.33         26.5472
644.76        26.47471
645.18        26.40558
645.61        26.39141
646.04        26.44683
646.47        26.55207
646.90        26.71086
647.33         26.9289
647.75         27.2011
648.18        27.52597
648.61        27.86171
649.04        28.14481
649.47        28.37115
649.89        28.53616
650.32           28.71
650.75        29.07648
651.18        29.63864
651.61        30.17118
652.03        30.63844
652.46        31.28712
652.89        32.05788
653.32        32.36716
653.74         32.2737
654.17        32.95632
654.60        33.30015
655.03        34.04933
655.46        33.61524
655.88        35.14336
656.31        35.97326
656.74        40.79436
657.16         38.2147
657.59        35.35739
658.02        36.05291
658.45        36.85132
658.87        37.71377
659.30        37.98618
659.73        38.43518
660.15        39.04156
660.58        39.12198
661.01        39.12783
661.44        38.94022
661.86        39.09886
662.29        39.58765
662.72        40.13658
663.14        40.60586
663.57         40.6768
664.00        40.46473
664.42        40.50609
664.85        40.85173
665.27        41.16769
665.70        41.38456
666.13        41.51085
666.55        41.64189
666.98        41.68259
667.41        41.72468
667.83        41.76992
668.26        41.81634
668.69        42.19894
669.11        42.26776
669.54        42.41489
669.96        42.44993
670.39        42.41137
670.82        42.36899
671.24        42.44237
671.67        42.65765
672.09        42.96983
672.52        43.28658
672.94         43.4461
673.37        43.42936
673.80        43.30446
674.22        43.16023
674.65        43.10956
675.07        43.19578
675.50        43.37834
675.92        43.59524
676.35        43.71243
676.77         43.6994
677.20         43.6254
677.62        43.53878
678.05        43.46182
678.47        43.39817
678.90        43.55916
679.32        43.53571
679.75        43.64286
680.17        43.74347
680.60        43.91668
681.02        44.10788
681.45        44.06105
681.87         43.8546
682.30        43.86685
682.72        44.08596
683.15        44.16936
683.57        44.11732
684.00        44.03812
684.42        44.14083
684.85        44.22246
685.27        44.33789
685.70        44.49781
686.12        44.66396
686.54        44.80478
686.97        44.90496
687.39        44.91433
687.82         44.8582
688.24        44.94439
688.66        45.11622
689.09        45.03852
689.51        44.76107
689.94        44.63898
690.36        44.71176
690.78        44.76947
691.21        44.78755
691.63        44.88908
692.06         45.0793
692.48        45.10143
692.90        45.16036
693.33        45.48394
693.75        45.35804
694.17        45.40998
694.60         45.4121
695.02        45.37695
695.44        45.29525
695.87        45.26698
696.29        45.30095
696.71        45.19024
697.14        45.03542
697.56        45.27821
697.98        45.79504
698.41        46.03224
698.83        45.88199
699.25        45.69272
699.68        45.54502
700.10        45.47846
700.52        45.53634
700.94         45.7047
701.37        45.90634
701.79        46.05973
702.21        46.11232
702.64        46.09018
703.06        46.03914
703.48        46.03627
703.90        46.10292
704.33         46.2135
704.75        46.31383
705.17        46.30008
705.59        46.15817
706.01        45.92786
706.44        45.71788
706.86        45.69633
707.28        45.88751
707.70        46.23286
708.12        46.61646
708.55        46.82533
708.97        46.85933
709.39        46.74003
709.81        46.54751
710.23        46.39948
710.66        46.34318
711.08        46.34639
711.50         46.3862
711.92        46.43948
712.34        46.49518
712.76        46.57087
713.19        46.64482
713.61        46.71351
714.03        46.75512
714.45        46.76743
714.87        46.77573
715.29        46.82451
715.71        46.92062
716.13        47.05161
716.56        47.16901
716.98        47.24557
717.40         47.2498
717.82        47.19556
718.24        47.12313
718.66        47.09793
719.08        47.13653
719.50        47.21988
719.92        47.30671
720.34         47.3358
720.76        47.29439
721.19        47.18504
721.61        47.06045
722.03        47.02456
722.45        47.08997
722.87        47.13177
723.29        47.14149
723.71        47.18602
724.13         47.2612
724.55         47.3188
724.97        47.36848
725.39        47.45293
725.81        47.57133
726.23        47.70116
726.65        47.82046
727.07        47.89996
727.49        47.93073
727.91        47.92173
728.33        47.88375
728.75        47.83452
729.17        47.78637
729.59        47.74327
730.01        47.70851
730.43         47.6842
730.85        47.67266
731.27        47.67374
731.69        47.69752
732.10        47.76427
732.52         47.8646
732.94        47.98765
733.36        48.09944
733.78        48.14333
734.20        48.11231
734.62        48.03646
735.04        47.94542
735.46        47.88519
735.88        47.86811
736.30        47.87213
736.72        47.92204
737.13        48.04795
737.55        48.20135
737.97        48.46175
738.39        48.73741
738.81        48.66893
739.23        48.33402
739.65        48.29934
740.06        48.52034
740.48        48.53574
740.90        48.32883
741.32        48.11098
741.74        48.10621
742.16        48.12814
742.57        48.24234
742.99        48.43771
743.41        48.65657
743.83        48.78627
744.25        48.79593
744.67        48.70242
745.08        48.56004
745.50        48.45918
745.92        48.43027
746.34        48.41919
746.75        48.40873
747.17        48.39563
747.59         48.3796
748.01        48.36773
748.42        48.37185
748.84        48.42446
749.26        48.53822
749.68        48.59489
750.09        48.61564
750.51        48.85553
750.93        49.20543
751.35        49.16633
751.76        48.79444
752.18        48.61983
752.60        48.66737
753.01        48.64246
753.43        48.55626
753.85        48.56791
754.27        48.67677
754.68        48.92877
755.10        49.20722
755.52        49.14012
755.93          48.793
756.35        48.65691
756.77        48.78189
757.18        48.84828
757.60        48.87609
758.02          49.075
758.43        49.36081
758.85        49.43262
759.26        49.61345
759.68        49.25346
760.10        49.10295
760.51        48.99523
760.93        48.91899
761.34        48.56115
761.76        48.99621
762.18         48.7744
762.59        48.38563
763.01        48.43777
763.42        48.96591
763.84        49.41328
764.26        49.63504
764.67        49.55736
765.09        49.33228
765.50        49.38298
765.92         49.7113
766.33        49.93151
766.75        49.92205
767.16        49.78622
767.58        49.53001
768.00        49.22827
768.41        49.01184
768.83        49.02333
769.24        49.25485
769.66        49.58673
770.07        49.88473
770.49        49.97991
770.90        49.89292
771.32        49.85157
771.73        49.90167
772.15        49.88858
772.56        49.83843
772.97        49.87642
773.39        49.92423
773.80        49.87785
774.22        49.58465
774.63        49.21894
775.05        48.88331
775.46        48.80822
775.88        49.02112
776.29        49.47879
776.70        49.97814
777.12        50.18943
777.53        50.03838
777.95        49.60974
778.36        49.09753
778.77        48.83167
779.19        48.90304
779.60        49.24655
780.02        49.66504
780.43        49.97179
780.84        50.09393
781.26        49.81113
781.67        49.37179
782.09          49.812
782.50        50.85463
782.91        50.93795
783.33        50.10266
783.74        49.66674
784.15        49.76112
784.57        49.85108
784.98        49.86371
785.39        49.82847
785.81        49.70734
786.22        49.50902
786.63        49.30654
787.04        49.23259
787.46        49.30797
787.87        49.45866
788.28        49.65077
788.70        49.84795
789.11        50.01503
789.52        50.13964
789.93        50.22047
790.35        50.27429
790.76        50.29585
791.17        50.23972
791.58        50.10083
792.00        49.89957
792.41        49.66936
792.82        49.44261
793.23         49.2547
793.65        49.17349
794.06        49.28467
794.47        49.57119
794.88        49.83921
795.29        50.71053
795.71        50.27625
796.12         50.2606
796.53        50.15806
796.94        49.95897
797.35        49.72751
797.76        49.63001
798.18        49.67783
798.59        49.76019
799.00        49.86678
799.41        49.92152
799.82        50.19232
800.23        50.27354
800.64        50.23573
801.06        50.08489
801.47        49.93045
801.88        49.90042
802.29        50.01426
802.70        50.21362
803.11         50.4177
803.52        50.48304
803.93        50.38417
804.34        50.22559
804.75        50.02953
805.17        49.81057
805.58        49.67516
805.99        49.55004
806.40        49.50577
806.81        50.09744
807.22        51.01829
807.63         50.9307
808.04        49.99579
808.45        49.78489
808.86        50.39456
809.27        50.92786
809.68        51.21274
810.09        51.39158
810.50         51.3975
810.91        51.19493
811.32         50.8594
811.73        50.49444
812.14        50.14649
812.55        49.86826
812.96        49.68167
813.37        49.46147
813.78        49.28697
814.19        49.49858
814.60        49.96549
815.01        50.19962
815.42        50.14585
815.83        50.01208
816.24        49.88739
816.65        49.85107
817.05         49.9538
817.46        50.14034
817.87        50.32741
818.28        50.35447
818.69        50.19887
819.10        49.91853
819.51        49.63962
819.92        49.60112
820.33        49.86421
820.74        50.28674
821.14        50.76331
821.55        51.21984
821.96        51.54459
822.37        51.51743
822.78        51.20721
823.19        50.97945
823.60        50.89574
824.00         50.7788
824.41        50.62065
824.82        50.55255
825.23        50.58303
825.64        50.69016
826.04        50.83824
826.45        50.92149
826.86        50.92181
827.27         50.8616
827.68        50.75875
828.08        50.66113
828.49        50.55898
828.90        50.46412
829.31        50.39022
829.72        50.36378
830.12        50.40372
830.53        50.46545
830.94        50.55064
831.35        50.63668
831.75        50.72766
832.16        50.79482
832.57         50.8158
832.97        50.73181
833.38         50.5345
833.79        50.24656
834.20        49.96215
834.60        49.81899
835.01        49.86084
835.42        50.05605
835.82        50.30623
836.23        50.40124
836.64        50.30553
837.04        50.07409
837.45        49.82853
837.86        49.80177
838.26        50.04913
838.67        50.47355
839.08        50.92334
839.48        51.11502
839.89        50.97649
840.29        50.62812
840.70        50.23935
841.11        50.00939
841.51         50.0088
841.92        50.12579
842.33        50.37309
842.73        50.77738
843.14        51.23935
843.54        51.79254
843.95        52.22739
844.35        52.25635
844.76        51.84558
845.17        51.11189
845.57        50.32089
845.98        49.88949
846.38         49.9187
846.79        50.28765
847.19        50.87411
847.60         51.3567
848.00        51.64811
848.41        51.78699
848.81        51.84311
849.22         51.8495
849.62        51.85896
850.03        51.80553
850.43        51.72135
850.84         51.6422
851.24        51.60883
851.65        51.59492
852.05        51.60574
852.46         51.5449
852.86        51.40856
853.27        51.23838
853.67        51.04548
854.07        50.94095
854.48        50.92641
854.88        51.00179
855.29        51.07463
855.69        51.09053
856.10        50.97133
856.50        50.78097
856.90        50.59711
857.31        50.57557
857.71        50.80204
858.12        51.16509
858.52        51.53988
858.92        51.62693
859.33        51.36208
859.73        50.84286
860.13        50.23777
860.54        49.88469
860.94         49.9208
861.34        50.22561
861.75        50.61065
862.15          50.843
862.55        50.81906
862.96        50.67898
863.36        50.46266
863.76        50.23059
864.17        50.02651
864.57         49.8237
864.97        49.78245
865.38        50.15735
865.78        51.00284
866.18        52.17876
866.58        53.30516
866.99        53.70207
867.39         53.2043
867.79         52.0008
868.19        50.43317
868.60        49.05075
869.00        48.01793
869.40        47.26315
869.80        46.85202
870.21        46.85343
870.61        47.27684
871.01        48.08111
871.41        48.99841
871.81        49.57293
872.22        49.74015
872.62        49.60062
873.02        49.26037
873.42        49.28893
873.82        49.45826
874.22        48.75876
874.63         47.6974
875.03        47.39214
875.43        48.04025
875.83         51.0012
876.23        50.98513
876.63        49.96017
877.03        46.97621
877.44        42.33538
877.84        154.0478
878.24        41.91183
878.64        44.65977
879.04        52.10906
879.44        47.13153
879.84        44.81222
880.24        52.85844
880.64        53.87321
881.04        49.65698
881.44        46.79773
881.84        46.26353
882.24        47.01355
882.65        48.46931
883.05        49.16306
883.45         48.6659
883.85        47.99478
884.25        47.55809
884.65        47.47402
885.05        47.83236
885.45        48.49885
885.85        49.21876
886.25        49.62562
886.65        49.60558
887.05        49.28134
887.45        48.84195
887.85        48.56535
888.25        48.53717
888.65        48.68026
889.04        48.91947
889.44        49.07727
889.84        49.11235
890.24        49.06469
890.64        48.98981
891.04        48.96896
891.44         48.9989
891.84        49.01958
892.24         48.9481
892.64        48.65779
893.04        48.15941
893.44        47.57527
893.83        46.97024
894.23        46.42242
894.63        45.96547
895.03        45.55688
895.43        45.33214
895.83        45.51548
896.23        46.10734
896.63        47.03239
897.02        47.94301
897.42        48.22294
897.82        47.75079
898.22        46.73686
898.62         45.5994
899.01        44.98653
899.41        45.07479
899.81        45.64632
900.21        46.48156
900.61        47.24891
901.00        47.81075
901.40        48.22437
901.80        48.50745
902.20        48.66693
902.59        48.71559
902.99        48.64654
903.39        48.41103
903.79        47.95791
904.18        47.32884
904.58        46.62912
904.98        46.10292
905.38        46.10727
905.77        46.67923
906.17        47.67948
906.57        48.78496
906.96        49.50821
907.36        49.65665
907.76        49.34196
908.15        48.80462
908.55        48.39099
908.95        48.23153
909.34        48.26468
909.74        48.27837
910.14        47.87698
910.53        47.00386
910.93        45.87457
911.33        44.94684
911.72        44.93364
912.12         45.8842
912.52        47.47903
912.91        49.15089
913.31        49.93264
913.70        49.64323
914.10         48.5573
914.49        46.99488
914.89        45.78279
915.29        45.24363
915.68        45.17997
916.08        45.47776
916.47        45.98289
916.87        46.54796
917.26        47.22712
917.66        47.87292
918.05        48.25812
918.45        48.31345
918.84         48.1306
919.24        47.72173
919.64        47.14318
920.03        46.47647
920.42        45.72786
920.82        45.22453
921.21        45.43725
921.61        46.34743
922.00        47.83412
922.40        49.27352
922.79        49.88136
923.19         49.5209
923.58        48.06195
923.98        45.86414
924.37        44.87172
924.77        45.79433
925.16        42.44831
925.55        45.17886
925.95        45.29855
926.34        45.82122
926.74        46.47548
927.13        47.23367
927.52        47.74593
927.92        47.88905
928.31        47.82825
928.70        47.55008
929.10        47.13335
929.49        46.63597
929.89        46.04749
930.28        45.61102
930.67        45.71107
931.07         46.3544
931.46        47.48812
931.85        48.60696
932.24        48.94886
932.64        48.35609
933.03        46.88881
933.42        45.09684
933.82        44.11081
934.21        44.23622
934.60        45.17725
934.99        46.00363
935.39        45.93363
935.78        44.89265
936.17        42.17012
936.56        38.19557
936.96        40.26604
937.35          39.494
937.74        42.67378
938.13        45.77371
938.53         47.7051
938.92         48.3286
939.31        48.06898
939.70        47.36606
940.09        46.79942
940.49         46.6678
940.88        46.80177
941.27        47.09384
941.66        47.43651
942.05        47.75321
942.44        48.05312
942.84        48.40387
943.23        48.87138
943.62        49.41882
944.01        50.05057
944.40        50.36974
944.79        49.75604
945.18        48.12538
945.57        45.61405
945.97        43.11278
946.36        42.14843
946.75        43.18237
947.14        45.64383
947.53        48.34556
947.92        49.66021
948.31        49.28593
948.70        47.73058
949.09        45.68692
949.48        44.37605
949.87        44.20715
950.26        44.77333
950.65        45.70127
951.04        46.38437
951.43        46.59558
951.82        46.58575
952.21        46.40168
952.60        46.07736
952.99        45.66475
953.38        45.08294
953.77        44.50094
954.16        44.22856
954.55        44.30962
954.94        44.70036
955.33        45.10826
955.72        45.01512
956.11        44.31873
956.50        43.17304
956.89        41.97926
957.28        41.50689
957.66        41.99506
958.05        43.06507
958.44        44.31917
958.83        45.23609
959.22         45.6774
959.61        45.81213
960.00        45.61849
960.39        45.07229
960.78        44.24264
961.16        43.10796
961.55        42.00988
961.94        41.37194
962.33        41.27913
962.72        41.67481
963.11        42.21192
963.49        42.26559
963.88        41.63132
964.27        40.52086
964.66        39.38647
965.04        38.96947
965.43        39.45016
965.82        40.60713
966.21        41.98625
966.60        42.84988
966.98         43.0079
967.37        42.65031
967.76         42.1909
968.15        42.28289
968.53         43.0779
968.92        44.25295
969.31        45.42938
969.69        46.00125
970.08        45.74484
970.47        44.90121
970.86        43.69225
971.24         42.4273
971.63        41.33197
972.02        40.36284
972.40        39.56034
972.79        39.04525
973.17        38.84756
973.56         38.9216
973.95        39.31287
974.33        40.04862
974.72         40.9517
975.11        41.93574
975.49        42.69691
975.88        42.79316
976.26        42.16846
976.65        41.00281
977.04        39.56915
977.42        38.36887
977.81        37.62822
978.19        37.18805
978.58        37.10519
978.96         37.3965
979.35        37.98461
979.74        39.00466
980.12        40.10625
980.51        40.43362
980.89        39.94563
981.28        38.77275
981.66        37.72198
982.05        37.91648
982.43        39.48401
982.82        42.00699
983.20        44.69551
983.59        45.83659
983.97        45.01365
984.35         42.7349
984.74         39.8796
985.12          37.712
985.51        36.65275
985.89        36.20463
986.28        36.33224
986.66        36.83723
987.04         37.4913
987.43        38.43351
987.81        38.95989
988.20        38.01836
988.58        35.33948
988.96        30.67038
989.35        25.17392
989.73        22.34343
990.12        23.99487
990.50        28.96112
990.88        34.31283
991.27        36.69123
991.65        35.95868
992.03        33.03339
992.42        29.52745
992.80        28.49293
993.18        30.89934
993.56        35.24103
993.95        39.96084
994.33        43.50122
994.71        45.22964
995.10        45.80262
995.48        45.31638
995.86        43.69965
996.24        41.06804
996.63        37.26474
997.01        32.90868
997.39        30.20225
997.77        30.10345
998.15        32.05825
998.54        34.57467
998.92        35.89554
999.30        35.59791
999.68        33.97156
1000.06        31.12271
1000.45        28.35436
1000.83        26.91987
1001.21        26.50689
1001.59        26.70761
1001.97        27.09405
1002.35        27.46845
1002.73        27.95563
1003.12        28.45799
1003.50        28.49598
1003.88        27.95421
1004.26        27.10519
1004.64        25.92409
1005.02        24.33562
1005.40        22.40817
1005.78         20.0222
1006.16        18.32651
1006.54        19.48065
1006.92        23.31854
1007.30        28.37864
1007.69        32.53659
1008.07          33.914
1008.45        31.99633
1008.83        26.62218
1009.21        17.25846
1009.59        6.300698
1009.97       -2.078727
1010.35       -6.333566
1010.73       -5.879734
1011.11       -2.455209
1011.49        2.464201
1011.86        9.218632
1012.24        15.36185
1012.62        18.95554
1013.00        19.85242
1013.38        18.51072
1013.76        16.08162
1014.14          14.721
1014.52        15.05788
1014.90        16.54074
1015.28        18.15181
1015.66        18.10873
1016.04        15.86907
1016.41        11.88457
1016.79        7.442896
1017.17        5.231379
1017.55        6.292695
1017.93        9.267017
1018.31        12.63892
1018.69        15.23505
1019.06        16.81285
1019.44        17.43718
1019.82        16.97505
1020.20        14.99949
1020.58        11.55389
1020.95        7.156564
1021.33        1.528825
1021.71       -7.355798
1022.09       -22.03396
1022.46       -49.55404
1022.84       -90.45704
1023.22       -104.8997
1023.60       -69.26913
1023.97       -26.67168
1024.35       -2.124038
1024.73        6.045811
