SpectraSmart Spectrum 2.9.0.0
--------- Device Information -----------
Spectrum Name :  反射率_0
Saving Time :  2024/04/20 00:43:06
Spectro-Module Model Name : SE2030-DUVN
Spectro-Module Serial Number : OS361AC55029948
Wavelength Start : 200
Wavelength End : 1025
Wavelength Unit : Wavelength(nm)
Spectrum Unit : Reflectance(%)
-----------Spectrum Setting ------------
Integration Time : 30ms
Average : 10
Boxcar : 0
Background removal :  enabled
linearity correction :  enabled
SC :  disabled
Intensity correction :  disabled
DWT denoise :  enabled
savitzky-golay :  disabled
FFT :  disabled
Running average :  disabled
Kalman :  disabled
High pass :  disabled
---------------BEGIN--------------------
Wavelength(nm)             Reflectance(%)
200.29               0
200.75        73.96814
201.21        71.47546
201.67        69.97332
202.13        72.22542
202.58        79.67633
203.04        92.54043
203.50        106.5951
203.96        110.7131
204.42        103.7549
204.88        92.42314
205.34        82.56358
205.80        77.05891
206.26        75.00591
206.72        74.97512
207.18        76.80516
207.64        79.08989
208.10        79.99184
208.55          80.458
209.01        79.59532
209.47        77.32442
209.93        74.10825
210.39         70.2223
210.85        66.68977
211.31        64.63119
211.77        64.07117
212.23        64.80196
212.69        66.66232
213.14        68.52553
213.60        69.03146
214.06        69.01226
214.52        69.06493
214.98        69.82085
215.44        71.26362
215.90        72.95566
216.36        74.87244
216.81        76.63814
217.27        77.72794
217.73         78.5728
218.19        78.28237
218.65        75.45669
219.11         70.0297
219.57        62.04766
220.02        53.88248
220.48        51.84678
220.94         57.7884
221.40        70.22202
221.86        84.20399
222.32        92.28964
222.77        92.67673
223.23        87.81656
223.69        81.14564
224.15        77.73943
224.61         78.3783
225.06        80.87489
225.52        83.51325
225.98        84.79049
226.44        84.61369
226.90        83.62786
227.36         82.5254
227.81        82.24603
228.27        83.20789
228.73        84.75352
229.19         86.0155
229.65        86.04089
230.10        84.87106
230.56        83.22511
231.02        81.75325
231.48        81.34256
231.93        81.95022
232.39        83.17317
232.85        84.50562
233.31        85.26167
233.77        85.22305
234.22        84.66508
234.68        83.58317
235.14         81.9049
235.60        79.84813
236.05        77.56408
236.51        75.59014
236.97        74.69532
237.43        75.09289
237.88        76.97896
238.34        80.00574
238.80        83.22173
239.26        85.49616
239.71        86.68244
240.17        86.42078
240.63        85.16322
241.08        83.29476
241.54        80.60748
242.00        77.43848
242.46        74.15849
242.91        70.74976
243.37          66.661
243.83         62.4293
244.28        61.22287
244.74        65.53899
245.20        74.32792
245.66        82.24778
246.11        85.39084
246.57        83.44743
247.03        76.41283
247.48         65.3102
247.94         59.7824
248.40        62.72851
248.85        68.13094
249.31        72.47403
249.77        74.69548
250.22          75.298
250.68        75.01522
251.14         74.3126
251.59        73.99271
252.05        74.62159
252.51        76.12513
252.96        77.49317
253.42        77.25869
253.88        75.52112
254.33        73.23954
254.79        72.59483
255.25        75.39266
255.70        81.01704
256.16        87.85617
256.62        94.17275
257.07         98.1031
257.53        99.65458
257.99        99.47285
258.44        97.40377
258.90         94.3651
259.35        90.78394
259.81        87.89951
260.27        85.68645
260.72         84.0994
261.18        83.29482
261.63        82.53615
262.09        82.29765
262.55         82.5692
263.00         83.0304
263.46        83.75096
263.91        83.82599
264.37        82.67258
264.83        80.31706
265.28        77.08784
265.74        74.06931
266.19        72.18649
266.65        71.69364
267.11        72.05218
267.56        72.61468
268.02        72.48886
268.47        71.45758
268.93        69.85695
269.38        67.99556
269.84        66.58923
270.30        65.82032
270.75        65.45491
271.21         65.2613
271.66        64.86969
272.12        64.17344
272.57        63.27536
273.03        62.31732
273.48        61.39688
273.94        60.62327
274.39        59.89543
274.85         59.2032
275.31        58.44586
275.76        57.57025
276.22        56.65203
276.67        55.71454
277.13        54.95401
277.58        54.31535
278.04        53.81345
278.49         53.2371
278.95         52.4237
279.40        51.29896
279.86        50.04631
280.31        48.78168
280.77        47.86941
281.22        47.27118
281.68        46.93432
282.13        46.64885
282.59        46.19038
283.04        45.49216
283.50        44.69706
283.95        43.89545
284.41        43.29404
284.86        42.89154
285.32        42.64565
285.77        42.47312
286.22        42.34407
286.68        42.22777
287.13        42.09266
287.59        41.91561
288.04        41.59262
288.50        41.14907
288.95        40.58166
289.41        39.98052
289.86         39.3989
290.32        38.92496
290.77        38.53294
291.22        38.27268
291.68        38.17611
292.13        38.22945
292.59        38.44175
293.04        38.75645
293.50        39.11221
293.95        39.47568
294.40        39.85771
294.86        40.27538
295.31        40.76899
295.77        41.34799
296.22        41.98818
296.68        42.66886
297.13        43.33797
297.58        43.98399
298.04        44.62765
298.49        45.26769
298.95        45.95015
299.40        46.66244
299.85        47.38642
300.31        48.11754
300.76        48.83126
301.21        49.52349
301.67        50.23472
302.12        50.89802
302.58        51.50434
303.03        52.02217
303.48        52.47944
303.94        52.98774
304.39         53.6615
304.84        54.52152
305.30        55.51388
305.75        56.44835
306.20        57.07626
306.66        57.37444
307.11        57.39496
307.57        57.33543
308.02         57.3959
308.47        57.65623
308.93          58.043
309.38        58.43969
309.83        58.74001
310.29        58.90546
310.74        58.97643
311.19        58.95395
311.65        58.82774
312.10        58.60217
312.55        58.27908
313.00        57.94002
313.46        57.71142
313.91        57.59812
314.36        57.58957
314.82        57.58275
315.27        57.43753
315.72        57.11135
316.18        56.66662
316.63        56.19218
317.08        55.84678
317.53        55.65871
317.99        55.56415
318.44        55.48393
318.89        55.27356
319.35        54.89842
319.80        54.41756
320.25        53.89059
320.70        53.41434
321.16        53.01473
321.61        52.66389
322.06        52.34912
322.51        52.05836
322.97        51.76591
323.42         51.4864
323.87        51.17186
324.32        50.74983
324.78        50.20196
325.23        49.57137
325.68        48.90309
326.13        48.29111
326.59        47.77253
327.04        47.35676
327.49        47.03548
327.94        46.79536
328.39        46.61773
328.85        46.47779
329.30        46.38924
329.75        46.29711
330.20        46.17767
330.66        46.00631
331.11        45.79673
331.56        45.51316
332.01        45.15506
332.46        44.73419
332.92        44.27617
333.37        43.85504
333.82        43.49739
334.27        43.21432
334.72        43.00643
335.17        42.86587
335.63        42.77158
336.08        42.73051
336.53        42.74277
336.98        42.82937
337.43        42.97294
337.88        43.15598
338.34        43.25128
338.79        43.10996
339.24         42.6917
339.69        42.04484
340.14        41.36827
340.59        40.99804
341.05        41.00775
341.50        41.31433
341.95        41.70249
342.40        41.83138
342.85        41.62099
343.30        41.18099
343.75        40.67476
344.20        40.36935
344.66        40.33263
345.11        40.44964
345.56        40.61835
346.01        40.67979
346.46        40.57947
346.91        40.38451
347.36        40.10854
347.81        39.75872
348.26        39.36575
348.72        38.95547
349.17        38.57375
349.62        38.37094
350.07        38.37888
350.52        38.55011
350.97        38.80931
351.42        39.03967
351.87        39.18925
352.32        39.26679
352.77        39.25523
353.22        39.13613
353.67        38.91758
354.13        38.62645
354.58        38.27148
355.03        37.91473
355.48        37.58912
355.93         37.3017
356.38        37.08268
356.83        36.96909
357.28        36.95347
357.73        37.00813
358.18        37.08112
358.63        37.08671
359.08        36.99254
359.53        36.81934
359.98        36.56451
360.43        36.22735
360.88        35.82636
361.33        35.37138
361.78         34.9281
362.23        34.60692
362.68        34.42886
363.13        34.35569
363.58         34.3196
364.03        34.20911
364.48         33.9851
364.93        33.67414
365.38        33.28614
365.83        32.84766
366.28        32.38726
366.73         31.9087
367.18        31.45538
367.63        31.09215
368.08        30.83339
368.53        30.66935
368.98         30.5622
369.43        30.44315
369.88        30.29113
370.33        30.12101
370.78        29.94609
371.23        29.79571
371.68        29.67725
372.13        29.56867
372.58        29.46988
373.03        29.38733
373.48        29.31359
373.93         29.2458
374.38        29.15112
374.83        28.97507
375.28        28.71189
375.72        28.37383
376.17        28.02794
376.62        27.74324
377.07        27.54588
377.52        27.41407
377.97        27.33115
378.42        27.26871
378.87          27.208
379.32         27.1531
379.77         27.0852
380.22         26.9718
380.67        26.81149
381.11        26.62186
381.56        26.41194
382.01        26.22409
382.46        26.07222
382.91        25.93542
383.36        25.83595
383.81        25.80297
384.26         25.8298
384.71        25.91614
385.15        25.96674
385.60        25.84488
386.05        25.53494
386.50        25.08096
386.95        24.64047
387.40        24.46428
387.85        24.59233
388.29         24.9291
388.74        25.29815
389.19        25.42966
389.64        25.27052
390.09        24.89841
390.54        24.46366
390.98        24.19927
391.43        24.18379
391.88        24.32534
392.33         24.4865
392.78        24.47239
393.23        24.25804
393.67        23.90889
394.12        23.58452
394.57        23.42055
395.02         23.4459
395.47        23.60888
395.91        23.82139
396.36        23.90522
396.81         23.8223
397.26        23.62192
397.71        23.40735
398.15        23.31329
398.60        23.39015
399.05        23.56998
399.50         23.7508
399.95        23.78946
400.39        23.65807
400.84        23.39901
401.29        23.11145
401.74        22.97515
402.18        23.04567
402.63        23.25798
403.08        23.49208
403.53        23.55546
403.97        23.40652
404.42        23.11946
404.87        22.81106
405.32         22.6723
405.76        22.74502
406.21        22.96172
406.66        23.21498
407.11        23.33923
407.55        23.29279
408.00        23.13318
408.45        22.92729
408.90        22.73195
409.34        22.60975
409.79        22.64912
410.24        22.77607
410.68        22.78182
411.13        22.65194
411.58        22.49339
412.03        22.36055
412.47        22.31251
412.92        22.36551
413.37        22.48874
413.81        22.65191
414.26        22.82798
414.71        22.99019
415.15        23.14937
415.60         23.2507
416.05        23.23893
416.49        23.10541
416.94        22.87248
417.39        22.60353
417.83        22.40304
418.28        22.30846
418.73        22.29038
419.17        22.31337
419.62        22.30721
420.07        22.25729
420.51        22.18958
420.96        22.12381
421.41        22.06549
421.85        22.01406
422.30        21.97584
422.74         21.9613
423.19        22.02461
423.64        22.15783
424.08        22.35579
424.53        22.54245
424.98        22.61684
425.42        22.55564
425.87        22.39862
426.31        22.20212
426.76        22.04236
427.21        21.94317
427.65        21.91483
428.10        21.94972
428.54        21.96185
428.99        21.94416
429.44        22.04087
429.88        22.15967
430.33        21.99475
430.77        21.62765
431.22         21.4761
431.66        21.58026
432.11        21.75273
432.56        21.94851
433.00        22.28197
433.45        22.54873
433.89        22.40413
434.34        21.99818
434.78         21.6538
435.23        21.38038
435.67        22.15866
436.12         21.6693
436.57          21.582
437.01        21.30064
437.46        21.20431
437.90        21.31316
438.35        21.43937
438.79        21.50934
439.24        21.52345
439.68        21.46798
440.13        21.17426
440.57        20.81453
441.02        20.99804
441.46        21.53782
441.91        21.74272
442.35        21.04595
442.80         20.8382
443.24        20.90292
443.69        20.80299
444.13        20.54797
444.58        20.38649
445.02        20.34799
445.47        20.41658
445.91        20.53844
446.36        20.57863
446.80        20.50739
447.24        20.39296
447.69        20.27744
448.13        20.18043
448.58        20.12393
449.02        20.09482
449.47        20.07926
449.91         20.0489
450.36        20.00415
450.80        19.95247
451.25        19.91818
451.69        19.91655
452.13        19.95486
452.58        20.01537
453.02        20.08238
453.47        20.13756
453.91        20.17296
454.36        20.19076
454.80        20.18181
455.24        20.13027
455.69        20.04704
456.13        19.92165
456.58        19.79986
457.02        19.73707
457.46         19.7408
457.91        19.75116
458.35        19.75215
458.79        19.77068
459.24        19.79485
459.68        19.82088
460.13        19.89694
460.57        19.90967
461.01        19.83585
461.46        20.22133
461.90        20.28165
462.34        20.04445
462.79        20.18138
463.23         20.0132
463.68        19.86626
464.12        19.74591
464.56        19.82415
465.01        19.95223
465.45        20.07578
465.89        20.13516
466.34        20.12226
466.78         19.9923
467.22        19.81326
467.67        19.83573
468.11        20.01961
468.55        19.97017
468.99        19.72868
469.44        19.68156
469.88        19.84546
470.32        20.00856
470.77        20.11419
471.21        20.17464
471.65        20.17543
472.10        20.11147
472.54        20.02726
472.98        20.03674
473.42        20.15441
473.87        20.28771
474.31        20.39257
474.75        20.52881
475.20        20.64072
475.64         20.5269
476.08        20.27965
476.52        20.21738
476.97        20.36424
477.41        20.57744
477.85        20.77174
478.29        20.86946
478.74        20.84585
479.18        20.69445
479.62        20.51878
480.06        20.48321
480.50        20.59343
480.95        20.70566
481.39         20.7733
481.83        20.82362
482.27        20.84779
482.72         20.8367
483.16        20.82085
483.60        20.85412
484.04        20.94427
484.48        21.11999
484.93        21.41158
485.37         21.5321
485.81        21.68941
486.25         22.0999
486.69        22.80984
487.14        22.25115
487.58         21.7655
488.02        22.70838
488.46        21.97886
488.90        22.18053
489.34        22.20413
489.79        22.43367
490.23        22.75639
490.67        22.87414
491.11        22.82872
491.55        22.82552
491.99          22.894
492.43        22.92788
492.88        22.94287
493.32         23.0056
493.76        23.13064
494.20        23.30798
494.64        23.53723
495.08        23.81343
495.52        24.10339
495.96        24.37268
496.41        24.60856
496.85        24.76697
497.29        24.86727
497.73        25.06354
498.17        25.32559
498.61        25.38992
499.05        25.29715
499.49        25.37276
499.93        25.64431
500.37        25.88081
500.82        26.06265
501.26        26.37029
501.70        26.72826
502.14        26.78979
502.58        26.61065
503.02        26.58308
503.46        26.73816
503.90         26.8699
504.34        26.94123
504.78         26.9839
505.22        26.99048
505.66        26.96445
506.10        26.93528
506.54        26.94381
506.98        27.00497
507.42        27.11326
507.86        27.25434
508.30        27.40248
508.74        27.54513
509.18        27.68058
509.62        27.81831
510.06        27.97458
510.50         28.1482
510.94          28.332
511.38        28.48593
511.82        28.54817
512.26        28.51092
512.70        28.39596
513.14        28.27069
513.58        28.23667
514.02        28.31084
514.46        28.46763
514.90        28.64606
515.34        28.67877
515.78        28.59101
516.22        28.46868
516.66        28.38925
517.10        28.14993
517.54        27.77058
517.98        28.26821
518.42        28.12834
518.86        28.33591
519.30        28.42342
519.74        28.53577
520.18         28.6362
520.62        28.64557
521.06        28.57209
521.50        28.42582
521.93        28.25008
522.37        28.12484
522.81        28.07181
523.25        28.07125
523.69        28.10153
524.13        28.12721
524.57        28.13216
525.01        28.12287
525.45        28.09973
525.89        28.06172
526.32         28.0094
526.76        27.94604
527.20         27.8632
527.64        27.75475
528.08        27.62316
528.52        27.46883
528.96        27.32662
529.40         27.2467
529.83        27.23356
530.27         27.2811
530.71         27.3233
531.15        27.25754
531.59        27.07018
532.03         26.7964
532.46        26.52264
532.90        26.40499
533.34        26.46287
533.78        26.63985
534.22        26.84411
534.66        26.93454
535.09        26.87117
535.53        26.71012
535.97        26.49986
536.41        26.31345
536.85        26.18204
537.28        26.09793
537.72        26.06988
538.16        26.03239
538.60         26.1071
539.04        26.18286
539.47        26.26874
539.91        26.38689
540.35        26.54616
540.79        26.51313
541.22         26.6363
541.66        26.73845
542.10        26.94592
542.54        26.82119
542.97        27.07496
543.41        27.20882
543.85        27.41493
544.29        27.62138
544.72        27.79315
545.16        27.95744
545.60        28.10199
546.04        28.13511
546.47         28.1413
546.91        28.43066
547.35        28.93345
547.79        29.27826
548.22        29.41551
548.66         29.4695
549.10        29.49682
549.53        29.69749
549.97        30.08734
550.41        30.14551
550.84        30.42655
551.28        30.62517
551.72        30.91263
552.15        31.18815
552.59        31.44602
553.03        31.69885
553.46        31.91077
553.90        32.06261
554.34        32.14878
554.77        32.17966
555.21        32.20156
555.65        32.26493
556.08         32.3786
556.52        32.56093
556.96        32.72169
557.39         32.8993
557.83        33.05518
558.27         33.1173
558.70        33.12027
559.14        33.18966
559.57        33.32612
560.01        33.50552
560.45         33.6784
560.88        33.72719
561.32        33.70992
561.75        33.73735
562.19        33.93553
562.63        34.02349
563.06        34.03625
563.50        34.05191
563.93        34.09206
564.37        34.29172
564.80        34.47821
565.24        34.69263
565.68        34.84714
566.11        35.01017
566.55         35.2006
566.98        35.26758
567.42        35.22206
567.85        35.65241
568.29        35.60067
568.72        35.91537
569.16        36.27051
569.60        36.56327
570.03        36.75152
570.47        36.94426
570.90        36.97827
571.34        37.33528
571.77        37.33185
572.21        37.58965
572.64        37.80852
573.08         38.0906
573.51         37.9869
573.95         38.6604
574.38        39.16915
574.82        39.39891
575.25        39.70906
575.69        39.43697
576.12        39.22787
576.56          38.995
576.99        38.89901
577.42        39.42587
577.86        39.28924
578.29        39.29631
578.73        40.27135
579.16        39.68353
579.60        39.16706
580.03        39.05592
580.47        39.19202
580.90         38.7947
581.33        38.63689
581.77        38.77231
582.20        39.52661
582.64        38.88729
583.07        38.30838
583.51         38.1346
583.94        37.89951
584.37        37.65258
584.81        37.21822
585.24        37.14251
585.68        37.35272
586.11        37.15213
586.54        36.96389
586.98        36.71998
587.41        36.86312
587.85        36.86603
588.28        36.77622
588.71        36.55275
589.15        36.24778
589.58        35.96031
590.01        36.06529
590.45          36.325
590.88        36.29403
591.31        36.47391
591.75         35.8226
592.18        36.03677
592.61        36.06893
593.05        36.43852
593.48        36.16132
593.91        37.30151
594.35        36.67704
594.78        36.66649
595.21         37.2408
595.65        37.59344
596.08        37.32026
596.51        37.34558
596.94        37.54834
597.38        37.66574
597.81        37.78562
598.24        37.98756
598.68         38.7874
599.11         39.1226
599.54        39.90718
599.97        39.87351
600.41        39.93433
600.84        40.70313
601.27        41.27049
601.70        41.94993
602.14        42.37698
602.57        42.77941
603.00        43.13727
603.43        43.98596
603.87        44.24932
604.30        44.84686
604.73        45.44181
605.16        45.88175
605.60        46.18762
606.03        46.84447
606.46        47.64173
606.89        48.42152
607.32        49.01177
607.76        48.71581
608.19        49.69395
608.62        50.19414
609.05        50.39887
609.48        50.67714
609.92        51.04317
610.35        50.99092
610.78        52.21989
611.21         53.1901
611.64         52.7869
612.07        53.29081
612.50        53.62226
612.94        53.71935
613.37        54.20548
613.80         54.6029
614.23        55.14023
614.66        55.35831
615.09        55.66997
615.52        56.15701
615.96         56.7775
616.39        57.21955
616.82        57.55127
617.25        57.12796
617.68        57.57401
618.11        58.03789
618.54        58.46524
618.97        58.54342
619.40         58.1739
619.84        58.43079
620.27        58.06146
620.70         58.5856
621.13        59.41375
621.56        59.64265
621.99        59.39115
622.42         59.3998
622.85        59.79598
623.28        60.03012
623.71        59.99646
624.14        60.55563
624.57        59.93722
625.00        59.96383
625.43        60.05724
625.86        59.50788
626.29         59.4866
626.72        59.17885
627.15        58.99443
627.58        58.91986
628.01        58.90607
628.44        58.76652
628.87        58.45967
629.30        58.00262
629.73         57.6768
630.16        57.10757
630.59        56.93604
631.02        56.48838
631.45        55.94932
631.88        55.47139
632.31        55.05769
632.74        54.60236
633.17        54.09057
633.60          53.561
634.03        53.01328
634.46        52.44823
634.89        51.86255
635.32        51.24077
635.75        50.59815
636.18        49.97105
636.61        49.38704
637.04        48.86418
637.47        48.40557
637.89        48.01248
638.32        47.65295
638.75        47.29715
639.18        46.93549
639.61        46.58177
640.04        46.22826
640.47         45.8602
640.90        45.48222
641.33        45.10191
641.76        44.75608
642.18        44.51072
642.61        44.37124
643.04        44.31974
643.47        44.32235
643.90        44.31966
644.33        44.29474
644.76        44.27031
645.18        44.25346
645.61        44.25742
646.04        44.29422
646.47        44.35775
646.90        44.48358
647.33        44.73232
647.75        45.11329
648.18         45.6003
648.61        46.13261
649.04        46.62891
649.47        47.06405
649.89        47.41303
650.32        47.75719
650.75        48.31461
651.18        49.11248
651.61        49.92712
652.03        50.72163
652.46        51.74106
652.89        52.86133
653.32        53.36824
653.74        53.42291
654.17        54.12897
654.60        54.82065
655.03         56.2185
655.46        55.73676
655.88        58.11549
656.31        59.20297
656.74        68.52757
657.16         65.2302
657.59        60.39331
658.02        60.77517
658.45        61.12046
658.87        62.29454
659.30          62.948
659.73        63.77959
660.15        64.96753
660.58         64.6121
661.01        64.44221
661.44        64.13334
661.86        64.49083
662.29        65.43835
662.72        66.35382
663.14        67.03386
663.57        67.23121
664.00         67.0992
664.42        67.25943
664.85        67.78701
665.27        68.22704
665.70        68.51606
666.13        68.82349
666.55        69.14291
666.98        69.41187
667.41        69.64513
667.83        69.86118
668.26        70.05863
668.69        70.25748
669.11        70.44359
669.54        70.59064
669.96        70.70224
670.39        70.78018
670.82        70.89431
671.24        71.12492
671.67        71.48037
672.09        71.98923
672.52        72.50075
672.94        72.68835
673.37        72.49303
673.80        72.24994
674.22        72.08198
674.65        72.03524
675.07        72.17362
675.50        72.52145
675.92        72.95693
676.35        73.18749
676.77        73.16206
677.20        72.98734
677.62        72.77396
678.05        72.66149
678.47        72.68197
678.90        72.85853
679.32        73.18922
679.75        73.21189
680.17        73.49626
680.60        73.75069
681.02         74.1323
681.45        73.84739
681.87        73.72527
682.30        73.83823
682.72        74.29873
683.15        74.36202
683.57        74.10567
684.00        73.98016
684.42        74.04429
684.85        74.73143
685.27        74.46803
685.70        74.74316
686.12        75.02834
686.54        75.21513
686.97         75.2779
687.39        75.22601
687.82        75.10928
688.24        75.14946
688.66        75.35276
689.09        75.22026
689.51        75.30379
689.94        75.30899
690.36        75.42432
690.78        75.50921
691.21        75.54514
691.63        75.71472
692.06        76.04163
692.48        75.90186
692.90        76.02209
693.33        76.48524
693.75         76.1893
694.17        76.27659
694.60        76.34348
695.02        76.10258
695.44        75.63847
695.87        75.75208
696.29        76.31085
696.71        76.15395
697.14        75.52828
697.56         75.7729
697.98        76.65726
698.41        77.75109
698.83        77.11986
699.25        77.02493
699.68        77.01536
700.10        76.97107
700.52        76.92742
700.94        76.95049
701.37        77.02302
701.79        77.13642
702.21        77.25368
702.64        77.36684
703.06        77.49163
703.48        77.66941
703.90        77.90305
704.33        78.17381
704.75        78.39458
705.17        78.38944
705.59         78.1366
706.01        77.69252
706.44        77.26672
706.86        77.17742
707.28        77.47444
707.70        78.09457
708.12        78.80165
708.55         79.1018
708.97        78.95985
709.39        78.76251
709.81        78.60396
710.23        78.41311
710.66         78.2539
711.08        78.22628
711.50        78.31479
711.92        78.44369
712.34        78.59705
712.76        78.81348
713.19        79.02398
713.61        79.17117
714.03        79.20673
714.45        79.14268
714.87        79.06262
715.29        79.10707
715.71        79.30227
716.13        79.60596
716.56        79.90549
716.98        80.10925
717.40        80.14912
717.82        80.04238
718.24        79.87093
718.66        79.83085
719.08          79.928
719.50        79.97598
719.92        79.95708
720.34        79.96891
720.76        80.00376
721.19        79.99698
721.61         79.9584
722.03        79.90981
722.45        79.85832
722.87        79.80157
723.29         79.7728
723.71        79.82778
724.13        79.97737
724.55        80.20602
724.97        80.47568
725.39        80.71915
725.81        80.90965
726.23        81.05502
726.65        81.16969
727.07        81.28458
727.49        81.40685
727.91        81.52156
728.33        81.61585
728.75         81.6705
729.17        81.69165
729.59        81.69445
730.01        81.66212
730.43        81.68625
730.85        81.79333
731.27        81.72238
731.69        81.46017
732.10        82.16191
732.52        82.00016
732.94        82.30042
733.36         82.4461
733.78        82.35481
734.20        82.08161
734.62        81.85597
735.04        81.72665
735.46        81.70219
735.88        81.83038
736.30         81.5479
736.72        81.86524
737.13        82.22912
737.55        82.51244
737.97        82.87956
738.39        83.10785
738.81        82.82923
739.23        82.22993
739.65        82.08536
740.06        82.35873
740.48        82.78956
740.90        82.81959
741.32        82.49572
741.74        81.86862
742.16        81.67347
742.57        82.00134
742.99        82.34364
743.41        82.60123
743.83        82.84813
744.25        83.04105
744.67        82.99702
745.08        83.00204
745.50        82.85353
745.92        82.66899
746.34        82.44815
746.75        82.22862
747.17        82.06583
747.59        81.98438
748.01        81.99503
748.42        82.10087
748.84        82.30005
749.26        82.59109
749.68        82.80547
750.09        82.94701
750.51        83.34913
750.93        83.83271
751.35        83.68955
751.76        83.04153
752.18        82.66433
752.60        82.60221
753.01        82.76056
753.43        82.54306
753.85        82.65961
754.27        82.93323
754.68        83.32249
755.10        83.70551
755.52        83.91215
755.93        83.91271
756.35         83.7454
756.77        83.50037
757.18        83.46481
757.60        83.73363
758.02        83.94476
758.43        83.89581
758.85        84.76496
759.26         84.4392
759.68        84.18776
760.10        83.85769
760.51         83.9099
760.93          83.991
761.34         83.3819
761.76        83.64368
762.18        83.23217
762.59        82.82927
763.01        82.73328
763.42        83.14709
763.84         83.8584
764.26        84.55216
764.67        84.96193
765.09        84.06484
765.50         84.2055
765.92         84.9733
766.33        85.38691
766.75        85.22041
767.16        84.75369
767.58        84.09724
768.00        83.59054
768.41        83.46777
768.83        83.82926
769.24        84.50282
769.66        85.08368
770.07        85.36401
770.49        85.16723
770.90        84.71525
771.32        84.76447
771.73        85.26629
772.15        85.55755
772.56        85.54861
772.97        85.14715
773.39        84.44814
773.80        84.33626
774.22        84.81169
774.63        84.05418
775.05        83.96376
775.46        83.84055
775.88        84.23453
776.29        84.77332
776.70        85.23434
777.12         85.3904
777.53        85.16498
777.95        84.60857
778.36        83.97826
778.77        83.71838
779.19        83.94272
779.60        84.58784
780.02        85.31116
780.43        85.76911
780.84        85.85947
781.26        85.20586
781.67        84.28852
782.09        85.04295
782.50        87.00528
782.91        87.30124
783.33        85.98251
783.74        85.55837
784.15         86.0976
784.57        86.13017
784.98        85.63586
785.39        85.25262
785.81        85.04088
786.22        84.91739
786.63         84.8817
787.04        84.88613
787.46        84.92464
787.87        85.04619
788.28        85.24757
788.70        85.44972
789.11        85.62775
789.52        85.83429
789.93        86.04119
790.35        86.14945
790.76        86.16869
791.17        86.16664
791.58        86.17926
792.00        86.11739
792.41        85.94577
792.82        85.91339
793.23        85.89744
793.65        85.09953
794.06        84.03552
794.47        84.29395
794.88        85.55515
795.29         86.9922
795.71        87.27873
796.12        86.24508
796.53        86.64605
796.94        85.94412
797.35        85.28371
797.76        85.12437
798.18        85.44403
798.59        85.62041
799.00        85.57055
799.41        85.75864
799.82        86.13867
800.23        86.39588
800.64        86.48685
801.06        86.45258
801.47         86.3958
801.88        86.41869
802.29        86.53307
802.70        86.67059
803.11         86.7697
803.52        86.67965
803.93        86.39522
804.34        86.14635
804.75        85.96507
805.17        85.46078
805.58        85.41317
805.99        85.21378
806.40        85.19734
806.81        86.20518
807.22        87.77775
807.63        87.96571
808.04        86.92522
808.45        86.55171
808.86         87.0743
809.27        87.68767
809.68        88.16474
810.09        88.40121
810.50        88.32751
810.91        87.75771
811.32        87.52543
811.73        87.15428
812.14        86.89933
812.55        86.84806
812.96        86.90344
813.37         86.6274
813.78        86.09583
814.19        85.92357
814.60        86.10001
815.01        86.16219
815.42        86.09908
815.83        86.15876
816.24        86.37878
816.65        86.68255
817.05         87.0481
817.46          87.422
817.87        87.72579
818.28        87.79549
818.69        87.62989
819.10        87.28734
819.51        86.88546
819.92        86.75761
820.33        87.00811
820.74        87.21005
821.14        87.37244
821.55        88.25115
821.96         89.4377
822.37        89.16795
822.78        87.67639
823.19        86.96771
823.60        87.22755
824.00        87.36994
824.41        87.21931
824.82        87.14307
825.23        87.12094
825.64        87.09306
826.04        87.10603
826.45         87.1722
826.86        87.30293
827.27        87.47837
827.68        87.68636
828.08        87.93393
828.49        88.13693
828.90        88.32651
829.31         88.4423
829.72        88.38646
830.12        88.16808
830.53        87.78729
830.94        87.36742
831.35        87.05685
831.75        86.92652
832.16        86.91362
832.57        86.98251
832.97        87.03755
833.38        87.01959
833.79         86.9465
834.20        86.88975
834.60        86.95176
835.01        87.16168
835.42        87.49569
835.82        87.80396
836.23        87.78117
836.64        87.40128
837.04        86.74509
837.45        86.09858
837.86        85.97502
838.26        86.49733
838.67        87.48668
839.08        88.55847
839.48        88.99303
839.89        88.59978
840.29        87.64383
840.70        86.60743
841.11        86.10572
841.51         86.3082
841.92        86.95888
842.33        87.86894
842.73        88.71607
843.14        89.23983
843.54        89.60924
843.95        89.73308
844.35        89.55752
844.76        89.12111
845.17        88.45134
845.57        87.74367
845.98        87.34514
846.38        87.33539
846.79        87.64261
847.19        88.17762
847.60        88.58826
848.00        88.82963
848.41        88.91467
848.81        88.99166
849.22        89.21556
849.62        89.65774
850.03        90.16611
850.43        90.66838
850.84        90.91211
851.24        90.91134
851.65        90.69753
852.05        90.37476
852.46        90.09755
852.86         89.9593
853.27        89.62119
853.67        89.18712
854.07        89.73297
854.48        90.86771
854.88        90.80029
855.29         89.5933
855.69        89.15836
856.10        89.54521
856.50        89.75871
856.90        89.61401
857.31        89.40975
857.71        89.22058
858.12        88.91843
858.52         88.6559
858.92        88.54693
859.33         88.5934
859.73        88.82301
860.13        89.16885
860.54        89.49484
860.94        89.80738
861.34        90.06589
861.75        90.18395
862.15         90.1448
862.55        89.90971
862.96        89.51857
863.36        89.05791
863.76        88.63392
864.17        88.30683
864.57        88.09685
864.97        88.04512
865.38        88.17892
865.78        88.53207
866.18        89.00578
866.58        89.47375
866.99        89.71111
867.39        89.69731
867.79         89.4567
868.19        88.94116
868.60        88.06377
869.00         86.8446
869.40        85.37283
869.80        84.05169
870.21        83.54604
870.61        84.05737
871.01        85.32655
871.41        86.81188
871.81        87.63717
872.22        87.58231
872.62        86.92377
873.02        85.98154
873.42        85.38835
873.82        85.24187
874.22        85.10543
874.63        85.03605
875.03        85.26971
875.43        85.75791
875.83        86.89326
876.23        87.24845
876.63        87.36716
877.03        87.00259
877.44        86.18393
877.84        112.8044
878.24         86.1231
878.64        86.40868
879.04        87.75074
879.44        85.82854
879.84        84.52991
880.24        86.26008
880.64        86.08516
881.04        84.40263
881.44        83.23909
881.84        82.94241
882.24        83.22099
882.65        83.71282
883.05        83.83061
883.45        83.33961
883.85        82.61063
884.25        82.04823
884.65        82.09789
885.05        82.84505
885.45        84.11183
885.85        85.45813
886.25        86.15437
886.65        86.00066
887.05        85.22628
887.45        84.25154
887.85         83.7112
888.25        83.78098
888.65        84.29054
889.04        85.00138
889.44        85.40266
889.84        85.38015
890.24        85.08234
890.64         84.7264
891.04         84.6309
891.44          84.834
891.84        85.16712
892.24        85.42847
892.64         85.2949
893.04        84.72509
893.44        83.94994
893.83        83.05433
894.23        82.18602
894.63        81.40585
895.03        80.66296
895.43        80.22903
895.83         80.5601
896.23        81.67598
896.63        83.40869
897.02        85.18924
897.42        85.96548
897.82        85.50054
898.22         84.1233
898.62        82.39202
899.01        81.17748
899.41        80.78036
899.81        80.92113
900.21        81.44227
900.61        82.10293
901.00        82.76386
901.40        83.47691
901.80        84.12537
902.20        84.47357
902.59        84.48186
902.99        84.18225
903.39        83.65885
903.79        83.09019
904.18        82.56347
904.58         82.0875
904.98        81.81275
905.38        81.96324
905.77        82.52759
906.17        83.45145
906.57        84.38937
906.96        84.81481
907.36        84.58186
907.76        83.82706
908.15        82.92519
908.55        82.43995
908.95        82.52811
909.34        83.05027
909.74        83.63785
910.14        83.65842
910.53         82.9648
910.93        81.87022
911.33        80.80401
911.72        80.43627
912.12        80.89422
912.52        81.86334
912.91        83.03951
913.31        83.88703
913.70        84.29577
914.10        84.42302
914.49        84.23781
914.89        83.73362
915.29        83.00468
915.68          82.079
916.08        81.31549
916.47        81.18282
916.87        81.69075
917.26        82.65477
917.66        83.70043
918.05        84.24056
918.45        84.08483
918.84        83.49328
919.24        82.54807
919.64        81.40975
920.03        80.23922
920.42        79.02029
920.82        78.19074
921.21        78.36866
921.61          79.554
922.00        81.59762
922.40        83.73373
922.79        84.91317
923.19        84.80186
923.58        83.57298
923.98        81.74596
924.37        80.67057
924.77        80.88657
925.16        80.02894
925.55        81.47344
925.95        81.80013
926.34        81.95129
926.74        81.97555
927.13        82.07557
927.52        82.39909
927.92        82.93764
928.31        83.65237
928.70        84.30431
929.10        84.52831
929.49        84.25005
929.89        83.59207
930.28        82.86662
930.67        82.55824
931.07        82.76744
931.46        83.39258
931.85        84.15965
932.24        84.67454
932.64        84.81262
933.03        84.63387
933.42        84.26008
933.82        83.97343
934.21        83.83473
934.60        83.78288
934.99         83.5667
935.39        82.96034
935.78        81.95361
936.17        80.33647
936.56        78.31145
936.96        78.64758
937.35        78.30191
937.74         79.6123
938.13        81.06423
938.53        82.17839
938.92        82.89016
939.31        83.36643
939.70        83.61119
940.09        83.54365
940.49        83.20349
940.88        82.63843
941.27        82.09304
941.66        81.96689
942.05        82.31789
942.44        83.02653
942.84        83.88663
943.23        84.55785
943.62        84.89571
944.01        85.03649
944.40        84.96353
944.79        84.66018
945.18        84.16764
945.57        83.43671
945.97        82.78846
946.36        82.77745
946.75        83.51516
947.14        84.78365
947.53        86.00121
947.92        86.36123
948.31        85.74721
948.70        84.42121
949.09        82.83865
949.48        81.80863
949.87        81.60694
950.26        82.00879
950.65        82.73163
951.04        83.29427
951.43        83.51134
951.82        83.51851
952.21         83.4141
952.60        83.34052
952.99        83.34402
953.38        83.35481
953.77        83.29151
954.16        83.05911
954.55        82.65339
954.94        82.13035
955.33        81.65007
955.72         81.4474
956.11        81.59356
956.50        82.06119
956.89        82.65399
957.28        82.99191
957.66        82.95947
958.05        82.58331
958.44        82.15385
958.83        82.07162
959.22        82.38267
959.61        82.97165
960.00        83.46307
960.39        83.20265
960.78        82.07224
961.16        80.31668
961.55        78.54337
961.94        77.52585
962.33        77.45465
962.72         78.1157
963.11        79.11375
963.49        79.77405
963.88        79.78448
964.27         79.3844
964.66        78.85931
965.04        78.68562
965.43        78.98241
965.82        79.58046
966.21        80.26015
966.60        80.69291
966.98        80.79687
967.37         80.6605
967.76        80.47879
968.15        80.53329
968.53        80.89231
968.92         81.3512
969.31        81.75628
969.69        81.85464
970.08        81.52591
970.47        80.94299
970.86        80.14203
971.24        79.13866
971.63        78.06726
972.02        76.96539
972.40        76.11588
972.79        75.99663
973.17         76.7282
973.56        78.05338
973.95         79.6716
974.33        81.01492
974.72        81.71986
975.11        81.92638
975.49           81.63
975.88        80.84383
976.26        79.70837
976.65        78.33173
977.04        76.98535
977.42        76.16323
977.81        76.01223
978.19        76.35736
978.58        77.20809
978.96        78.58591
979.35        80.26601
979.74        82.32132
980.12        84.03316
980.51        83.90512
980.89        81.90711
981.28        78.56513
981.66        75.28551
982.05        74.01768
982.43        75.01539
982.82        77.68963
983.20         81.0592
983.59        82.97758
983.97        82.83468
984.35        81.11929
984.74        78.76633
985.12        77.17529
985.51        76.75885
985.89        77.11768
986.28        77.73206
986.66        77.79298
987.04         76.9746
987.43        75.81541
987.81        74.62502
988.20        73.70103
988.58        73.03638
988.96        72.40865
989.35        71.87791
989.73        71.85356
990.12        72.36349
990.50        73.39857
990.88        74.31871
991.27        74.39043
991.65        73.68615
992.03        72.38663
992.42        71.16444
992.80        71.35368
993.18        73.26154
993.56        76.21627
993.95        79.30887
994.33        81.67756
994.71        82.92999
995.10        83.31456
995.48        83.03896
995.86        82.35303
996.24         81.4158
996.63        80.19587
997.01        78.66984
997.39        76.98292
997.77         75.4515
998.15        74.20715
998.54        73.70127
998.92          74.331
999.30        76.18379
999.68        79.54324
1000.06        83.45982
1000.45        84.47857
1000.83        81.40823
1001.21        75.89402
1001.59        70.84846
1001.97        68.59695
1002.35        68.99232
1002.73         71.3226
1003.12        74.61602
1003.50        76.67668
1003.88        76.22723
1004.26        74.03452
1004.64        71.04549
1005.02        68.51653
1005.40        66.87198
1005.78        65.71199
1006.16        65.23005
1006.54        65.85479
1006.92        67.36168
1007.30        69.34155
1007.69        71.25532
1008.07        72.79049
1008.45        73.98692
1008.83        75.13379
1009.21        75.91136
1009.59        75.22137
1009.97        72.37946
1010.35        67.62303
1010.73        63.38837
1011.11        62.52559
1011.49        65.00102
1011.86        69.96926
1012.24        74.65051
1012.62        76.33187
1013.00        74.81558
1013.38        71.13874
1013.76        66.85214
1014.14        64.69159
1014.52        65.43127
1014.90        68.11919
1015.28        71.39438
1015.66        73.03091
1016.04        72.20751
1016.41        69.51125
1016.79         65.3357
1017.17        61.37854
1017.55        58.89769
1017.93        57.53314
1018.31        57.10786
1018.69        57.37009
1019.06        58.06506
1019.44        59.14867
1019.82        60.21614
1020.20        60.12799
1020.58        58.48448
1020.95        55.61697
1021.33        52.04997
1021.71        47.79097
1022.09        42.15236
1022.46         32.5744
1022.84        19.32849
1023.22        16.30019
1023.60        29.98727
1023.97        45.08878
1024.35        53.53695
1024.73        56.32114
