SpectraSmart Spectrum 2.9.0.0
--------- Device Information -----------
Spectrum Name :  反射率_0
Saving Time :  2024/04/20 00:35:50
Spectro-Module Model Name : SE2030-DUVN
Spectro-Module Serial Number : OS361AC55029948
Wavelength Start : 200
Wavelength End : 1025
Wavelength Unit : Wavelength(nm)
Spectrum Unit : Reflectance(%)
-----------Spectrum Setting ------------
Integration Time : 30ms
Average : 10
Boxcar : 0
Background removal :  enabled
linearity correction :  enabled
SC :  disabled
Intensity correction :  disabled
DWT denoise :  enabled
savitzky-golay :  disabled
FFT :  disabled
Running average :  disabled
Kalman :  disabled
High pass :  disabled
---------------BEGIN--------------------
Wavelength(nm)             Reflectance(%)
200.29               0
200.75         49.4884
201.21         50.6829
201.67        54.02508
202.13        58.71681
202.58        64.05046
203.04        70.24374
203.50        75.53931
203.96        75.92332
204.42         71.6694
204.88        65.59798
205.34        60.05304
205.80        55.77535
206.26         51.9934
206.72        47.66466
207.18        42.61575
207.64         39.3272
208.10        40.64631
208.55        45.92403
209.01        51.64869
209.47         55.6494
209.93         57.7633
210.39        58.59845
210.85        58.21112
211.31        56.56339
211.77        53.57778
212.23        48.78924
212.69        42.78059
213.14        39.60342
213.60        40.90311
214.06        44.88137
214.52        48.87247
214.98        51.46294
215.44        52.89665
215.90        53.51615
216.36        53.84309
216.81        54.77229
217.27        56.28403
217.73        57.97981
218.19        58.41498
218.65        55.57171
219.11        49.10687
219.57        39.30028
220.02        28.08436
220.48        21.22618
220.94        20.89995
221.40        26.33564
221.86        34.24746
222.32        39.31118
222.77        40.06121
223.23        38.03362
223.69        35.60031
224.15        36.08937
224.61        39.36198
225.06        43.53021
225.52        46.74477
225.98         47.6889
226.44        46.45856
226.90        43.80329
227.36        40.68681
227.81        38.72781
228.27        38.73441
228.73        39.97589
229.19        41.63869
229.65        42.78575
230.10        43.23088
230.56        43.26139
231.02        43.22062
231.48        43.53085
231.93        44.16096
232.39        44.92177
232.85        45.37408
233.31        44.88474
233.77        43.38594
234.22        41.13932
234.68        38.70146
235.14        36.95271
235.60        36.22396
236.05        36.31738
236.51         36.9275
236.97        37.53515
237.43        38.01188
237.88        38.66697
238.34        39.49494
238.80        40.56794
239.26        41.70524
239.71        42.47239
240.17        42.93361
240.63        43.86876
241.08        45.49778
241.54         47.7247
242.00        49.50623
242.46        48.75834
242.91        44.40746
243.37        35.33642
243.83         22.3632
244.28        14.49714
244.74        20.64271
245.20        38.78737
245.66        56.72208
246.11        64.22698
246.57        60.67799
247.03         47.0868
247.48        26.53606
247.94        18.33647
248.40        26.83257
248.85        38.99425
249.31        48.20708
249.77        53.10106
250.22        54.90015
250.68        55.26047
251.14        54.56857
251.59        53.09477
252.05        51.45359
252.51        49.51963
252.96        47.49131
253.42        46.26258
253.88        46.02752
254.33        46.44726
254.79        48.11269
255.25        51.25788
255.70        55.36957
256.16        59.85733
256.62        63.05555
257.07        63.10318
257.53        60.36087
257.99        55.69117
258.44        50.81433
258.90        48.52494
259.35        48.35825
259.81         49.4304
260.27         50.0915
260.72        48.96428
261.18        46.44037
261.63        42.84251
262.09        39.61305
262.55        38.27365
263.00        38.80192
263.46        40.50261
263.91        41.94444
264.37        41.65802
264.83        39.66943
265.28        36.63531
265.74        33.87463
266.19        32.81952
266.65        33.61648
267.11        35.49381
267.56        37.49568
268.02        38.26371
268.47        37.55233
268.93        35.84551
269.38        33.64481
269.84        31.98424
270.30        31.16989
270.75        30.90521
271.21        30.89504
271.66        30.70974
272.12        30.20313
272.57         29.5406
273.03        28.87959
273.48        28.35321
273.94        28.03537
274.39        27.82677
274.85        27.62034
275.31        27.26094
275.76        26.70926
276.22        26.03641
276.67        25.37159
277.13        24.99102
277.58        24.88179
278.04        24.97783
278.49        25.02942
278.95        24.72953
279.40        24.02538
279.86        23.11108
280.31        22.18318
280.77         21.6353
281.22        21.47713
281.68        21.59338
282.13        21.79987
282.59        21.84984
283.04        21.67815
283.50        21.39528
283.95        21.05637
284.41        20.76425
284.86        20.53553
285.32         20.3444
285.77        20.19862
286.22        20.17493
286.68        20.25928
287.13        20.41351
287.59         20.5435
288.04        20.49557
288.50        20.26322
288.95        19.87215
289.41         19.4425
289.86        19.09007
290.32        18.89817
290.77        18.82929
291.22        18.85877
291.68        18.91208
292.13        18.97698
292.59        19.08378
293.04        19.28131
293.50        19.65239
293.95        20.18865
294.40        20.83245
294.86        21.48627
295.31         22.0169
295.77        22.38979
296.22        22.64403
296.68        22.83385
297.13         23.0269
297.58        23.26966
298.04        23.55969
298.49        23.90573
298.95         24.3522
299.40        24.88554
299.85        25.48801
300.31        26.12125
300.76        26.72598
301.21        27.27024
301.67         27.7762
302.12        28.20008
302.58        28.52895
303.03         28.7558
303.48        28.90998
303.94        29.07647
304.39        29.35337
304.84        29.76279
305.30        30.25605
305.75        30.74587
306.20        31.11225
306.66        31.34013
307.11        31.46002
307.57         31.5072
308.02        31.47089
308.47        31.39041
308.93        31.25924
309.38        31.15306
309.83        31.23252
310.29        31.50213
310.74        31.91505
311.19        32.29406
311.65        32.35462
312.10         32.0487
312.55        31.47584
313.00        30.84545
313.46        30.48117
313.91        30.44542
314.36         30.6505
314.82        30.94502
315.27         31.1019
315.72        31.03795
316.18        30.83418
316.63        30.56031
317.08        30.32493
317.53        30.15997
317.99        30.01638
318.44        29.87144
318.89        29.68907
319.35        29.46067
319.80        29.20951
320.25        28.95286
320.70        28.71008
321.16        28.48508
321.61        28.27564
322.06        28.06846
322.51        27.84644
322.97         27.5997
323.42        27.33666
323.87        27.06735
324.32        26.81358
324.78        26.57636
325.23        26.35709
325.68        26.12896
326.13        25.85192
326.59        25.52251
327.04        25.17664
327.49        24.85403
327.94        24.61848
328.39        24.48547
328.85        24.42114
329.30         24.4254
329.75        24.45831
330.20        24.49151
330.66        24.50471
331.11        24.48635
331.56        24.37007
332.01         24.1431
332.46        23.82017
332.92        23.43767
333.37        23.06419
333.82           22.74
334.27        22.47643
334.72         22.2824
335.17        22.16411
335.63        22.11172
336.08        22.11887
336.53        22.19459
336.98        22.35892
337.43        22.59173
337.88        22.87692
338.34         23.0748
338.79        23.00842
339.24        22.63751
339.69        22.01762
340.14        21.37084
340.59        21.07406
341.05        21.20031
341.50        21.64148
341.95        22.16231
342.40        22.39079
342.85        22.23893
343.30        21.83925
343.75        21.33299
344.20         20.9521
344.66        20.76994
345.11        20.67826
345.56         20.6719
346.01        20.74406
346.46        20.85979
346.91        21.04122
347.36        21.14905
347.81        20.95459
348.26        20.44769
348.72        19.72935
349.17        19.00442
349.62        18.69938
350.07        18.90703
350.52        19.47337
350.97        20.17545
351.42        20.67803
351.87        20.87729
352.32        20.86792
352.77        20.69413
353.22        20.43051
353.67        20.12842
354.13        19.77756
354.58        19.42587
355.03        19.19185
355.48        19.10365
355.93        19.15288
356.38        19.27798
356.83        19.36547
357.28        19.37592
357.73        19.32019
358.18        19.23695
358.63         19.1966
359.08        19.21019
359.53        19.25258
359.98         19.2499
360.43        19.09376
360.88        18.77783
361.33        18.35024
361.78        17.92847
362.23        17.70045
362.68        17.70213
363.13        17.86044
363.58        18.06229
364.03        18.13295
364.48        18.02209
364.93        17.78589
365.38        17.46261
365.83         17.1214
366.28        16.80497
366.73        16.49717
367.18        16.23974
367.63        16.09871
368.08         16.0751
368.53        16.14951
368.98         16.2542
369.43        16.27532
369.88        16.18755
370.33        16.02651
370.78         15.8285
371.23        15.66287
371.68        15.55664
372.13        15.47927
372.58        15.44864
373.03        15.49615
373.48        15.60813
373.93        15.76834
374.38        15.89332
374.83        15.85366
375.28        15.62958
375.72        15.25446
376.17        14.84099
376.62        14.53346
377.07        14.38351
377.52        14.35516
377.97        14.40416
378.42        14.45732
378.87        14.48406
379.32        14.49895
379.77        14.51263
380.22        14.53818
380.67        14.57582
381.11         14.6187
381.56        14.62463
382.01        14.54646
382.46        14.37865
382.91        14.13492
383.36        13.89149
383.81        13.76068
384.26        13.76204
384.71        13.87142
385.15        13.98363
385.60        13.93625
386.05         13.7032
386.50        13.33654
386.95        12.97389
387.40        12.83186
387.85        12.94647
388.29        13.23707
388.74        13.54596
389.19        13.65678
389.64        13.52697
390.09        13.22395
390.54        12.87309
390.98        12.66862
391.43        12.67264
391.88        12.80933
392.33        12.96757
392.78         12.9897
393.23        12.85298
393.67        12.61217
394.12        12.38125
394.57        12.26911
395.02        12.29678
395.47        12.42118
395.91        12.57227
396.36        12.61622
396.81         12.5221
397.26        12.33006
397.71        12.11793
398.15        11.98726
398.60        11.97695
399.05        12.04795
399.50        12.12983
399.95        12.12267
400.39        12.00488
400.84        11.80276
401.29        11.60103
401.74         11.5518
402.18        11.69435
402.63        11.97122
403.08        12.24886
403.53        12.31866
403.97        12.14208
404.42        11.79457
404.87        11.42394
405.32        11.27238
405.76        11.39227
406.21        11.69758
406.66        12.04932
407.11        12.23165
407.55         12.1889
408.00        11.99228
408.45        11.72554
408.90        11.50619
409.34        11.40016
409.79         11.4214
410.24        11.51541
410.68         11.5541
411.13        11.51898
411.58        11.47788
412.03        11.44622
412.47         11.4285
412.92        11.42875
413.37        11.43246
413.81        11.45047
414.26        11.51577
414.71         11.6229
415.15        11.77027
415.60        11.89129
416.05         11.8998
416.49        11.77754
416.94        11.55945
417.39        11.32253
417.83        11.19234
418.28        11.20533
418.73         11.3168
419.17        11.46381
419.62        11.53391
420.07        11.50279
420.51        11.40584
420.96        11.28302
421.41         11.1806
421.85        11.11283
422.30        11.07353
422.74        11.05441
423.19         11.0664
423.64        11.09998
424.08        11.15875
424.53        11.21682
424.98        11.24814
425.42         11.2468
425.87        11.22415
426.31        11.17741
426.76        11.11372
427.21        11.03138
427.65        10.92087
428.10        10.83344
428.54        10.83514
428.99        10.93576
429.44          11.161
429.88        11.39424
430.33        11.37618
430.77        11.13802
431.22        10.93485
431.66        10.84626
432.11        10.87326
432.56        11.02132
433.00         11.3194
433.45        11.61649
433.89        11.67165
434.34        11.52867
434.78        11.32538
435.23        11.08173
435.67        11.57197
436.12        11.18771
436.57        11.12267
437.01        10.94243
437.46        10.85476
437.90        10.86744
438.35        10.89117
438.79        10.90161
439.24        10.90693
439.68        10.89857
440.13        10.78423
440.57        10.62574
441.02        10.69314
441.46        10.88433
441.91        10.86649
442.35        10.39487
442.80        10.21115
443.24        10.20742
443.69        10.15846
444.13         10.0498
444.58        9.977545
445.02        9.945377
445.47        9.955196
445.91        9.985146
446.36        9.977455
446.80        9.919893
447.24        9.841039
447.69        9.763334
448.13        9.696246
448.58        9.652719
449.02        9.628677
449.47        9.614859
449.91         9.59191
450.36        9.560272
450.80        9.522911
451.25        9.502043
451.69        9.519396
452.13        9.579066
452.58        9.661581
453.02        9.744514
453.47        9.789373
453.91        9.789796
454.36         9.75855
454.80        9.703848
455.24        9.642639
455.69        9.590144
456.13        9.532302
456.58        9.496065
457.02        9.514334
457.46        9.587301
457.91        9.681683
458.35        9.767192
458.79         9.81651
459.24        9.820199
459.68        9.784393
460.13        9.767347
460.57        9.762762
461.01        9.771449
461.46         10.0418
461.90        10.15661
462.34        10.06977
462.79        10.10915
463.23        9.953391
463.68        9.797442
464.12        9.690528
464.56        9.735628
465.01        9.840471
465.45        9.964624
465.89        10.05754
466.34        10.10813
466.78        10.10085
467.22        10.06569
467.67        10.12344
468.11        10.25122
468.55        10.24382
468.99        10.12759
469.44         10.1125
469.88         10.2106
470.32        10.31127
470.77        10.37427
471.21         10.3913
471.65        10.35293
472.10        10.26759
472.54        10.17377
472.98        10.16034
473.42        10.24107
473.87        10.35627
474.31        10.46931
474.75        10.58466
475.20        10.66741
475.64        10.62192
476.08        10.49965
476.52        10.47288
476.97        10.55715
477.41        10.67527
477.85        10.78835
478.29        10.86609
478.74        10.89436
479.18        10.86327
479.62        10.81307
480.06        10.80998
480.50        10.85363
480.95         10.8765
481.39        10.86323
481.83        10.84232
482.27        10.81575
482.72        10.77788
483.16        10.75292
483.60        10.78229
484.04        10.86762
484.48        11.04332
484.93        11.31709
485.37        11.44439
485.81        11.47177
486.25        11.85744
486.69        12.09633
487.14        11.68998
487.58        11.71245
488.02        12.47257
488.46         12.0827
488.90        12.19993
489.34        12.15549
489.79        12.21146
490.23        12.34233
490.67        12.46294
491.11        12.55311
491.55        12.53731
491.99        12.44088
492.43         12.4011
492.88        12.43903
493.32        12.45697
493.76        12.48177
494.20        12.60564
494.64        12.83293
495.08        13.12556
495.52        13.42983
495.96        13.67505
496.41        13.83949
496.85        13.91566
497.29        13.93829
497.73         14.0324
498.17        14.19487
498.61         14.2699
499.05        14.26842
499.49        14.35323
499.93        14.53478
500.37         14.6906
500.82        14.81944
501.26        15.04125
501.70        15.31476
502.14        15.43189
502.58        15.40793
503.02         15.4481
503.46        15.56494
503.90        15.64439
504.34        15.67402
504.78        15.68739
505.22        15.68694
505.66        15.67388
506.10        15.66139
506.54        15.66623
506.98        15.69686
507.42        15.75336
507.86        15.83884
508.30        15.95547
508.74        16.09609
509.18         16.2508
509.62        16.40508
510.06        16.53703
510.50        16.64028
510.94        16.72333
511.38        16.77763
511.82        16.79221
512.26        16.77113
512.70        16.71632
513.14        16.67013
513.58        16.69649
514.02        16.79762
514.46        16.95519
514.90        17.10839
515.34        17.10464
515.78        16.94269
516.22        16.74767
516.66        16.60685
517.10        16.30119
517.54        15.85571
517.98        16.45468
518.42        16.31925
518.86         16.5684
519.30        16.65284
519.74        16.75075
520.18        16.83441
520.62        16.83649
521.06         16.7724
521.50         16.6434
521.93        16.49217
522.37        16.39927
522.81         16.3829
523.25        16.42296
523.69        16.48858
524.13        16.52998
524.57        16.52922
525.01        16.49703
525.45        16.44589
525.89        16.39496
526.32         16.3501
526.76        16.30859
527.20        16.25339
527.64        16.16297
528.08        16.03647
528.52        15.88136
528.96        15.73747
529.40        15.66211
529.83        15.66363
530.27        15.72965
530.71        15.79785
531.15        15.77007
531.59        15.63042
532.03        15.41052
532.46        15.18802
532.90        15.10018
533.34        15.16521
533.78        15.33386
534.22        15.52256
534.66        15.60333
535.09        15.54292
535.53        15.39087
535.97        15.20018
536.41        15.05163
536.85        14.97476
537.28        14.95309
537.72        14.97892
538.16        14.99327
538.60        15.05899
539.04        15.11875
539.47        15.18356
539.91        15.27339
540.35        15.39514
540.79        15.40839
541.22        15.51041
541.66        15.59082
542.10        15.72222
542.54        15.65186
542.97        15.79937
543.41        15.88247
543.85        16.01569
544.29        16.15714
544.72        16.28256
545.16        16.40074
545.60        16.50549
546.04         16.5471
546.47        16.58197
546.91        16.80513
547.35        17.17476
547.79        17.46012
548.22        17.62381
548.66        17.72898
549.10        17.80679
549.53        17.98192
549.97        18.25558
550.41        18.29302
550.84        18.43114
551.28        18.49408
551.72        18.61643
552.15        18.78813
552.59        19.01339
553.03        19.28307
553.46        19.54089
553.90        19.71878
554.34        19.80306
554.77        19.81577
555.21        19.80723
555.65        19.84717
556.08        19.95086
556.52        20.09458
556.96         20.2513
557.39        20.40568
557.83        20.53912
558.27        20.61086
558.70        20.63448
559.14        20.67011
559.57        20.71852
560.01        20.77435
560.45        20.82549
560.88        20.81989
561.32        20.79978
561.75        20.84822
562.19        21.03222
562.63        21.10017
563.06        21.09276
563.50        21.19601
563.93        21.38465
564.37        21.55116
564.80        21.58653
565.24        21.65318
565.68        21.72203
566.11        21.79179
566.55         21.8829
566.98        21.95509
567.42         21.9978
567.85        22.27145
568.29        22.20182
568.72        22.46901
569.16        22.83845
569.60        23.10168
570.03        23.22957
570.47        23.33681
570.90        23.32202
571.34        23.66052
571.77        23.60838
572.21        23.79093
572.64        23.93266
573.08        24.14097
573.51        24.28977
573.95        24.64807
574.38        24.82056
574.82         25.0406
575.25        25.17122
575.69         24.9816
576.12         24.8026
576.56         24.7835
576.99        25.00746
577.42        25.23588
577.86        25.14003
578.29        25.10323
578.73         25.6201
579.16        25.22624
579.60         24.9966
580.03        24.94261
580.47        24.75526
580.90        24.68061
581.33        24.48845
581.77        24.60643
582.20        24.86243
582.64         24.5355
583.07        24.05152
583.51        24.33314
583.94        23.81772
584.37        23.73423
584.81        23.44774
585.24        23.43851
585.68        23.58571
586.11        23.37773
586.54        23.12441
586.98        23.00338
587.41        23.10255
587.85        23.10991
588.28        22.97704
588.71        22.80142
589.15        22.66956
589.58        22.37132
590.01        22.60486
590.45        22.96845
590.88         22.8066
591.31        22.70724
591.75        22.48642
592.18        22.55919
592.61        22.40031
593.05        22.84943
593.48        22.92728
593.91        23.16598
594.35        22.92571
594.78        22.99564
595.21        23.45864
595.65        23.66675
596.08        23.50809
596.51        23.51918
596.94        23.69299
597.38        23.89805
597.81        24.17635
598.24         24.2536
598.68        24.82893
599.11         24.9297
599.54        25.90681
599.97        25.50867
600.41        26.05126
600.84        26.60108
601.27        26.87922
601.70         27.2418
602.14        27.45796
602.57          27.842
603.00        28.36138
603.43        28.85706
603.87          29.283
604.30        29.66557
604.73         30.0272
605.16         30.5242
605.60        30.85543
606.03        31.47864
606.46        32.17546
606.89        32.62905
607.32        33.08806
607.76        33.38643
608.19        33.69409
608.62        34.16459
609.05        34.29284
609.48        34.52803
609.92        34.78039
610.35        35.03354
610.78        35.77951
611.21        36.61556
611.64        36.47576
612.07        36.78711
612.50        37.16376
612.94        37.29833
613.37        37.72069
613.80        38.05584
614.23        38.47075
614.66        38.75953
615.09        39.15482
615.52         39.5045
615.96        39.82611
616.39        40.06997
616.82        40.28112
617.25        40.28577
617.68         40.5658
618.11        40.88181
618.54        41.29477
618.97        41.43594
619.40        41.28134
619.84        41.69585
620.27        41.38232
620.70        41.81754
621.13        42.46447
621.56        42.69975
621.99        42.58935
622.42        42.56657
622.85        42.75262
623.28        42.86789
623.71        42.86313
624.14         43.1744
624.57        43.00039
625.00         42.7026
625.43        43.06723
625.86        42.46431
626.29        42.47164
626.72        42.29394
627.15        42.15899
627.58        42.09568
628.01        41.97974
628.44        41.86295
628.87        41.74318
629.30        41.08303
629.73        40.82835
630.16        40.54089
630.59        40.29496
631.02        39.96146
631.45        39.49926
631.88        39.10032
632.31        38.75706
632.74        38.36428
633.17        37.91595
633.60        37.45709
634.03        36.99235
634.46        36.51137
634.89        36.02385
635.32        35.54549
635.75        35.08266
636.18        34.63848
636.61        34.20679
637.04        33.77092
637.47        33.32515
637.89        32.87667
638.32        32.42977
638.75        32.01075
639.18        31.63137
639.61        31.29253
640.04        30.98306
640.47        30.68038
640.90        30.38047
641.33        30.09149
641.76        29.83483
642.18        29.64777
642.61        29.53128
643.04        29.47202
643.47        29.44362
643.90        29.40388
644.33        29.34289
644.76        29.27655
645.18        29.22194
645.61        29.21197
646.04        29.25872
646.47        29.35197
646.90        29.49711
647.33        29.71413
647.75        30.00528
648.18        30.32987
648.61        30.66656
649.04        31.06995
649.47         31.4991
649.89        31.74764
650.32        31.89873
650.75        32.34001
651.18        33.07961
651.61        33.73311
652.03        34.26837
652.46        35.07824
652.89        36.07739
653.32         36.4861
653.74        36.38424
654.17        37.18102
654.60        37.64087
655.03        38.63516
655.46        38.31573
655.88        40.10841
656.31        41.32341
656.74        46.52433
657.16        44.19246
657.59        41.22007
658.02        42.11082
658.45        42.53622
658.87        43.67244
659.30        44.19238
659.73        45.06115
660.15        45.51083
660.58        45.85345
661.01        45.71357
661.44        45.39195
661.86        45.65761
662.29        46.48036
662.72        47.34658
663.14         48.0214
663.57        48.13412
664.00        47.85101
664.42         47.9079
664.85        48.37428
665.27        48.80929
665.70         49.1389
666.13        49.22953
666.55        49.53503
666.98        49.63408
667.41        49.71584
667.83        49.84369
668.26        50.03516
668.69        50.28535
669.11        50.53638
669.54        50.69707
669.96        50.75191
670.39        50.74451
670.82        50.74538
671.24        50.88513
671.67        51.18207
672.09        51.68671
672.52        52.23828
672.94        52.40704
673.37        52.21668
673.80        52.05265
674.22        52.01822
674.65        52.00484
675.07        52.06162
675.50        52.28988
675.92        52.62061
676.35        52.83567
676.77         52.9003
677.20        52.88479
677.62        52.84364
678.05        52.86844
678.47        52.97872
678.90        53.13988
679.32        53.32366
679.75        53.48663
680.17        53.60989
680.60        53.73902
681.02        53.87294
681.45        53.91249
681.87        53.91025
682.30        54.04432
682.72        54.28775
683.15         54.4271
683.57        54.45959
684.00        54.41782
684.42        54.49788
684.85        54.60658
685.27        54.79487
685.70        55.04785
686.12        55.30241
686.54        55.48748
686.97        55.57965
687.39         55.5696
687.82        55.49558
688.24        55.53885
688.66        55.67499
689.09        55.67011
689.51        55.55853
689.94        55.56681
690.36        55.72494
690.78        55.87438
691.21        55.97687
691.63        56.16122
692.06        56.44243
692.48        56.35809
692.90        56.45429
693.33         56.8179
693.75        56.63972
694.17        56.71617
694.60        56.75945
695.02        56.68697
695.44        56.52054
695.87        56.58669
696.29        56.82134
696.71        56.68261
697.14        56.41434
697.56        56.48774
697.98        57.59529
698.41        58.20635
698.83        58.00893
699.25        57.58565
699.68         57.7242
700.10        57.61352
700.52        57.50916
700.94        57.86531
701.37        57.86554
701.79        58.06213
702.21        58.17276
702.64        58.24472
703.06        58.29612
703.48         58.3826
703.90        58.52377
704.33        58.68378
704.75        58.82633
705.17        58.87082
705.59        58.80502
706.01        58.65914
706.44        58.51502
706.86        58.50292
707.28        58.64309
707.70        58.88801
708.12        59.16262
708.55        59.34214
708.97        59.39352
709.39        59.36544
709.81        59.28686
710.23        59.21095
710.66        59.16669
711.08        59.14452
711.50         59.1659
711.92        59.25509
712.34        59.40975
712.76        59.67234
713.19        59.98753
713.61         60.0546
714.03        60.22251
714.45        60.19223
714.87        60.14589
715.29        60.17382
715.71        60.30054
716.13        60.50056
716.56        60.69658
716.98        60.81752
717.40        60.82558
717.82         60.7983
718.24        60.77382
718.66        60.76711
719.08        60.79392
719.50        60.86026
719.92        60.94061
720.34        60.98158
720.76        60.97371
721.19        60.93263
721.61         60.8868
722.03        60.85826
722.45        60.87765
722.87        60.88725
723.29        60.96025
723.71        61.03935
724.13        61.14409
724.55        61.27341
724.97        61.42584
725.39        61.59605
725.81        61.77495
726.23        61.95361
726.65        62.12188
727.07        62.27057
727.49        62.39523
727.91        62.49465
728.33        62.56743
728.75        62.61279
729.17        62.63597
729.59        62.64464
730.01        62.64508
730.43        62.65381
730.85        62.67761
731.27        62.68752
731.69        62.70067
732.10        62.80394
732.52        62.95772
732.94        63.03075
733.36          63.017
733.78        62.95669
734.20        62.99982
734.62          62.953
735.04        62.85932
735.46        62.86073
735.88        62.98218
736.30        62.78621
736.72        62.99283
737.13        63.11649
737.55        63.30157
737.97        63.58312
738.39        63.85751
738.81        63.76805
739.23        63.41118
739.65        63.32449
740.06        63.48528
740.48        63.65528
740.90        63.74871
741.32        63.37672
741.74        63.18103
742.16        63.13335
742.57        63.44328
742.99        63.81076
743.41        64.14466
743.83        64.38883
744.25        64.49043
744.67        64.46013
745.08        64.32784
745.50        64.12517
745.92         63.8966
746.34         63.6367
746.75        63.40363
747.17        63.28599
747.59        63.31457
748.01        63.49092
748.42        63.74614
748.84        63.99509
749.26        64.21917
749.68        64.20017
750.09         64.0534
750.51        64.48463
750.93        65.26709
751.35        65.18887
751.76        64.36447
752.18        63.97654
752.60        64.08432
753.01        64.07504
753.43        63.94127
753.85        63.90206
754.27        63.99601
754.68        64.36813
755.10        64.93732
755.52        64.94086
755.93        65.03069
756.35        65.01032
756.77        65.09841
757.18        64.98388
757.60        64.81205
758.02        64.98641
758.43        65.34839
758.85        65.65903
759.26        65.61356
759.68        65.10432
760.10        65.00153
760.51        64.92947
760.93        65.20564
761.34        64.68027
761.76        65.08073
762.18        64.85171
762.59        64.63433
763.01        64.64825
763.42        64.93043
763.84        65.47814
764.26         65.6709
764.67        65.64915
765.09        65.45093
765.50        65.69547
765.92        66.29921
766.33        66.65444
766.75        66.58271
767.16        66.13145
767.58        65.43456
768.00         65.0128
768.41        65.04525
768.83        65.24524
769.24        65.54423
769.66        66.17436
770.07        66.86141
770.49        66.78972
770.90        66.13154
771.32        66.04338
771.73        66.51946
772.15        66.60528
772.56        66.30416
772.97        66.10967
773.39        66.00401
773.80          66.033
774.22        65.89111
774.63         65.4815
775.05        65.52155
775.46        65.49619
775.88        65.64997
776.29        66.08572
776.70        66.61248
777.12         66.7962
777.53        66.56956
777.95        66.07802
778.36        65.55668
778.77        65.37377
779.19        65.62546
779.60        66.24427
780.02          66.926
780.43        67.35511
780.84        67.43854
781.26        66.87857
781.67         66.0666
782.09        66.60463
782.50        68.11158
782.91        68.18802
783.33        66.93999
783.74        66.54478
784.15        67.07491
784.57        67.34731
784.98        67.22916
785.39        66.90577
785.81        66.46328
786.22        66.23973
786.63        66.28098
787.04        66.30887
787.46        66.33135
787.87        66.55333
788.28        66.90121
788.70        67.11938
789.11        67.16441
789.52        67.10892
789.93        67.01848
790.35          67.015
790.76        67.10609
791.17        67.17535
791.58         67.2143
792.00        67.17104
792.41         67.0458
792.82        67.12001
793.23        67.28242
793.65        66.84277
794.06         66.1717
794.47        66.41387
794.88        67.27574
795.29        68.49986
795.71        68.35636
796.12        67.39935
796.53        68.12403
796.94        67.51549
797.35        66.70126
797.76        66.70578
798.18        67.45593
798.59        67.81728
799.00        67.66811
799.41        67.69276
799.82        67.89799
800.23        67.98354
800.64        67.94156
801.06        67.81784
801.47         67.7045
801.88        67.69765
802.29        67.81274
802.70        67.99191
803.11        68.15926
803.52        68.19672
803.93        68.08861
804.34        67.89358
804.75        67.64139
805.17        67.45879
805.58        67.41589
805.99        67.19783
806.40        66.91816
806.81        67.44832
807.22        68.46912
807.63        68.39539
808.04         67.4166
808.45        67.11937
808.86        67.68642
809.27        68.47905
809.68        69.23586
810.09        69.63995
810.50        69.55563
810.91        69.18407
811.32        68.70084
811.73         68.2476
812.14         67.9023
812.55        67.76976
812.96        67.78011
813.37        67.49152
813.78        67.02369
814.19        67.11927
814.60        67.65947
815.01        67.88593
815.42        67.74244
815.83        67.58299
816.24        67.51469
816.65        67.57523
817.05        67.80788
817.46        68.14667
817.87        68.47996
818.28        68.60564
818.69        68.49327
819.10        68.19862
819.51        67.87077
819.92        67.82764
820.33        68.15131
820.74        68.59594
821.14        69.03695
821.55        69.57136
821.96        69.98707
822.37        69.62207
822.78        68.67991
823.19        68.16805
823.60        68.22491
824.00        68.35902
824.41        68.43922
824.82        68.55276
825.23        68.65021
825.64        68.72123
826.04        68.78897
826.45        68.83876
826.86        68.88149
827.27         68.9129
827.68         68.9122
828.08        68.87424
828.49        68.75482
828.90           68.59
829.31        68.44135
829.72        68.41104
830.12        68.53779
830.53        68.75413
830.94        68.98563
831.35        69.08952
831.75        69.05428
832.16         68.8802
832.57        68.65851
832.97         68.5243
833.38        68.50463
833.79        68.56088
834.20        68.65038
834.60        68.69878
835.01        68.70093
835.42        68.69162
835.82        68.67947
836.23        68.62239
836.64        68.54132
837.04        68.43335
837.45         68.3562
837.86        68.45145
838.26        68.74945
838.67        69.18215
839.08        69.60863
839.48        69.75169
839.89        69.54551
840.29        69.10021
840.70        68.64169
841.11        68.43631
841.51        68.56468
841.92        68.89188
842.33        69.35918
842.73        69.86694
843.14        70.25964
843.54        70.61756
843.95        70.80409
844.35        70.67532
844.76        70.23888
845.17        69.57302
845.57        68.87378
845.98        68.46442
846.38         68.4219
846.79        68.65323
847.19         69.1018
847.60        69.52426
848.00        69.87071
848.41         70.1361
848.81        70.34047
849.22        70.43737
849.62        70.46468
850.03        70.36459
850.43        70.21548
850.84        70.08717
851.24        70.06537
851.65        70.09805
852.05        70.18248
852.46        70.23684
852.86        70.25255
853.27        70.14119
853.67        69.93118
854.07        70.08768
854.48        70.46222
854.88        70.36262
855.29        69.79008
855.69        69.53013
856.10        69.57771
856.50         69.5789
856.90        69.49645
857.31         69.5097
857.71        69.68646
858.12        69.91456
858.52        70.16437
858.92        70.28304
859.33        70.22387
859.73        70.04806
860.13        69.84587
860.54        69.79978
860.94        70.00738
861.34         70.3766
861.75        70.70618
862.15        70.76335
862.55        70.46026
862.96        69.92341
863.36        69.32105
863.76        68.91025
864.17        68.77152
864.57         68.8286
864.97        69.05916
865.38         69.4142
865.78        69.88686
866.18        70.42041
866.58         70.8193
866.99        70.74397
867.39        70.17067
867.79        69.19106
868.19        67.98997
868.60         66.8535
869.00        65.86634
869.40         65.0157
869.80        64.46523
870.21        64.44744
870.61        65.01661
871.01        66.05289
871.41        67.15304
871.81        67.66825
872.22        67.48677
872.62        66.79842
873.02        65.90536
873.42        65.55924
873.82        65.70708
874.22        65.57102
874.63        65.34901
875.03        65.52293
875.43        66.09502
875.83        68.02483
876.23        67.97477
876.63        67.40552
877.03        65.74607
877.44        63.12469
877.84        134.2639
878.24         63.2309
878.64        64.73611
879.04        69.13345
879.44        65.43882
879.84         63.3978
880.24        68.33028
880.64        68.64764
881.04        65.52818
881.44        63.61504
881.84        63.62112
882.24        64.79425
882.65        66.46262
883.05        67.27832
883.45        66.81985
883.85        65.83759
884.25        64.90253
884.65        64.56355
885.05        64.98648
885.45        65.95992
885.85        67.04935
886.25        67.55819
886.65        67.30075
887.05        66.51881
887.45        65.63052
887.85        65.25105
888.25        65.53165
888.65        66.28143
889.04        67.20405
889.44        67.71721
889.84        67.67667
890.24        67.25843
890.64        66.71756
891.04        66.43252
891.44         66.4717
891.84        66.65975
892.24        66.82891
892.64        66.71224
893.04        66.25922
893.44        65.65737
893.83        64.93785
894.23        64.14198
894.63        63.31484
895.03        62.43808
895.43        61.77188
895.83        61.75399
896.23        62.43847
896.63         63.6958
897.02        65.06804
897.42          65.712
897.82        65.42897
898.22        64.47192
898.62        63.30478
899.01        62.65458
899.41        62.73196
899.81        63.27493
900.21         64.0552
900.61        64.73481
901.00        65.18052
901.40        65.47973
901.80        65.64729
902.20        65.67595
902.59        65.58996
902.99        65.37788
903.39        65.04974
903.79        64.64324
904.18        64.19964
904.58        63.78323
904.98         63.5323
905.38        63.64782
905.77        64.13508
906.17        64.91929
906.57         65.7528
906.96        66.27434
907.36        66.33868
907.76         66.0164
908.15        65.53091
908.55        65.20143
908.95        65.13677
909.34        65.28712
909.74        65.39826
910.14        65.02307
910.53        64.09419
910.93        62.84796
911.33        61.76731
911.72        61.60486
912.12        62.44173
912.52        63.94741
912.91        65.58253
913.31        66.43017
913.70        66.32073
914.10        65.51781
914.49        64.29018
914.89        63.30249
915.29        62.82978
915.68        62.67653
916.08        62.84847
916.47        63.34588
916.87        64.05764
917.26        64.98834
917.66        65.83626
918.05         66.1285
918.45        65.74767
918.84        64.87025
919.24        63.73912
919.64        62.78572
920.03        62.18414
920.42        61.84668
920.82        61.84985
921.21        62.26028
921.61        62.98009
922.00        64.01074
922.40        64.99222
922.79        65.57201
923.19        65.66525
923.58        65.11609
923.98        64.03566
924.37        63.48267
924.77        63.90059
925.16        61.23861
925.55        62.61493
925.95        62.45522
926.34        62.87712
926.74        63.58878
927.13        64.46801
927.52        65.11285
927.92        65.39029
928.31        65.49206
928.70        65.38551
929.10        65.08328
929.49        64.64159
929.89        64.03333
930.28        63.55951
930.67        63.70626
931.07        64.49432
931.46         65.8253
931.85        67.13277
932.24        67.55923
932.64        66.91494
933.03        65.33066
933.42        63.36105
933.82        62.17195
934.21        62.11674
934.60        62.88907
934.99        63.67896
935.39        63.70209
935.78        62.84466
936.17        60.71176
936.56        57.68346
936.96        58.96214
937.35        58.52927
937.74        60.94174
938.13        63.32867
938.53        64.83008
938.92        65.34838
939.31        65.22786
939.70         64.7797
940.09        64.41273
940.49        64.34586
940.88        64.45234
941.27        64.72498
941.66        65.20821
942.05        65.85123
942.44        66.61552
942.84        67.39605
943.23        68.00229
943.62        68.33544
944.01        68.47279
944.40        68.27868
944.79        67.55164
945.18        66.31133
945.57        64.60337
945.97        62.99039
946.36        62.41837
946.75        63.16217
947.14        64.86684
947.53        66.73442
947.92        67.66571
948.31        67.45059
948.70        66.41267
949.09        65.00648
949.48        64.04404
949.87        63.80437
950.26        64.03244
950.65        64.48608
951.04        64.77319
951.43        64.75365
951.82        64.59014
952.21        64.36301
952.60         64.1632
952.99        64.02946
953.38        63.89666
953.77        63.76143
954.16        63.64716
954.55        63.55157
954.94        63.48659
955.33        63.43023
955.72        63.32736
956.11        63.17946
956.50        63.01952
956.89        62.88951
957.28        62.87099
957.66        63.00182
958.05        63.16725
958.44        63.37477
958.83        63.63903
959.22        63.93371
959.61        64.25441
960.00        64.42793
960.39        64.15421
960.78        63.40065
961.16        62.27125
961.55        61.13133
961.94        60.41568
962.33        60.23412
962.72         60.4774
963.11        60.92435
963.49        61.19567
963.88        61.09435
964.27        60.76471
964.66        60.37104
965.04        60.18835
965.43        60.28651
965.82         60.5782
966.21        60.92777
966.60        61.12652
966.98        61.13701
967.37        61.01373
967.76        60.92072
968.15         61.0955
968.53         61.5881
968.92        62.21439
969.31        62.82137
969.69        63.15989
970.08        63.09184
970.47        62.73173
970.86        62.09857
971.24        61.19202
971.63        60.13657
972.02        58.98209
972.40        57.91603
972.79        57.28404
973.17        57.19818
973.56        57.49383
973.95        58.11216
974.33        58.90707
974.72        59.62821
975.11         60.2669
975.49        60.57036
975.88        60.15113
976.26         59.0163
976.65        57.38551
977.04          55.574
977.42        54.15729
977.81        53.38239
978.19        53.06279
978.58        53.34168
978.96        54.41039
979.35        56.14208
979.74        58.58991
980.12        60.99475
980.51        61.76074
980.89        60.71463
981.28        58.29331
981.66        55.81528
982.05        55.12159
982.43        56.48519
982.82        59.32801
983.20        62.68344
983.59         64.4712
983.97        64.11142
984.35        62.13548
984.74         59.5283
985.12        57.73941
985.51         57.2092
985.89        57.46326
986.28        58.05283
986.66        58.16132
987.04        57.47786
987.43        56.51766
987.81        55.39034
988.20        54.05658
988.58        52.42659
988.96        50.20269
989.35        47.89163
989.73         47.0251
990.12        48.25665
990.50        51.10203
990.88         53.9341
991.27        54.90239
991.65        54.00685
992.03        51.70032
992.42        49.13113
992.80        48.53587
993.18        50.57967
993.56        54.21638
993.95        58.12806
994.33        60.96215
994.71        62.20147
995.10        62.34131
995.48        61.69591
995.86        60.61172
996.24        59.28252
996.63        57.57063
997.01        55.58187
997.39        53.97808
997.77        53.16872
998.15        53.11885
998.54        53.59404
998.92         54.2457
999.30        54.98061
999.68        56.00205
1000.06        56.91998
1000.45        56.60451
1000.83        54.85999
1001.21        52.24459
1001.59        49.94722
1001.97        48.88322
1002.35        48.89414
1002.73        49.69857
1003.12         50.6831
1003.50        50.51188
1003.88        48.68583
1004.26        45.87195
1004.64        42.88065
1005.02        40.69209
1005.40        39.59187
1005.78        39.25459
1006.16        39.99648
1006.54        42.22627
1006.92        45.31599
1007.30        48.51664
1007.69        50.88484
1008.07        51.74234
1008.45        50.91006
1008.83        48.35854
1009.21        43.35301
1009.59        35.96566
1009.97        27.89291
1010.35        20.49076
1010.73        16.78637
1011.11        18.77806
1011.49        25.38815
1011.86        35.56787
1012.24        44.79875
1012.62        48.49252
1013.00        46.40319
1013.38         40.1396
1013.76        32.49676
1014.14        28.49816
1014.52         29.6191
1014.90        34.33901
1015.28        40.26091
1015.66        43.35748
1016.04        42.24183
1016.41        37.95752
1016.79        31.78815
1017.17        27.12734
1017.55         25.8357
1017.93        26.57989
1018.31        28.35051
1018.69        30.36244
1019.06        32.29037
1019.44        34.28321
1019.82        35.89145
1020.20        35.66348
1020.58        33.10437
1020.95        28.74168
1021.33        23.08674
1021.71        15.71153
1022.09        5.161216
1022.46       -13.48963
1022.84       -40.10183
1023.22       -47.90197
1023.60       -22.67598
1023.97         6.35497
1024.35         22.8867
1024.73           28.45
