SpectraSmart Spectrum 2.9.0.0
--------- Device Information -----------
Spectrum Name :  反射率_0
Saving Time :  2024/04/20 00:55:13
Spectro-Module Model Name : SE2030-DUVN
Spectro-Module Serial Number : OS361AC55029948
Wavelength Start : 200
Wavelength End : 1025
Wavelength Unit : Wavelength(nm)
Spectrum Unit : Reflectance(%)
-----------Spectrum Setting ------------
Integration Time : 30ms
Average : 10
Boxcar : 0
Background removal :  enabled
linearity correction :  enabled
SC :  disabled
Intensity correction :  disabled
DWT denoise :  enabled
savitzky-golay :  disabled
FFT :  disabled
Running average :  disabled
Kalman :  disabled
High pass :  disabled
---------------BEGIN--------------------
Wavelength(nm)             Reflectance(%)
200.29               0
200.75        63.41853
201.21        63.22881
201.67        64.74297
202.13        68.93588
202.58        76.02724
203.04        86.13911
203.50        95.59685
203.96        95.87637
204.42        87.28748
204.88        75.79243
205.34         65.9428
205.80        59.34071
206.26        54.76452
206.72        50.63918
207.18        46.83832
207.64        45.38075
208.10        48.15455
208.55        54.44696
209.01        60.60741
209.47        64.54383
209.93        66.34917
210.39        66.59711
210.85        65.70982
211.31        64.19978
211.77        62.03398
212.23        58.63097
212.69        54.36123
213.14        51.99176
213.60        52.56199
214.06        55.27571
214.52        57.79093
214.98        58.55658
215.44        57.74772
215.90        55.55923
216.36        53.25606
216.81        53.75367
217.27        57.69997
217.73         63.8298
218.19        69.15726
218.65        69.82837
219.11         65.1554
219.57        55.75674
220.02        44.00641
220.48        36.66074
220.94        36.33049
221.40         41.8965
221.86        49.67237
222.32        53.76614
222.77        52.70823
223.23        48.51168
223.69        44.19313
224.15        43.89235
224.61        47.42774
225.06        52.36021
225.52        56.32556
225.98        57.46426
226.44        55.84433
226.90         52.4049
227.36        48.29865
227.81        45.54915
228.27        45.14063
228.73        46.18371
229.19        47.82547
229.65        49.07325
230.10        49.67595
230.56        49.97986
231.02        50.17543
231.48         50.4874
231.93        50.90578
232.39        51.32931
232.85        51.53308
233.31        51.24382
233.77        50.43402
234.22        49.21198
234.68        47.90635
235.14        46.97759
235.60        46.61672
236.05        46.77778
236.51        47.23026
236.97        47.58316
237.43        47.76044
237.88        47.95551
238.34        48.35847
238.80        49.75129
239.26        52.24789
239.71        55.31595
240.17        57.98995
240.63        59.59307
241.08        60.12255
241.54        59.77039
242.00        58.55297
242.46         56.2914
242.91        52.70916
243.37        46.80064
243.83        39.30421
244.28        36.02725
244.74        42.08382
245.20        56.03376
245.66        68.70784
246.11         72.5591
246.57        67.05641
247.03        52.34758
247.48        32.08654
247.94        26.39461
248.40         37.9539
248.85        52.51802
249.31        63.34471
249.77        69.14937
250.22        71.47383
250.68        72.08753
251.14        71.41132
251.59         69.8589
252.05        67.99673
252.51         65.6628
252.96        63.13513
253.42        61.38522
253.88        60.81376
254.33        61.33985
254.79        63.36928
255.25        66.82237
255.70        71.14332
256.16         75.7056
256.62         79.3749
257.07         80.9372
257.53        80.55753
257.99        78.61901
258.44        75.55159
258.90        72.84625
259.35        70.53812
259.81        69.07615
260.27        67.77027
260.72        65.98602
261.18        63.98569
261.63        61.53897
262.09        59.58101
262.55        58.85713
263.00        59.22382
263.46        60.38148
263.91        61.20339
264.37        60.70359
264.83        58.87742
265.28        56.14811
265.74        53.65121
266.19        52.48356
266.65        52.81649
267.11        54.02064
267.56        55.27987
268.02        55.44897
268.47        54.30666
268.93        52.27016
269.38        49.82078
269.84        47.97036
270.30         47.0114
270.75        46.66695
271.21         46.5887
271.66        46.23614
272.12        45.45522
272.57        44.42101
273.03        43.38604
273.48         42.6274
273.94        42.25238
274.39        42.09028
274.85        41.94255
275.31        41.49271
275.76        40.66757
276.22        39.61063
276.67        38.52276
277.13         37.8175
277.58        37.49924
278.04        37.47683
278.49        37.43126
278.95        36.99638
279.40         36.0872
279.86        34.93981
280.31        33.77389
280.77        33.05067
281.22         32.7674
281.68        32.79387
282.13        32.88874
282.59         32.7522
283.04        32.30465
283.50        31.70135
283.95         31.0362
284.41        30.48648
284.86        30.08012
285.32        29.78638
285.77         29.5872
286.22        29.53253
286.68        29.60203
287.13        29.74988
287.59         29.9048
288.04        29.92385
288.50        29.80382
288.95        29.55291
289.41        29.25174
289.86         28.9482
290.32        28.72036
290.77        28.54679
291.22        28.46827
291.68        28.50898
292.13        28.66995
292.59        28.96178
293.04        29.36578
293.50        29.86856
293.95         30.4409
294.40        31.06475
294.86        31.71404
295.31        32.36161
295.77        32.99966
296.22        33.63383
296.68        34.25092
297.13        34.81182
297.58        35.32559
298.04        35.80981
298.49        36.32258
298.95        36.99785
299.40        37.82858
299.85        38.75885
300.31         39.6861
300.76        40.44175
301.21        40.99174
301.67        41.42736
302.12        41.76285
302.58        42.09266
303.03        42.42717
303.48        42.76068
303.94        43.18191
304.39        43.78146
304.84         44.5603
305.30        45.46436
305.75        46.31213
306.20        46.85363
306.66        47.06201
307.11        47.00151
307.57         46.8303
308.02        46.70624
308.47         46.7136
308.93        46.80007
309.38        46.94588
309.83        47.17794
310.29        47.47274
310.74        47.82606
311.19        48.12697
311.65        48.18975
312.10        47.98007
312.55        47.55225
313.00        47.07113
313.46        46.79553
313.91        46.76943
314.36         46.9402
314.82        47.15936
315.27        47.20882
315.72        47.01934
316.18        46.67276
316.63        46.28785
317.08        46.06001
317.53        46.02618
317.99        46.10752
318.44        46.19074
318.89        46.08333
319.35         45.7392
319.80        45.23014
320.25        44.66121
320.70        44.19872
321.16        43.88762
321.61         43.6853
322.06        43.52609
322.51        43.30833
322.97        42.98987
323.42         42.6103
323.87        42.19848
324.32        41.80473
324.78        41.43922
325.23        41.10209
325.68        40.75111
326.13        40.33069
326.59        39.83612
327.04        39.31577
327.49        38.84002
327.94        38.52406
328.39        38.38546
328.85         38.3613
329.30        38.40607
329.75        38.37646
330.20        38.22081
330.66         37.9565
331.11        37.62299
331.56        37.22528
332.01        36.78183
332.46        36.28812
332.92        35.79344
333.37        35.40299
333.82        35.14702
334.27        35.02838
334.72        34.99143
335.17        34.92781
335.63        34.79184
336.08        34.61023
336.53        34.44538
336.98        34.42275
337.43        34.55877
337.88         34.8094
338.34         35.0098
338.79        34.94637
339.24        34.55549
339.69        33.89802
340.14        33.19571
340.59        32.82002
341.05        32.85123
341.50        33.19682
341.95        33.60025
342.40        33.65931
342.85        33.29159
343.30        32.63361
343.75        31.92351
344.20         31.5485
344.66        31.59755
345.11        31.90844
345.56        32.30075
346.01        32.48893
346.46         32.3829
346.91         32.0946
347.36        31.67157
347.81        31.17172
348.26        30.65458
348.72         30.1375
349.17        29.69307
349.62        29.52149
350.07        29.65484
350.52        30.02072
350.97        30.50163
351.42        30.91478
351.87         31.1873
352.32        31.34668
352.77        31.36464
353.22        31.20946
353.67        30.90131
354.13        30.47402
354.58        30.00183
355.03        29.64614
355.48        29.45454
355.93        29.40206
356.38        29.44366
356.83        29.49416
357.28        29.51453
357.73         29.5126
358.18        29.48479
358.63        29.42834
359.08        29.33924
359.53        29.21212
359.98        29.02601
360.43        28.75422
360.88        28.40688
361.33         28.0079
361.78        27.62647
362.23        27.37241
362.68        27.26683
363.13        27.26774
363.58        27.30801
364.03        27.28124
364.48        27.15038
364.93        26.94179
365.38        26.66379
365.83        26.33795
366.28        25.98919
366.73        25.61995
367.18        25.27127
367.63        25.00694
368.08        24.83844
368.53        24.75117
368.98        24.71019
369.43        24.65174
369.88        24.55852
370.33        24.45268
370.78        24.33564
371.23        24.21537
371.68        24.09841
372.13        23.96661
372.58        23.86064
373.03         23.8537
373.48        23.94416
373.93        24.10146
374.38        24.22343
374.83        24.15308
375.28        23.86629
375.72        23.41078
376.17        22.91732
376.62        22.55749
377.07        22.39076
377.52        22.37014
377.97        22.44054
378.42        22.51278
378.87        22.54827
379.32        22.56391
379.77        22.56692
380.22        22.56536
380.67        22.55904
381.11        22.54197
381.56        22.47512
382.01        22.32338
382.46        22.08631
382.91         21.7768
383.36        21.47145
383.81        21.28043
384.26        21.22323
384.71        21.28043
385.15        21.34268
385.60        21.24448
386.05        20.95932
386.50        20.54109
386.95        20.13923
387.40        19.98931
387.85        20.12805
388.29        20.46089
388.74        20.81901
389.19        20.95694
389.64        20.82512
390.09        20.49529
390.54        20.10418
390.98        19.86303
391.43        19.84444
391.88        19.96814
392.33        20.11066
392.78         20.0969
393.23        19.90412
393.67        19.58962
394.12        19.29916
394.57        19.16376
395.02        19.20756
395.47         19.3804
395.91        19.58631
396.36        19.63778
396.81        19.49749
397.26        19.22486
397.71        18.93671
398.15        18.78855
398.60        18.83212
399.05        18.99663
399.50        19.18093
399.95        19.24297
400.39         19.1498
400.84        18.94108
401.29        18.70014
401.74        18.57895
402.18        18.62459
402.63        18.77966
403.08        18.93944
403.53        18.93635
403.97        18.73849
404.42        18.41648
404.87        18.08472
405.32        17.92838
405.76        17.98871
406.21        18.19998
406.66        18.46024
407.11        18.61126
407.55        18.61076
408.00        18.51125
408.45        18.36499
408.90        18.21617
409.34         18.1152
409.79        18.12879
410.24        18.20861
410.68        18.20635
411.13        18.11228
411.58        18.00852
412.03        17.91871
412.47        17.85615
412.92        17.82787
413.37        17.82074
413.81        17.83966
414.26        17.90694
414.71        18.01191
415.15        18.15643
415.60        18.26789
416.05        18.25572
416.49        18.10252
416.94        17.84262
417.39        17.56388
417.83        17.40904
418.28        17.41829
418.73        17.54191
419.17        17.70506
419.62        17.77908
420.07        17.73489
420.51        17.61356
420.96        17.46541
421.41        17.34787
421.85        17.27717
422.30        17.24684
422.74        17.24282
423.19        17.27564
423.64        17.33264
424.08        17.42059
424.53        17.50794
424.98        17.56608
425.42        17.58745
425.87        17.57999
426.31        17.54091
426.76        17.47868
427.21        17.38892
427.65        17.26051
428.10        17.14559
428.54        17.10649
428.99        17.16046
429.44          17.368
429.88         17.5948
430.33        17.51529
430.77        17.18101
431.22         16.9539
431.66        16.91658
432.11        17.00284
432.56        17.19907
433.00         17.5703
433.45        17.89765
433.89        17.83154
434.34        17.47045
434.78        17.05057
435.23        16.62605
435.67        17.29228
436.12        16.80259
436.57        16.80183
437.01        16.66335
437.46         16.6526
437.90        16.76632
438.35        16.87294
438.79        16.92753
439.24        16.93889
439.68        16.89978
440.13        16.66929
440.57        16.37421
441.02        16.48218
441.46        16.84525
441.91        16.93283
442.35        16.32186
442.80        16.11253
443.24        16.13607
443.69        16.05217
444.13        15.86185
444.58        15.74885
445.02        15.73056
445.47        15.79472
445.91        15.90077
446.36        15.94692
446.80        15.90841
447.24        15.83529
447.69        15.75178
448.13        15.65978
448.58        15.57631
449.02         15.4959
449.47        15.42321
449.91        15.36081
450.36        15.31479
450.80        15.28335
451.25        15.27169
451.69        15.26829
452.13        15.27439
452.58        15.28434
453.02        15.29707
453.47        15.31106
453.91        15.32655
454.36        15.34195
454.80        15.34821
455.24        15.33157
455.69        15.29673
456.13        15.23144
456.58        15.17092
457.02        15.15837
457.46        15.19768
457.91        15.24152
458.35        15.26571
458.79        15.27084
459.24        15.24986
459.68        15.20852
460.13        15.21024
460.57         15.2072
461.01        15.18931
461.46        15.55766
461.90        15.68919
462.34        15.56355
462.79        15.69224
463.23        15.56056
463.68        15.42735
464.12        15.30412
464.56        15.33426
465.01        15.40014
465.45        15.47563
465.89        15.53638
466.34        15.57576
466.78        15.55068
467.22        15.49231
467.67        15.56068
468.11        15.71441
468.55        15.65453
468.99        15.42504
469.44        15.34843
469.88        15.44611
470.32        15.54676
470.77         15.6127
471.21        15.66438
471.65        15.68977
472.10        15.68553
472.54        15.66803
472.98        15.69793
473.42        15.78125
473.87        15.85257
474.31         15.8994
474.75        16.00059
475.20         16.1189
475.64        16.08555
476.08        15.95281
476.52        15.94176
476.97        16.06609
477.41        16.22598
477.85        16.36662
478.29        16.44646
478.74        16.45219
479.18         16.3686
479.62        16.27528
480.06        16.30149
480.50        16.44692
480.95        16.59506
481.39        16.69483
481.83        16.74623
482.27        16.74034
482.72         16.6819
483.16        16.61163
483.60        16.59094
484.04         16.6285
484.48        16.78358
484.93        17.08888
485.37        17.21173
485.81        17.29978
486.25         17.9246
486.69        18.51618
487.14        18.03232
487.58        17.85128
488.02        18.54077
488.46        18.17281
488.90        18.31718
489.34        18.25389
489.79        18.41013
490.23        18.72016
490.67        18.94067
491.11        19.04909
491.55        19.06486
491.99        19.02345
492.43        19.02407
492.88        19.08891
493.32         19.1418
493.76        19.20938
494.20        19.36145
494.64        19.59991
495.08        19.93439
495.52        20.29875
495.96        20.51308
496.41        20.60085
496.85        20.75176
497.29        20.97342
497.73        21.20206
498.17        21.40668
498.61        21.48012
499.05        21.46003
499.49        21.56588
499.93        21.81893
500.37        22.04685
500.82        22.23106
501.26         22.5062
501.70        22.81696
502.14        22.90405
502.58        22.81042
503.02         22.8317
503.46        22.99209
503.90        23.13909
504.34        23.23433
504.78        23.28384
505.22        23.28081
505.66        23.23465
506.10        23.18698
506.54        23.19966
506.98         23.2902
507.42        23.44379
507.86        23.62963
508.30        23.79561
508.74        23.92189
509.18        24.01591
509.62         24.0963
510.06        24.19371
510.50         24.3152
510.94        24.45262
511.38        24.57089
511.82        24.61614
512.26        24.58063
512.70        24.48196
513.14        24.38293
513.58        24.37699
514.02        24.47609
514.46        24.65536
514.90         24.8431
515.34        24.86047
515.78        24.72296
516.22         24.5358
516.66        24.39944
517.10        24.13692
517.54        23.77559
517.98         24.3765
518.42        24.31618
518.86        24.59019
519.30        24.69438
519.74        24.79393
520.18        24.86438
520.62        24.84633
521.06        24.75612
521.50        24.59493
521.93        24.40709
522.37        24.27551
522.81        24.22099
523.25        24.22631
523.69        24.26071
524.13        24.27247
524.57        24.24408
525.01        24.18743
525.45        24.11841
525.89         24.0612
526.32        24.02179
526.76         23.9952
527.20        23.95823
527.64        23.88037
528.08         23.7575
528.52        23.59763
528.96        23.44451
529.40        23.36271
529.83         23.3604
530.27        23.42349
530.71        23.48359
531.15        23.43414
531.59        23.25987
532.03        23.00025
532.46        22.73717
532.90        22.61697
533.34        22.66065
533.78        22.81528
534.22        23.00524
534.66         23.1143
535.09        23.10631
535.53        23.02768
535.97        22.90612
536.41        22.78236
536.85        22.67793
537.28        22.59014
537.72        22.54327
538.16        22.50797
538.60        22.59569
539.04        22.70342
539.47        22.81987
539.91        22.93447
540.35        23.05036
540.79        22.97567
541.22        23.03691
541.66        23.11676
542.10        23.33191
542.54        23.29041
542.97        23.58322
543.41         23.7383
543.85        23.91308
544.29        24.05787
544.72        24.16422
545.16        24.28887
545.60        24.43027
546.04        24.49936
546.47         24.5539
546.91        24.84011
547.35        25.29119
547.79        25.59078
548.22        25.71105
548.66        25.78275
549.10        25.85894
549.53        26.10569
549.97        26.52237
550.41        26.62316
550.84        26.88979
551.28        27.06265
551.72        27.30572
552.15        27.55092
552.59        27.79893
553.03        28.05272
553.46        28.27658
553.90        28.44737
554.34        28.55829
554.77        28.61931
555.21        28.66514
555.65        28.73649
556.08        28.84172
556.52        28.96891
556.96        29.10258
557.39        29.25487
557.83        29.40911
558.27        29.49139
558.70        29.51992
559.14        29.58378
559.57        29.68043
560.01         29.8029
560.45        29.91217
560.88        29.91056
561.32        29.85555
561.75        29.84185
562.19        30.00039
562.63        30.10708
563.06        30.19225
563.50        30.33063
563.93        30.49643
564.37         30.7045
564.80        30.80053
565.24        30.91586
565.68        31.00681
566.11        31.10403
566.55        31.23375
566.98        31.34691
567.42        31.41927
567.85        31.73175
568.29        31.59262
568.72        31.87816
569.16        32.32139
569.60        32.65743
570.03         32.8474
570.47        33.05828
570.90        33.11885
571.34        33.57482
571.77        33.38287
572.21         33.6203
572.64        33.98449
573.08        34.02511
573.51        34.22088
573.95        34.66216
574.38        34.98705
574.82        35.25759
575.25        35.56916
575.69        35.34842
576.12        35.11834
576.56        34.97005
576.99        35.04799
577.42        35.32282
577.86        35.30271
578.29        35.27077
578.73        35.87671
579.16        35.73092
579.60        35.15731
580.03         34.9328
580.47        35.06108
580.90        34.80076
581.33        34.62236
581.77        34.54462
582.20        35.30535
582.64        34.93173
583.07        34.43901
583.51        34.39708
583.94        33.78384
584.37        33.72857
584.81        33.35817
585.24        33.31076
585.68        33.33993
586.11        33.29753
586.54        33.07813
586.98        32.96224
587.41        33.07036
587.85        33.05671
588.28        32.91654
588.71        32.77131
589.15        32.70034
589.58        32.27292
590.01        32.28137
590.45        32.75915
590.88        32.63132
591.31        32.49355
591.75        31.97675
592.18        32.13288
592.61        32.17287
593.05        32.78165
593.48        32.52957
593.91        33.27769
594.35        32.68414
594.78        32.84985
595.21        33.05957
595.65        33.56487
596.08        33.63735
596.51        33.66992
596.94        33.60147
597.38        33.68361
597.81        33.99377
598.24        34.30667
598.68        34.84454
599.11        35.06301
599.54        36.16986
599.97        35.90099
600.41        35.96303
600.84        36.65927
601.27        37.19069
601.70        37.62625
602.14        38.01644
602.57        38.41788
603.00        38.93845
603.43        39.41036
603.87        39.81441
604.30        40.25211
604.73         40.6951
605.16        41.23168
605.60        41.54324
606.03        42.08559
606.46        42.59068
606.89        43.38852
607.32        43.72202
607.76        43.89155
608.19        44.22508
608.62        44.96118
609.05        44.98552
609.48        45.18637
609.92        45.50729
610.35        45.59988
610.78        46.40499
611.21        47.15772
611.64        46.92022
612.07        47.34948
612.50        47.87224
612.94        47.68108
613.37        48.31701
613.80        48.52573
614.23        48.79679
614.66        49.15092
615.09         49.3978
615.52        49.85085
615.96        50.31208
616.39        50.64914
616.82        50.90971
617.25        50.60844
617.68        50.92947
618.11        51.29833
618.54        51.86588
618.97        51.95072
619.40        51.65105
619.84        51.32822
620.27        51.44733
620.70        51.89982
621.13          52.602
621.56        52.79126
621.99        52.62046
622.42        52.58506
622.85        53.01044
623.28        53.22663
623.71        53.28556
624.14        53.25737
624.57        53.07431
625.00        52.91912
625.43        53.24908
625.86        52.47311
626.29        52.68449
626.72        52.55238
627.15          52.464
627.58        52.41306
628.01        52.25409
628.44        52.34777
628.87        52.01918
629.30        51.51669
629.73        51.26648
630.16        51.01939
630.59        50.59423
631.02         50.3109
631.45        50.05714
631.88        49.71004
632.31        49.23037
632.74        48.97198
633.17        48.38023
633.60        47.91841
634.03        47.42884
634.46        46.92954
634.89        46.41682
635.32        45.89618
635.75        45.38102
636.18        44.87339
636.61        44.39487
637.04        43.97182
637.47        43.60337
637.89        43.28183
638.32        42.96875
638.75        42.62783
639.18        42.25149
639.61        41.85605
640.04        41.46117
640.47        41.09575
640.90        40.77174
641.33         40.4845
641.76         40.2367
642.18        40.03581
642.61        39.87464
643.04        39.75509
643.47        39.67154
643.90        39.61268
644.33        39.57652
644.76        39.56962
645.18        39.58717
645.61        39.62523
646.04        39.68437
646.47        39.76169
646.90        39.88603
647.33        40.10289
647.75        40.42168
648.18        40.83016
648.61        41.27015
649.04        41.65625
649.47        41.97553
649.89        42.21367
650.32         42.4593
650.75        42.94596
651.18        43.65681
651.61         44.3196
652.03         44.9161
652.46        45.58857
652.89        46.28783
653.32        46.80354
653.74         47.2367
654.17        47.49825
654.60         48.2845
655.03        49.28711
655.46        48.52409
655.88        50.90145
656.31        52.39444
656.74        60.33793
657.16        57.02241
657.59         52.3854
658.02        52.61005
658.45        52.81425
658.87        54.35639
659.30        54.68238
659.73        54.89526
660.15        55.80272
660.58        55.68799
661.01         55.5938
661.44         55.1818
661.86         55.4992
662.29        56.43651
662.72        57.28402
663.14         57.8098
663.57        57.71642
664.00        57.24717
664.42        57.20628
664.85        57.68292
665.27        58.19437
665.70        58.65412
666.13        58.85493
666.55        59.40469
666.98        59.56859
667.41        59.59045
667.83        59.66077
668.26        59.80645
668.69        59.92909
669.11        60.01955
669.54         60.1234
669.96        60.24907
670.39        60.38807
670.82        60.55966
671.24        60.79354
671.67        61.08239
672.09        61.37354
672.52        61.63051
672.94        61.85452
673.37        61.99345
673.80         61.8951
674.22        61.68657
674.65        61.52819
675.07        61.81846
675.50        62.11259
675.92        62.42093
676.35        62.57587
676.77        62.53957
677.20        62.48168
677.62        62.30553
678.05        62.23791
678.47        62.38549
678.90        62.60683
679.32        62.88703
679.75        63.13416
680.17        63.31581
680.60         63.4864
681.02        63.62803
681.45        63.68953
681.87        63.82393
682.30        63.89526
682.72        63.95631
683.15        64.01482
683.57        64.08887
684.00        64.10575
684.42         64.2019
684.85        64.31546
685.27        64.47935
685.70        64.68594
686.12        64.88548
686.54        65.03332
686.97        65.11284
687.39        65.09752
687.82        65.02686
688.24        65.10284
688.66        65.29778
689.09        65.32201
689.51        65.26765
689.94        65.24664
690.36        65.31609
690.78        65.31295
691.21        65.25246
691.63        65.39376
692.06        65.74368
692.48        65.67641
692.90        65.83411
693.33        66.17954
693.75        66.10246
694.17        66.26786
694.60        66.37744
695.02        66.17155
695.44        65.72212
695.87        65.58063
696.29        65.74789
696.71        65.74306
697.14        65.69373
697.56        66.02819
697.98        66.51621
698.41        67.58308
698.83        67.06293
699.25        66.93754
699.68        66.79745
700.10        66.68921
700.52        66.70143
700.94         66.7542
701.37        66.79604
701.79        67.15162
702.21        67.13465
702.64        67.27232
703.06        67.38299
703.48         67.5179
703.90        67.68251
704.33         67.8142
704.75        67.96877
705.17        67.96669
705.59        67.82919
706.01         67.5892
706.44        67.38055
706.86        67.40086
707.28        67.67361
707.70        68.14858
708.12        68.67978
708.55        68.90839
708.97        68.97196
709.39        68.79814
709.81        68.53615
710.23        68.34284
710.66          68.283
711.08        68.31332
711.50           68.41
711.92        68.52956
712.34        68.64928
712.76        68.84461
713.19        69.07998
713.61        69.05989
714.03         69.1993
714.45        69.14458
714.87        69.09235
715.29        69.13477
715.71         69.2929
716.13        69.53058
716.56        69.76173
716.98        69.92887
717.40        69.97019
717.82        69.93233
718.24        69.86609
718.66          69.798
719.08        69.74057
719.50        69.89459
719.92        69.85513
720.34        69.90104
720.76         69.9081
721.19        69.89727
721.61        69.88638
722.03        69.87058
722.45        69.87782
722.87         69.8924
723.29        69.92356
723.71        69.96864
724.13        70.03439
724.55        70.13941
724.97        70.27979
725.39        70.42985
725.81        70.58042
726.23        70.73554
726.65        70.88663
727.07        71.02093
727.49        71.13256
727.91        71.21785
728.33         71.2757
728.75        71.30679
729.17        71.31857
729.59        71.32166
730.01        71.31377
730.43        71.30852
730.85        71.31654
731.27        71.27752
731.69         71.2326
732.10        71.39931
732.52        71.70259
732.94        71.79089
733.36        71.66575
733.78        71.62979
734.20        71.70956
734.62        71.72759
735.04        71.65459
735.46        71.60308
735.88        71.58311
736.30        71.29375
736.72        71.23425
737.13        71.36796
737.55        71.72228
737.97        72.19156
738.39        72.58542
738.81        72.39499
739.23        71.80084
739.65        71.71945
740.06         72.0982
740.48        72.38509
740.90        72.47471
741.32        71.86681
741.74        71.69284
742.16        71.55135
742.57        71.80388
742.99        72.11526
743.41         72.3932
743.83        72.58829
744.25        72.64532
744.67        72.57771
745.08        72.43111
745.50        72.25871
745.92        72.10286
746.34        71.94044
746.75        71.80788
747.17        71.74228
747.59        71.75427
748.01        71.92284
748.42        72.17254
748.84        72.22392
749.26        72.13983
749.68        72.13799
750.09        72.27798
750.51        72.68869
750.93        73.17313
751.35        73.10486
751.76         72.5858
752.18        72.16987
752.60        72.28954
753.01        72.28259
753.43        72.07309
753.85        72.07273
754.27        72.20828
754.68        72.64032
755.10        73.22382
755.52        72.93755
755.93        72.64214
756.35        72.61349
756.77        73.04381
757.18        73.14756
757.60        73.01723
758.02        73.12011
758.43        73.32392
758.85        73.74316
759.26        73.87569
759.68        73.06158
760.10        73.30383
760.51        73.03412
760.93         72.9975
761.34        72.38007
761.76        72.71844
762.18        72.51521
762.59        72.32578
763.01        72.28778
763.42        72.82646
763.84        73.21486
764.26        73.49182
764.67        73.49548
765.09        73.38023
765.50         73.7051
765.92        74.33835
766.33        74.40022
766.75        73.83955
767.16        73.40685
767.58        73.17366
768.00        72.83557
768.41        72.54404
768.83        72.68089
769.24        73.17573
769.66        73.70477
770.07        74.08674
770.49        74.08869
770.90        73.82468
771.32        73.90599
771.73        74.30128
772.15        74.35658
772.56        74.07428
772.97         73.8908
773.39        73.79268
773.80        73.58112
774.22        73.24783
774.63        72.88795
775.05        72.60942
775.46        72.58946
775.88        72.83541
776.29        73.32951
776.70        73.85779
777.12        74.09251
777.53          73.961
777.95        73.51469
778.36        72.98367
778.77        72.77074
779.19         72.9844
779.60        73.56219
780.02        74.18518
780.43        74.56864
780.84        74.63507
781.26        73.93205
781.67        72.99837
782.09        73.80674
782.50        75.86731
782.91        76.12004
783.33        74.65168
783.74        74.20079
784.15        74.78982
784.57        74.92333
784.98        74.51597
785.39        74.08733
785.81        73.72733
786.22        73.59381
786.63        73.68409
787.04         73.7017
787.46        73.67134
787.87         73.8938
788.28        74.31216
788.70        74.60045
789.11        74.71094
789.52        74.76662
789.93        74.79307
790.35        74.81192
790.76        74.81276
791.17        74.72684
791.58        74.58915
792.00        74.37218
792.41        74.09034
792.82        74.22706
793.23        74.26278
793.65        73.86612
794.06        73.20082
794.47        73.49133
794.88        74.48194
795.29        75.33879
795.71        74.88637
796.12        74.62991
796.53        74.97178
796.94        74.46288
797.35        73.55007
797.76        73.48563
798.18        74.21172
798.59        74.57258
799.00        74.47672
799.41        74.61863
799.82        74.95654
800.23        75.08535
800.64        74.97482
801.06        74.69375
801.47        74.41261
801.88        74.35458
802.29        74.56226
802.70        74.93739
803.11        75.31511
803.52        75.42684
803.93        75.22379
804.34        74.82219
804.75        74.33447
805.17        74.03195
805.58        74.02974
805.99        73.92133
806.40        73.79594
806.81        74.58793
807.22        75.90411
807.63          75.932
808.04        74.86589
808.45        74.54933
808.86        75.15925
809.27        75.80437
809.68        76.28999
810.09        76.60517
810.50        76.65622
810.91        76.52334
811.32        76.27768
811.73        75.93382
812.14        75.53049
812.55        75.17515
812.96        74.87906
813.37        74.45036
813.78        74.01091
814.19        74.02977
814.60        74.41317
815.01        74.62823
815.42        74.62386
815.83        74.65498
816.24        74.76373
816.65        74.90096
817.05        75.07679
817.46        75.25003
817.87        75.38616
818.28        75.39338
818.69        75.26771
819.10        75.04246
819.51        74.82068
819.92        74.79736
820.33        75.02074
820.74        75.38816
821.14        75.81219
821.55        76.19363
821.96        76.45081
822.37        76.45654
822.78        76.25484
823.19        76.07801
823.60        75.97245
824.00        75.84449
824.41        75.67656
824.82        75.60155
825.23        75.63289
825.64         75.7449
826.04        75.91121
826.45          76.036
826.86        76.10184
827.27        76.13015
827.68        76.10553
828.08        76.03249
828.49        75.86445
828.90        75.62658
829.31        75.38927
829.72        75.28072
830.12        75.35017
830.53        75.53183
830.94        75.74129
831.35        75.81112
831.75        75.72877
832.16          75.502
832.57         75.2447
832.97        75.13128
833.38        75.18798
833.79        75.35094
834.20        75.54944
834.60         75.6686
835.01        75.68996
835.42        75.66517
835.82        75.59348
836.23        75.41398
836.64        75.16096
837.04        74.84363
837.45        74.58085
837.86        74.61531
838.26        74.99633
838.67        75.62063
839.08        76.27801
839.48        76.55863
839.89        76.35346
840.29        75.82003
840.70        75.22549
841.11        74.88973
841.51        74.91952
841.92        75.15672
842.33        75.58308
842.73        76.17233
843.14        76.76873
843.54        77.43684
843.95        77.94112
844.35        77.97865
844.76         77.5155
845.17        76.66738
845.57         75.7261
845.98        75.16656
846.38        75.10896
846.79        75.43562
847.19        76.02092
847.60        76.48178
848.00        76.74199
848.41        76.83616
848.81        76.91071
849.22        77.10789
849.62        77.50141
850.03        77.96809
850.43        78.41071
850.84        78.56921
851.24        78.43023
851.65        78.01741
852.05        77.53085
852.46        77.17923
852.86        77.04198
853.27        77.08064
853.67        77.14951
854.07        77.15634
854.48        77.04196
854.88        76.88673
855.29        76.67644
855.69        76.53745
856.10        76.41819
856.50         76.3576
856.90        76.34192
857.31        76.39052
857.71        76.57009
858.12        76.81429
858.52        77.06546
858.92        77.12111
859.33        76.92996
859.73        76.57456
860.13        76.19569
860.54        76.07677
860.94        76.35908
861.34        76.91335
861.75        77.49492
862.15        77.80679
862.55        77.71805
862.96        77.34709
863.36        76.85136
863.76        76.46489
864.17        76.27596
864.57        76.23933
864.97        76.32686
865.38        76.47852
865.78        76.70858
866.18        76.96243
866.58        77.17654
866.99         77.2366
867.39          77.152
867.79        76.92385
868.19        76.48048
868.60        75.69694
869.00        74.56562
869.40        73.19199
869.80        71.94605
870.21        71.43455
870.61        71.84883
871.01        72.95208
871.41         74.2691
871.81        75.03487
872.22        75.06057
872.62        74.57337
873.02        73.81998
873.42        73.39577
873.82        73.29349
874.22         72.9038
874.63        72.41031
875.03        72.31422
875.43        72.66171
875.83        74.21142
876.23        74.31224
876.63         74.1034
877.03        73.11015
877.44        71.69381
877.84        125.5435
878.24        72.12222
878.64        73.40541
879.04        76.12999
879.44         72.6051
879.84        70.62004
880.24         74.6171
880.64          75.134
881.04        72.96811
881.44        71.51246
881.84        71.20483
882.24        71.55341
882.65          72.225
883.05        72.51287
883.45        72.15093
883.85        71.64518
884.25        71.27281
884.65        71.19317
885.05        71.47343
885.45        72.04453
885.85        72.64608
886.25        72.86906
886.65        72.61446
887.05        72.00108
887.45        71.36041
887.85        71.18938
888.25        71.59603
888.65        72.45382
889.04        73.42758
889.44        73.85045
889.84        73.59031
890.24        72.84259
890.64        72.01934
891.04        71.74137
891.44          72.111
891.84        72.88276
892.24        73.69051
892.64        73.91491
893.04        73.41151
893.44        72.48331
893.83        71.34608
894.23        70.31792
894.63        69.50884
895.03        68.82213
895.43        68.41563
895.83          68.565
896.23        69.26889
896.63        70.43629
897.02        71.69344
897.42        72.32687
897.82        72.16093
898.22        71.39064
898.62        70.34465
899.01        69.54919
899.41        69.20523
899.81        69.15089
900.21        69.32185
900.61        69.62223
901.00        69.97926
901.40        70.40166
901.80        70.82652
902.20        71.11135
902.59        71.22684
902.99        71.20587
903.39        71.03148
903.79         70.6959
904.18        70.23899
904.58          69.714
904.98        69.35668
905.38        69.53169
905.77        70.26177
906.17        71.42715
906.57        72.63159
906.96        73.27706
907.36        73.17342
907.76        72.46416
908.15        71.53645
908.55        70.96252
908.95        70.92168
909.34        71.31395
909.74        71.73409
910.14         71.4786
910.53        70.41537
910.93        68.85987
911.33        67.48349
911.72        67.32402
912.12        68.50185
912.52        70.56169
912.91        72.74718
913.31        73.83376
913.70        73.58063
914.10        72.33668
914.49        70.53267
914.89        69.13406
915.29        68.55248
915.68        68.51141
916.08        68.91092
916.47        69.59084
916.87        70.39512
917.26         71.3652
917.66        72.24832
918.05        72.64095
918.45        72.43266
918.84        71.77135
919.24        70.79744
919.64        69.79261
920.03        68.91747
920.42        68.14613
920.82        67.72676
921.21        67.97838
921.61        68.84933
922.00        70.26101
922.40        71.68855
922.79        72.49812
923.19        72.50043
923.58        71.67269
923.98        70.24995
924.37        69.36099
924.77        69.50327
925.16        67.18813
925.55        68.39165
925.95        68.31737
926.34        68.73014
926.74        69.40798
927.13        70.27027
927.52         71.0022
927.92        71.47973
928.31        71.83281
928.70        71.96704
929.10        71.78474
929.49        71.31551
929.89        70.59145
930.28        69.92078
930.67        69.79571
931.07        70.27886
931.46         71.2784
931.85        72.38117
932.24        72.96471
932.64        72.86794
933.03        72.17418
933.42        71.18109
933.82         70.5338
934.21        70.41057
934.60        70.64663
934.99        70.75793
935.39        70.32576
935.78        69.30678
936.17        67.32362
936.56        64.62498
936.96         65.4653
937.35        64.79957
937.74        66.54266
938.13        68.36404
938.53        69.62424
938.92        70.24278
939.31        70.46769
939.70        70.46626
940.09        70.39378
940.49        70.36786
940.88        70.34566
941.27        70.41099
941.66        70.74612
942.05        71.34517
942.44        72.11581
942.84        72.95348
943.23        73.68164
943.62        74.18692
944.01        74.55107
944.40        74.57943
944.79        73.96939
945.18        72.71326
945.57        70.86437
945.97        69.04565
946.36        68.34688
946.75         69.0857
947.14        70.88148
947.53        72.85538
947.92        73.79173
948.31        73.46361
948.70        72.22714
949.09        70.63553
949.48         69.6664
949.87        69.63521
950.26        70.23579
950.65        71.07784
951.04         71.5257
951.43        71.37897
951.82        70.86974
952.21        70.24249
952.60        69.85441
952.99        69.80569
953.38        69.94283
953.77         70.1233
954.16        70.14977
954.55        69.96812
954.94        69.67693
955.33        69.34841
955.72        69.07422
956.11        68.90931
956.50        68.83475
956.89        68.87587
957.28        69.08248
957.66        69.43855
958.05        69.81558
958.44        70.17245
958.83        70.45497
959.22        70.63995
959.61        70.76341
960.00        70.66583
960.39        70.09486
960.78        69.05849
961.16        67.63715
961.55        66.31218
961.94        65.68441
962.33        65.86617
962.72        66.71387
963.11        67.73939
963.49        68.09576
963.88        67.48563
964.27        66.20499
964.66        64.79194
965.04        64.14024
965.43         64.4758
965.82        65.51915
966.21        66.83826
966.60        67.73132
966.98         67.9968
967.37        67.83279
967.76        67.51935
968.15        67.48174
968.53        67.84453
968.92        68.34183
969.31        68.82499
969.69        69.07451
970.08        68.95172
970.47        68.59819
970.86        67.99847
971.24        67.06753
971.63        65.92065
972.02        64.64793
972.40        63.49365
972.79         62.8939
973.17        62.99599
973.56        63.58857
973.95        64.60613
974.33        65.88358
974.72        67.11896
975.11        68.27651
975.49        69.00086
975.88        68.76853
976.26        67.56234
976.65        65.62726
977.04        63.39078
977.42        61.62373
977.81        60.64677
978.19        60.27937
978.58        60.56497
978.96        61.52517
979.35        62.98231
979.74        65.02078
980.12        67.09028
980.51        67.93817
980.89          67.414
981.28        65.78445
981.66        63.97301
982.05        63.32627
982.43        64.04377
982.82        65.70317
983.20        67.67868
983.59        68.53079
983.97        67.93324
984.35        66.28769
984.74         64.2868
985.12        62.88651
985.51        62.39228
985.89        62.49087
986.28        62.98249
986.66        63.53903
987.04        63.88161
987.43        64.17833
987.81        64.22337
988.20        63.73387
988.58        62.60171
988.96        60.66668
989.35        58.24854
989.73        56.62659
990.12        56.53219
990.50        57.78635
990.88        59.33983
991.27        59.88562
991.65        59.39536
992.03        58.18721
992.42        57.05347
992.80        57.44193
993.18        59.68683
993.56        63.00067
993.95        66.29435
994.33        68.53962
994.71        69.33855
995.10        69.03071
995.48        68.06518
995.86        67.02541
996.24          66.148
996.63        65.35984
997.01        64.41721
997.39        63.03935
997.77        61.36642
998.15        59.69846
998.54         58.6619
998.92        58.87399
999.30        60.41471
999.68        63.45655
1000.06        67.12476
1000.45         68.2042
1000.83        65.47408
1001.21        60.48505
1001.59        55.87201
1001.97        53.72592
1002.35        53.90252
1002.73        55.73262
1003.12        58.35979
1003.50        59.79564
1003.88        59.01885
1004.26        56.83484
1004.64        54.08437
1005.02          51.844
1005.40        50.48057
1005.78        49.56463
1006.16        49.51415
1006.54        51.08764
1006.92        53.88268
1007.30        57.18668
1007.69        59.93324
1008.07        61.27854
1008.45        61.08961
1008.83        59.41763
1009.21        55.90111
1009.59        51.08522
1009.97        46.39754
1010.35        42.52975
1010.73        40.91086
1011.11        42.21938
1011.49        45.79094
1011.86        51.34956
1012.24        56.27434
1012.62        58.15908
1013.00        56.87489
1013.38        53.22447
1013.76        48.79433
1014.14        46.45571
1014.52        47.04645
1014.90        49.75832
1015.28        53.06551
1015.66         54.3849
1016.04        52.84966
1016.41        49.03309
1016.79        44.13873
1017.17        41.27415
1017.55        41.71835
1017.93        44.09546
1018.31        46.84154
1018.69        48.58423
1019.06        49.12496
1019.44        48.73049
1019.82         47.5191
1020.20        45.71023
1020.58        43.58257
1020.95        41.20184
1021.33        38.29591
1021.71        33.45339
1022.09        25.14903
1022.46         9.58388
1022.84       -13.77776
1023.22       -22.79032
1023.60       -3.550836
1023.97         19.9211
1024.35        33.65847
1024.73        38.67268
