SpectraSmart Spectrum 2.9.0.0
--------- Device Information -----------
Spectrum Name :  反射率_0
Saving Time :  2024/04/20 00:24:50
Spectro-Module Model Name : SE2030-DUVN
Spectro-Module Serial Number : OS361AC55029948
Wavelength Start : 200
Wavelength End : 1025
Wavelength Unit : Wavelength(nm)
Spectrum Unit : Reflectance(%)
-----------Spectrum Setting ------------
Integration Time : 30ms
Average : 10
Boxcar : 0
Background removal :  enabled
linearity correction :  enabled
SC :  disabled
Intensity correction :  disabled
DWT denoise :  enabled
savitzky-golay :  disabled
FFT :  disabled
Running average :  disabled
Kalman :  disabled
High pass :  disabled
---------------BEGIN--------------------
Wavelength(nm)             Reflectance(%)
200.29               0
200.75        49.06828
201.21        48.80755
201.67        51.07077
202.13        56.73466
202.58        65.92614
203.04        79.11015
203.50        92.07385
203.96        94.58683
204.42        86.29769
204.88        73.74367
205.34        62.62278
205.80        55.35116
206.26        50.62505
206.72        46.64673
207.18        42.85026
207.64        39.84769
208.10        39.17831
208.55        41.66226
209.01        44.95654
209.47         47.4646
209.93        48.93287
210.39        49.56261
210.85        49.48131
211.31        48.91595
211.77        47.91565
212.23        46.36374
212.69        44.41423
213.14        43.42282
213.60        43.74871
214.06        45.07904
214.52        46.78271
214.98        48.72766
215.44        50.97691
215.90        53.48663
216.36        56.13965
216.81        58.17826
217.27        58.88433
217.73        58.50058
218.19        56.58953
218.65        52.39397
219.11        45.79384
219.57         36.6842
220.02        26.46127
220.48        19.78101
220.94        18.38259
221.40        21.98218
221.86        27.82085
222.32        31.27616
222.77          31.148
223.23        28.68134
223.69        26.32627
224.15         27.5463
224.61        31.82738
225.06        36.94239
225.52        40.66478
225.98        41.31784
226.44        39.03261
226.90        34.83133
227.36        29.71535
227.81        25.57083
228.27        23.63081
228.73        23.24555
229.19        24.20393
229.65         26.2224
230.10        28.81338
230.56        31.67044
231.02        34.23875
231.48        35.81093
231.93        36.32625
232.39        36.07568
232.85        35.21947
233.31          34.044
233.77        32.73907
234.22        31.24623
234.68         29.9645
235.14        29.46089
235.60        29.88585
236.05        31.17581
236.51        32.86901
236.97        34.23386
237.43        35.14536
237.88        35.82277
238.34         36.5905
238.80        38.42112
239.26         41.4724
239.71        45.04067
240.17        48.09218
240.63        49.90031
241.08        50.48288
241.54        50.11682
242.00        48.83647
242.46        46.46241
242.91        42.66719
243.37        36.38183
243.83        28.34914
244.28        24.66312
244.74        30.83568
245.20        45.47512
245.66        58.54822
246.11        61.52271
246.57        53.56847
247.03        34.38905
247.48        8.909163
247.94        2.758667
248.40        18.61436
248.85        38.16135
249.31        52.26399
249.77        59.03658
250.22        60.59689
250.68        59.17607
251.14        55.96878
251.59        53.32453
252.05        52.91226
252.51        54.16866
252.96        55.97535
253.42        56.68647
253.88        55.91528
254.33         54.4602
254.79        54.24454
255.25        56.81076
255.70         61.6375
256.16        67.40987
256.62        72.04495
257.07        73.26882
257.53        71.35011
257.99        67.33527
258.44        62.65463
258.90        59.85154
259.35        58.69532
259.81         58.7006
260.27        58.57818
260.72        57.24915
261.18        55.02583
261.63         51.9911
262.09        49.31422
262.55        48.09424
263.00        48.28426
263.46        49.43653
263.91        50.31609
264.37        49.73741
264.83        47.71305
265.28        44.75067
265.74        42.09431
266.19        41.04046
266.65        41.72495
267.11        43.43245
267.56        45.18563
268.02        45.59909
268.47        44.43357
268.93        42.18412
269.38        39.46341
269.84        37.51054
270.30         36.6743
270.75        36.58635
271.21        36.80914
271.66        36.68511
272.12        36.01666
272.57        35.03951
273.03        33.98529
273.48        33.10401
273.94        32.52131
274.39        32.09616
274.85         31.7329
275.31        31.28433
275.76        30.69927
276.22        30.05542
276.67         29.4308
277.13        29.03107
277.58        28.82498
278.04        28.76395
278.49        28.64732
278.95         28.2541
279.40        27.53615
279.86          26.665
280.31        25.76547
280.77        25.14299
281.22        24.79299
281.68        24.63763
282.13        24.57224
282.59        24.47347
283.04        24.29585
283.50        24.11835
283.95        23.90417
284.41         23.6262
284.86        23.28373
285.32        22.90487
285.77        22.59675
286.22        22.58997
286.68        22.88888
287.13        23.37815
287.59        23.86798
288.04        24.06687
288.50        23.93983
288.95        23.55895
289.41        23.08328
289.86        22.68545
290.32        22.47688
290.77        22.40121
291.22        22.45119
291.68        22.57987
292.13        22.77537
292.59        23.07167
293.04        23.48227
293.50         24.0336
293.95        24.70374
294.40        25.44776
294.86        26.21109
295.31        26.92919
295.77        27.58166
296.22        28.18774
296.68        28.74523
297.13        29.23055
297.58         29.6681
298.04        30.08231
298.49        30.54502
298.95        31.20448
299.40         32.0631
299.85        33.06309
300.31        34.09962
300.76        35.00631
301.21        35.72966
301.67        36.33261
302.12        36.81561
302.58        37.24696
303.03        37.63354
303.48        37.98471
303.94         38.3631
304.39        38.82377
304.84        39.38355
305.30        40.01616
305.75        40.64169
306.20        41.15778
306.66        41.55419
307.11        41.83978
307.57        42.05806
308.02        42.19883
308.47        42.29945
308.93        42.35438
309.38        42.40111
309.83        42.55442
310.29        42.81702
310.74        43.15295
311.19        43.43763
311.65         43.4692
312.10        43.20862
312.55        42.72544
313.00         42.1769
313.46        41.80329
313.91        41.64713
314.36        41.65583
314.82        41.70689
315.27        41.62624
315.72         41.3569
316.18        40.97224
316.63        40.55547
317.08        40.23965
317.53        40.05201
317.99        39.93455
318.44        39.82383
318.89        39.61192
319.35        39.27066
319.80        38.83935
320.25        38.36964
320.70        37.94247
321.16        37.57782
321.61        37.25719
322.06        36.94476
322.51        36.58736
322.97        36.16477
323.42        35.70406
323.87        35.22913
324.32         34.7826
324.78        34.37082
325.23        33.99071
325.68         33.6108
326.13        33.18714
326.59        32.71441
327.04        32.23657
327.49        31.78663
327.94        31.41726
328.39        31.14035
328.85         30.9176
329.30        30.76951
329.75        30.68326
330.20         30.6375
330.66        30.60369
331.11        30.54304
331.56        30.33967
332.01        29.96768
332.46        29.45153
332.92        28.85659
333.37        28.31117
333.82        27.86958
334.27        27.52835
334.72         27.2622
335.17        27.01893
335.63        26.77277
336.08        26.54105
336.53         26.3704
336.98         26.3425
337.43        26.45643
337.88        26.68105
338.34        26.84249
338.79        26.70984
339.24        26.22535
339.69        25.45555
340.14        24.65673
340.59        24.26395
341.05        24.36356
341.50        24.82873
341.95        25.37302
342.40         25.5474
342.85        25.25028
343.30        24.63918
343.75        23.91811
344.20        23.41991
344.66        23.24312
345.11        23.24994
345.56        23.36972
346.01        23.49187
346.46          23.554
346.91        23.60573
347.36        23.56795
347.81        23.30348
348.26        22.82018
348.72        22.18991
349.17        21.55342
349.62         21.2322
350.07        21.30304
350.52         21.6591
350.97        22.15451
351.42         22.5661
351.87        22.81008
352.32        22.93332
352.77        22.92887
353.22        22.79141
353.67        22.54131
354.13        22.19367
354.58        21.79133
355.03        21.44656
355.48        21.19933
355.93        21.04536
356.38        20.97063
356.83        20.93805
357.28        20.92494
357.73        20.92686
358.18        20.93619
358.63        20.94043
359.08        20.92764
359.53        20.89593
359.98        20.80832
360.43         20.6138
360.88        20.31865
361.33        19.94888
361.78        19.59286
362.23        19.39485
362.68        19.37931
363.13        19.48916
363.58        19.63483
364.03        19.67546
364.48        19.56945
364.93        19.36252
365.38        19.07475
365.83        18.74567
366.28        18.41084
366.73        18.06474
367.18        17.76682
367.63        17.61065
368.08        17.60094
368.53         17.7039
368.98        17.83729
369.43        17.86558
369.88        17.75841
370.33        17.56384
370.78        17.31808
371.23        17.08962
371.68        16.91249
372.13        16.75757
372.58        16.67206
373.03        16.73503
373.48        16.93714
373.93        17.24277
374.38        17.52068
374.83        17.56973
375.28        17.35319
375.72        16.92376
376.17         16.4254
376.62        16.05632
377.07        15.88526
377.52        15.85994
377.97        15.92183
378.42        15.97518
378.87        15.98421
379.32        15.97648
379.77        15.96778
380.22        15.97582
380.67        16.00249
381.11        16.03506
381.56         16.0347
382.01        15.96294
382.46        15.81206
382.91        15.59114
383.36        15.36104
383.81        15.20991
384.26        15.15615
384.71        15.18903
385.15        15.22032
385.60        15.11429
386.05        14.85336
386.50        14.48073
386.95        14.13664
387.40        14.03992
387.85        14.22029
388.29        14.59325
388.74        14.97854
389.19        15.12596
389.64        14.98896
390.09        14.64233
390.54        14.23987
390.98        14.02305
391.43        14.06274
391.88        14.26559
392.33        14.48818
392.78        14.52614
393.23        14.35116
393.67        14.03751
394.12        13.72825
394.57        13.56621
395.02        13.57968
395.47        13.71395
395.91        13.88577
396.36        13.93734
396.81        13.83116
397.26        13.61682
397.71        13.38116
398.15        13.23731
398.60        13.22753
399.05        13.30534
399.50        13.39676
399.95        13.39739
400.39        13.28532
400.84        13.09172
401.29        12.89791
401.74        12.84979
402.18        12.98581
402.63        13.24598
403.08        13.51271
403.53        13.60267
403.97        13.47772
404.42        13.20472
404.87         12.8981
405.32        12.74661
405.76        12.79476
406.21        12.97776
406.66        13.19806
407.11        13.30296
407.55        13.25441
408.00        13.10777
408.45        12.92035
408.90        12.75837
409.34        12.66847
409.79        12.68059
410.24        12.75518
410.68        12.78064
411.13        12.74445
411.58        12.71307
412.03        12.67913
412.47        12.61082
412.92        12.51038
413.37        12.37877
413.81         12.2767
414.26        12.31121
414.71        12.48828
415.15        12.78382
415.60        13.06859
416.05        13.15084
416.49        12.98467
416.94        12.63572
417.39        12.24008
417.83        12.01998
418.28        12.03739
418.73        12.21552
419.17        12.45107
419.62        12.56937
420.07        12.53016
420.51        12.39534
420.96        12.22455
421.41        12.09115
421.85        12.01823
422.30        11.98545
422.74        11.98548
423.19        12.03544
423.64        12.12225
424.08        12.24965
424.53        12.36868
424.98         12.4122
425.42        12.36491
425.87        12.24925
426.31        12.09512
426.76        11.95999
427.21        11.85469
427.65        11.75858
428.10         11.6991
428.54        11.69967
428.99        11.76079
429.44        11.92716
429.88        12.10262
430.33        12.05307
430.77        11.81485
431.22        11.63887
431.66        11.58373
432.11        11.60979
432.56        11.71129
433.00        11.93187
433.45        12.12836
433.89        12.08556
434.34        11.87082
434.78        11.62057
435.23          11.355
435.67         11.8657
436.12        11.49936
436.57        11.48054
437.01        11.34883
437.46         11.2942
437.90        11.31775
438.35        11.32891
438.79         11.3157
439.24        11.31073
439.68        11.31095
440.13        11.21372
440.57         11.0699
441.02        11.14085
441.46        11.31675
441.91        11.26014
442.35        10.73511
442.80        10.52891
443.24        10.53196
443.69        10.50467
444.13        10.42122
444.58        10.36329
445.02        10.33017
445.47        10.32978
445.91        10.34521
446.36        10.32625
446.80        10.26244
447.24         10.1774
447.69        10.09412
448.13        10.02271
448.58        9.975679
449.02        9.951845
449.47        9.932538
449.91        9.882848
450.36        9.803045
450.80        9.700836
451.25        9.621135
451.69        9.620832
452.13        9.708301
452.58        9.851583
453.02        9.998193
453.47        10.06304
453.91        10.02998
454.36        9.926888
454.80        9.788292
455.24        9.676057
455.69        9.619007
456.13         9.58787
456.58        9.592219
457.02        9.640209
457.46        9.723379
457.91        9.814682
458.35        9.888386
458.79        9.923525
459.24        9.912894
459.68        9.861177
460.13        9.823078
460.57        9.787046
461.01        9.757051
461.46         9.98674
461.90        10.07091
462.34         9.98039
462.79        10.04153
463.23        9.926642
463.68        9.820849
464.12        9.757671
464.56        9.831571
465.01        9.953801
465.45        10.07513
465.89         10.1332
466.34        10.12028
466.78        10.02697
467.22        9.908576
467.67        9.925071
468.11        10.06405
468.55        10.11395
468.99        10.07428
469.44        10.11032
469.88        10.22189
470.32        10.30814
470.77        10.34417
471.21         10.3476
471.65         10.3153
472.10        10.24591
472.54        10.16563
472.98        10.14502
473.42        10.19564
473.87        10.26905
474.31        10.34148
474.75        10.43377
475.20        10.51557
475.64        10.48575
476.08        10.39118
476.52        10.39684
476.97        10.51468
477.41        10.66962
477.85        10.81471
478.29        10.90605
478.74        10.92808
479.18        10.87486
479.62        10.80031
480.06        10.79256
480.50         10.8551
480.95        10.91244
481.39        10.93892
481.83        10.94711
482.27        10.93509
482.72        10.90375
483.16        10.87802
483.60         10.9042
484.04        10.98802
484.48        11.15194
484.93         11.4148
485.37        11.57717
485.81        11.66594
486.25        12.08147
486.69        12.26829
487.14        11.85373
487.58        11.92128
488.02        12.69235
488.46        12.27207
488.90         12.3029
489.34         12.1694
489.79        12.34327
490.23        12.74284
490.67         12.9571
491.11        12.96493
491.55        12.93917
491.99        12.91799
492.43        12.90781
492.88        12.93183
493.32        12.95784
493.76        13.01614
494.20        13.17876
494.64        13.44912
495.08        13.79219
495.52        14.14865
495.96           14.44
496.41        14.64217
496.85        14.74722
497.29        14.79111
497.73        14.90673
498.17        15.09215
498.61        15.18206
499.05        15.19492
499.49        15.31275
499.93        15.54677
500.37        15.76961
500.82        15.96838
501.26        16.23382
501.70        16.52786
502.14        16.67917
502.58         16.6957
503.02        16.74523
503.46        16.84122
503.90        16.89015
504.34        16.89578
504.78        16.90913
505.22        16.93734
505.66        16.97656
506.10         17.0221
506.54        17.06065
506.98        17.09303
507.42        17.12827
507.86         17.1822
508.30        17.27865
508.74        17.41706
509.18        17.57984
509.62        17.74833
510.06         17.8941
510.50        18.00857
510.94        18.10554
511.38        18.17304
511.82        18.19337
512.26        18.17044
512.70        18.10622
513.14        18.05564
513.58        18.10331
514.02        18.25365
514.46        18.48167
514.90        18.70524
515.34        18.73557
515.78        18.56817
516.22        18.33263
516.66        18.13934
517.10        17.81101
517.54         17.3824
517.98        18.00516
518.42        17.91444
518.86        18.17901
519.30         18.2518
519.74        18.31658
520.18        18.36021
520.62        18.33817
521.06         18.2704
521.50        18.15008
521.93        18.00534
522.37        17.89447
522.81        17.83147
523.25        17.80551
523.69        17.80143
524.13        17.79188
524.57        17.76575
525.01        17.72915
525.45         17.6838
525.89        17.63125
526.32        17.57314
526.76        17.51138
527.20        17.44057
527.64        17.35814
528.08        17.26351
528.52        17.15225
528.96        17.04648
529.40        16.97775
529.83        16.94887
530.27        16.95889
530.71        16.95483
531.15        16.85362
531.59        16.64836
532.03        16.36882
532.46          16.102
532.90        15.99947
533.34        16.07885
533.78        16.28521
534.22        16.51797
534.66         16.6215
535.09        16.55581
535.53        16.37873
535.97        16.15195
536.41        15.97189
536.85        15.87365
537.28        15.83472
537.72        15.85133
538.16         15.8682
538.60        15.95158
539.04        16.04091
539.47        16.13327
539.91         16.2263
540.35        16.32551
540.79        16.29105
541.22        16.35432
541.66         16.4344
542.10        16.61422
542.54        16.61236
542.97        16.85271
543.41        17.00244
543.85        17.17343
544.29        17.33154
544.72         17.4581
545.16        17.57468
545.60        17.68026
546.04        17.71703
546.47        17.75228
546.91         18.0058
547.35        18.43489
547.79         18.7922
548.22        19.02279
548.66        19.17274
549.10         19.2726
549.53        19.46261
549.97        19.76228
550.41        19.84013
550.84        20.06582
551.28        20.23643
551.72          20.472
552.15         20.7189
552.59         20.9725
553.03        21.23707
553.46         21.4756
553.90        21.65238
554.34        21.76098
554.77        21.81255
555.21        21.84827
555.65        21.91945
556.08        22.03567
556.52        22.18697
556.96        22.34938
557.39        22.48317
557.83         22.6207
558.27        22.67501
558.70        22.68393
559.14        22.72736
559.57        22.80869
560.01        22.91721
560.45        23.02345
560.88        23.05419
561.32        23.05224
561.75        23.08921
562.19        23.25669
562.63        23.36556
563.06        23.43595
563.50        23.52842
563.93        23.63749
564.37        23.79812
564.80        23.89776
565.24        24.03324
565.68        24.15331
566.11        24.26348
566.55        24.38093
566.98        24.45443
567.42        24.48797
567.85        24.80764
568.29        24.77339
568.72        25.11289
569.16        25.55589
569.60        25.86929
570.03        26.01007
570.47        26.12244
570.90        26.12344
571.34        26.48969
571.77        26.37339
572.21        26.78995
572.64        27.05588
573.08        27.11362
573.51        27.34047
573.95        27.74936
574.38         28.0221
574.82        28.15463
575.25        28.29284
575.69        28.24378
576.12        28.35383
576.56        28.28657
576.99        28.17536
577.42        28.25107
577.86        28.28565
578.29        28.29768
578.73        28.83366
579.16        28.47577
579.60        28.22839
580.03        27.90855
580.47        27.98478
580.90        27.71373
581.33        27.60668
581.77        27.55119
582.20        27.92622
582.64        27.48815
583.07        26.95115
583.51        27.12346
583.94        26.56754
584.37        26.51177
584.81        26.14725
585.24        26.11256
585.68         26.2279
586.11        26.08003
586.54        25.94973
586.98        25.72789
587.41        25.60648
587.85        25.56467
588.28        25.57148
588.71        25.43627
589.15        25.22917
589.58        24.80142
590.01        24.94475
590.45        25.32192
590.88        25.16694
591.31        25.15653
591.75        24.87468
592.18         24.9812
592.61        24.86485
593.05        25.17532
593.48        25.17948
593.91        25.71559
594.35        25.30852
594.78         25.6445
595.21         25.9671
595.65        26.26425
596.08        26.32442
596.51        26.23837
596.94        26.11554
597.38        26.22152
597.81         26.6404
598.24        26.84762
598.68        27.60525
599.11        27.80737
599.54        28.70157
599.97        28.57595
600.41         28.8351
600.84        29.30274
601.27        29.89049
601.70        30.42547
602.14        30.75912
602.57        31.26121
603.00        31.91733
603.43         32.5405
603.87        32.72437
604.30        33.56345
604.73        34.03219
605.16        34.35604
605.60        34.85671
606.03        35.40932
606.46        36.02056
606.89        36.85723
607.32        37.30659
607.76        37.44151
608.19        38.01332
608.62        38.57043
609.05        38.64385
609.48        38.97638
609.92        39.46872
610.35        39.40886
610.78         40.3397
611.21        40.92094
611.64         40.9317
612.07        41.33178
612.50        41.65256
612.94        41.99011
613.37        42.37703
613.80        42.78116
614.23        43.19545
614.66        43.71553
615.09         43.9199
615.52        44.34814
615.96        44.78664
616.39        45.13354
616.82        45.45243
617.25        45.17875
617.68        45.65585
618.11        45.99005
618.54        46.38318
618.97        46.49397
619.40        46.34132
619.84        46.49842
620.27        46.43737
620.70        46.92665
621.13        47.62642
621.56        47.80864
621.99        47.60065
622.42        47.61385
622.85        47.90573
623.28        48.05602
623.71        48.10246
624.14        48.09028
624.57        47.83047
625.00        48.00249
625.43        48.01358
625.86         47.3842
626.29        47.53569
626.72        47.31513
627.15        47.20779
627.58         47.1231
628.01        47.01662
628.44        46.84598
628.87        46.59487
629.30        45.96006
629.73        45.66147
630.16        45.13764
630.59        44.97425
631.02        44.64611
631.45        44.22869
631.88        43.90304
632.31        43.40493
632.74        42.87737
633.17        42.27673
633.60        41.70512
634.03        41.18023
634.46        40.68221
634.89        40.18053
635.32        39.61755
635.75        38.98986
636.18        38.33117
636.61        37.68811
637.04         37.1249
637.47        36.65498
637.89        36.25696
638.32        35.89736
638.75        35.54263
639.18        35.18019
639.61          34.826
640.04         34.4742
640.47         34.1113
640.90        33.74134
641.33         33.3699
641.76        33.02934
642.18        32.77809
642.61        32.62332
643.04        32.54973
643.47        32.52909
643.90        32.51198
644.33        32.48346
644.76        32.46086
645.18        32.45113
645.61        32.47005
646.04        32.52904
646.47        32.62333
646.90        32.77345
647.33         33.0286
647.75        33.39763
648.18        33.81949
648.61        34.26463
649.04        34.79533
649.47          35.351
649.89        35.68459
650.32        35.88757
650.75        36.38512
651.18        37.20514
651.61        37.98543
652.03        38.68785
652.46        39.65939
652.89        40.81382
653.32        41.38053
653.74        41.47246
654.17        42.45461
654.60        43.24952
655.03        44.44321
655.46        44.09547
655.88        45.86201
656.31        47.19258
656.74        53.42937
657.16        51.72997
657.59        48.63356
658.02        49.01431
658.45        49.18189
658.87        50.40857
659.30        50.93491
659.73         51.6063
660.15        52.59071
660.58         52.5312
661.01        52.55039
661.44        52.41233
661.86        52.63339
662.29        53.23305
662.72        54.13775
663.14        55.10361
663.57        55.28678
664.00          54.858
664.42        54.91409
664.85        55.53591
665.27        56.03394
665.70        56.31862
666.13         56.6104
666.55        56.89639
666.98         57.1142
667.41        57.28167
667.83        57.42382
668.26        57.54218
668.69        57.64465
669.11        57.75138
669.54        57.87106
669.96        58.01209
670.39        58.22086
670.82        58.47091
671.24        58.60558
671.67        58.66597
672.09        58.87695
672.52        59.20538
672.94        59.45468
673.37        59.57465
673.80         59.5082
674.22        59.34054
674.65         59.3119
675.07        59.46616
675.50        59.65613
675.92        59.83446
676.35         59.9487
676.77        59.97824
677.20        59.95629
677.62         59.9138
678.05        59.86861
678.47        59.82455
678.90        59.93538
679.32        59.92496
679.75        60.02563
680.17         60.1447
680.60        60.32477
681.02        60.52872
681.45         60.5858
681.87        60.54329
682.30        60.63583
682.72        60.84905
683.15        60.93348
683.57        60.90094
684.00        60.84611
684.42        60.93369
684.85        61.02717
685.27        61.16399
685.70        61.36172
686.12        61.56409
686.54        61.68999
686.97         61.7156
687.39        61.66715
687.82        61.57601
688.24        61.52905
688.66        61.54019
689.09         61.5738
689.51        61.62045
689.94        61.65484
690.36        61.68866
690.78        61.69122
691.21         61.6669
691.63        61.77414
692.06        62.04353
692.48        61.95575
692.90        62.08156
693.33        62.46684
693.75        62.21024
694.17        62.21548
694.60        62.17247
695.02        61.99102
695.44        61.70602
695.87        61.69484
696.29        61.91216
696.71        61.79236
697.14        61.54105
697.56        61.84863
697.98        62.77001
698.41        63.60664
698.83        63.06589
699.25        62.78614
699.68         62.5383
700.10        62.35955
700.52        62.31096
700.94        62.40498
701.37        62.57155
701.79        62.71627
702.21         62.7799
702.64         62.7921
703.06        62.78774
703.48        62.82866
703.90        62.93187
704.33        63.07064
704.75        63.18837
705.17        63.17206
705.59        63.00594
706.01        62.72708
706.44          62.473
706.86        62.45013
707.28        62.68557
707.70        63.13546
708.12          63.631
708.55        63.82772
708.97        63.70035
709.39        63.50937
709.81        63.33898
710.23        63.18386
710.66        63.09785
711.08        63.13601
711.50        63.26709
711.92        63.41098
712.34        63.54671
712.76         63.7053
713.19        63.84712
713.61        63.95451
714.03        63.99615
714.45        63.97538
714.87        63.93615
715.29        63.95527
715.71        64.04728
716.13        64.18919
716.56        64.32552
716.98        64.43503
717.40         64.4758
717.82        64.46677
718.24        64.42836
718.66        64.39312
719.08        64.37339
719.50        64.35724
719.92        64.34461
720.34        64.33516
720.76          64.327
721.19        64.32094
721.61        64.32051
722.03        64.29523
722.45        64.26266
722.87        64.21985
723.29        64.18957
723.71         64.1987
724.13        64.25556
724.55        64.35541
724.97        64.50121
725.39        64.65345
725.81        64.79044
726.23        64.98831
726.65         65.2563
727.07        65.17839
727.49        65.41732
727.91        65.46146
728.33        65.51665
728.75         65.4381
729.17        65.46117
729.59        65.40717
730.01        65.35332
730.43        65.33418
730.85        65.35757
731.27        65.39099
731.69        65.42611
732.10        65.50877
732.52        65.59908
732.94        65.59064
733.36        65.48235
733.78        65.39896
734.20        65.38689
734.62        65.31301
735.04        65.14987
735.46        65.27343
735.88        65.43353
736.30        64.99252
736.72        65.31943
737.13        65.51275
737.55        65.87993
737.97        66.25578
738.39        66.51743
738.81        66.32127
739.23        65.78699
739.65        65.68037
740.06        65.96055
740.48        65.98615
740.90        65.71787
741.32        65.54787
741.74        65.53104
742.16        65.56719
742.57        65.66727
742.99        65.81404
743.41        65.96462
743.83        66.04827
744.25        66.04602
744.67        65.94276
745.08        65.78616
745.50         65.6953
745.92        65.67587
746.34        65.56628
746.75        65.40427
747.17        65.35952
747.59        65.44943
748.01        65.63712
748.42         65.8601
748.84        65.99026
749.26        66.06229
749.68        66.07856
750.09         66.1036
750.51        66.51659
750.93         67.1032
751.35        66.93846
751.76        66.15408
752.18        65.78637
752.60         65.8903
753.01        65.91086
753.43        65.82671
753.85        65.80111
754.27        65.95706
754.68        66.24453
755.10        66.52636
755.52        66.53531
755.93        66.26193
756.35        66.32243
756.77        66.21289
757.18        66.28333
757.60        66.42804
758.02        66.55877
758.43        66.50189
758.85        67.12847
759.26         66.6776
759.68        66.42266
760.10         65.9307
760.51        66.09129
760.93        66.57682
761.34        65.98511
761.76        66.42349
762.18        66.20298
762.59        66.13165
763.01        65.83802
763.42        66.27802
763.84        66.53387
764.26        66.77987
764.67        66.70256
765.09        66.49623
765.50         66.7595
765.92        67.36894
766.33        67.70056
766.75        67.54809
767.16        66.90301
767.58        65.99873
768.00        65.54872
768.41        65.72859
768.83        66.25933
769.24        66.90633
769.66          67.333
770.07        67.42117
770.49        67.26556
770.90        67.01384
771.32          67.006
771.73        67.24249
772.15        67.32906
772.56        67.27306
772.97         67.2552
773.39        67.21272
773.80        67.22794
774.22        67.26166
774.63        66.51699
775.05        66.13383
775.46        66.04461
775.88         66.2369
776.29        66.78477
776.70        67.33599
777.12        67.55233
777.53        67.33752
777.95        66.78433
778.36        66.15592
778.77        65.88842
779.19        66.09055
779.60        66.67008
780.02        67.32061
780.43        67.71948
780.84        67.77025
781.26        67.20689
781.67        66.40958
782.09        66.90454
782.50        68.33813
782.91         68.4334
783.33        67.28985
783.74        66.98825
784.15        67.59265
784.57        67.92647
784.98        67.86355
785.39        67.68106
785.81        67.40646
786.22        67.13156
786.63        66.93716
787.04        66.81737
787.46        66.80301
787.87        66.95095
788.28        67.20732
788.70        67.42719
789.11        67.57188
789.52        67.61768
789.93         67.6986
790.35        67.77878
790.76        67.87575
791.17        67.88476
791.58        67.81918
792.00        67.66183
792.41        67.42959
792.82        67.41292
793.23        67.48663
793.65        66.95203
794.06        66.20473
794.47        66.42852
794.88        67.27962
795.29        68.86872
795.71        68.23891
796.12        67.71912
796.53        67.82156
796.94        67.36948
797.35        66.89799
797.76        66.86801
798.18        67.23852
798.59        67.44538
799.00        67.41944
799.41        67.50868
799.82        67.70401
800.23        67.83051
800.64        67.87222
801.06        67.83122
801.47        67.79145
801.88        67.83619
802.29        67.97469
802.70        68.16209
803.11          68.304
803.52        68.24767
803.93        67.97737
804.34        67.57143
804.75        67.12884
805.17          66.842
805.58        66.79636
805.99        66.78239
806.40         66.8289
806.81        67.36608
807.22        68.17876
807.63        68.36036
808.04        68.00117
808.45        68.02229
808.86        68.49857
809.27        68.94776
809.68        69.24728
810.09        69.39559
810.50        69.33594
810.91        69.08558
811.32        68.76445
811.73        68.46484
812.14        68.21764
812.55        68.25089
812.96        68.42989
813.37        67.93666
813.78         67.0304
814.19         67.0443
814.60        67.81559
815.01         68.1638
815.42        68.06108
815.83        67.48861
816.24        67.83238
816.65        67.82612
817.05        67.88561
817.46        67.99969
817.87        68.13051
818.28        68.14928
818.69          68.034
819.10        67.82703
819.51        67.62974
819.92         67.6715
820.33        68.00432
820.74        68.42796
821.14        68.84543
821.55        69.34955
821.96        69.76467
822.37        69.51908
822.78        68.78127
823.19        68.40041
823.60        68.49211
824.00        68.65027
824.41          68.748
824.82        68.84393
825.23        68.89582
825.64        68.89973
826.04        68.90629
826.45        68.94695
826.86         69.0375
827.27        69.15573
827.68        69.24237
828.08        69.22599
828.49         69.0398
828.90        68.73734
829.31         68.3992
829.72        68.16686
830.12         68.1058
830.53        68.15096
830.94        68.24335
831.35        68.25579
831.75        68.17993
832.16        68.01902
832.57        67.85538
832.97        67.80319
833.38        67.87527
833.79        68.02325
834.20        68.20085
834.60        68.33593
835.01        68.41818
835.42        68.47516
835.82         68.4943
836.23         68.4035
836.64        68.22189
837.04        67.96152
837.45        67.71848
837.86        67.69193
838.26        67.93134
838.67        68.36272
839.08        68.82222
839.48        68.98763
839.89        68.77838
840.29        68.31442
840.70        67.84416
841.11        67.66869
841.51        67.87355
841.92        68.31189
842.33        68.88692
842.73        69.43595
843.14        69.78629
843.54        70.03223
843.95        70.09353
844.35        69.91797
844.76        69.53568
845.17        69.00333
845.57         68.4502
845.98        68.09684
846.38        68.00368
846.79        68.11066
847.19        68.43933
847.60        68.88434
848.00        69.42662
848.41        70.00565
848.81        70.54879
849.22        70.87614
849.62        70.98351
850.03        70.83825
850.43        70.56484
850.84        70.32207
851.24         70.2351
851.65        70.22971
852.05         70.2636
852.46          70.236
852.86        70.14339
853.27        69.79704
853.67        69.30171
854.07        69.52675
854.48        70.19477
854.88        69.89738
855.29        68.72334
855.69        68.25453
856.10        68.55772
856.50         68.8252
856.90        68.92127
857.31        69.06979
857.71        69.29307
858.12        69.46597
858.52        69.59264
858.92        69.57389
859.33        69.38977
859.73        69.09756
860.13        68.80809
860.54        68.74081
860.94        68.99715
861.34        69.46805
861.75        69.93331
862.15         70.1226
862.55        69.92168
862.96        69.46152
863.36        68.85166
863.76        68.25841
864.17        67.77362
864.57        67.37965
864.97        67.17883
865.38         67.3106
865.78        67.81754
866.18        68.59212
866.58        69.38236
866.99        69.73068
867.39        69.53209
867.79        68.87648
868.19        67.90193
868.60        66.83462
869.00        65.75784
869.40        64.68028
869.80        63.80385
870.21        63.44646
870.61        63.71539
871.01        64.48653
871.41        65.43524
871.81        66.01564
872.22        66.11302
872.62        65.88107
873.02        65.44904
873.42         65.2989
873.82        65.31336
874.22        64.75861
874.63        63.99348
875.03        63.85072
875.43        64.45836
875.83        66.72865
876.23        66.98885
876.63        66.48608
877.03        64.54832
877.44        61.35303
877.84        136.3595
878.24        60.88414
878.64        62.82959
879.04        67.99824
879.44        64.79001
879.84        63.05479
880.24         67.9996
880.64        68.07164
881.04        64.50624
881.44        62.16182
881.84        61.86714
882.24        62.81546
882.65        64.32117
883.05        64.97067
883.45        64.33005
883.85        63.23568
884.25        62.26072
884.65        61.90647
885.05        62.33052
885.45        63.31078
885.85        64.44894
886.25         65.1177
886.65         65.1266
887.05        64.67933
887.45        64.09235
887.85        63.83807
888.25        64.03876
888.65        64.53427
889.04        65.13648
889.44         65.4599
889.84        65.41714
890.24        65.13936
890.64        64.76191
891.04        64.47463
891.44        64.31659
891.84        64.18543
892.24        64.04659
892.64        63.85516
893.04        63.60654
893.44        63.38571
893.83        63.10162
894.23        62.62911
894.63        61.96716
895.03        61.14692
895.43        60.44515
895.83         60.3284
896.23        60.86932
896.63        61.91862
897.02        63.06135
897.42        63.53893
897.82        63.17611
898.22        62.22615
898.62        61.09122
899.01        60.38609
899.41        60.30974
899.81         60.6495
900.21        61.25661
900.61        61.91539
901.00        62.51353
901.40        63.08139
901.80        63.57696
902.20        63.90259
902.59         64.0372
902.99        63.98612
903.39        63.73344
903.79        63.28244
904.18        62.68219
904.58        62.01204
904.98        61.48197
905.38        61.40295
905.77         61.8089
906.17        62.60387
906.57        63.49414
906.96        64.03728
907.36        64.06411
907.76        63.66815
908.15        63.10503
908.55        62.74224
908.95        62.70331
909.34        62.92675
909.74        63.12296
910.14        62.78492
910.53        61.82986
910.93        60.50409
911.33        59.35621
911.72        59.24011
912.12        60.24365
912.52        61.99851
912.91        63.85933
913.31        64.75266
913.70        64.47325
914.10        63.31911
914.49        61.67586
914.89        60.44331
915.29        59.98446
915.68        60.06192
916.08        60.52293
916.47         61.1456
916.87        61.77573
917.26        62.46656
917.66        63.09934
918.05        63.49665
918.45        63.58876
918.84         63.4533
919.24        63.03313
919.64        62.28033
920.03        61.27605
920.42        60.09208
920.82        59.17361
921.21        59.14637
921.61        60.03944
922.00        61.69819
922.40        63.44186
922.79        64.38256
923.19        64.28648
923.58        63.13371
923.98        61.32464
924.37        60.49059
924.77        61.22867
925.16         59.0454
925.55        61.18248
925.95         61.2386
926.34        61.33541
926.74        61.38122
927.13        61.55123
927.52        61.85253
927.92        62.23765
928.31        62.74745
928.70        63.20561
929.10        63.36567
929.49        63.16849
929.89        62.68837
930.28        62.20226
930.67        62.15495
931.07         62.6073
931.46        63.46865
931.85        64.37055
932.24         64.7749
932.64        64.55291
933.03        63.76284
933.42        62.71738
933.82        62.07227
934.21         61.9962
934.60        62.32374
934.99         62.4977
935.39        62.07523
935.78        61.01901
936.17        58.80832
936.56        55.69661
936.96        56.86462
937.35        55.95147
937.74        57.92746
938.13         59.9623
938.53        61.35167
938.92        61.99878
939.31        62.16994
939.70        62.09713
940.09        62.01634
940.49        62.06783
940.88        62.18587
941.27        62.35227
941.66        62.59885
942.05        62.90346
942.44         63.2215
942.84        63.61519
943.23        64.17635
943.62        64.86303
944.01        65.68623
944.40        66.24666
944.79        65.91087
945.18         64.5797
945.57        62.37501
945.97        60.12696
946.36        59.29693
946.75        60.31155
947.14         62.6454
947.53         65.1585
947.92        66.29253
948.31        65.76194
948.70        64.03013
949.09        61.85054
949.48        60.54373
949.87        60.52721
950.26        61.39651
950.65        62.56658
951.04        63.07379
951.43        62.64273
951.82         61.6386
952.21        60.50058
952.60        59.88258
952.99        59.96143
953.38        60.46727
953.77        61.14296
954.16        61.62222
954.55        61.77736
954.94        61.74357
955.33        61.58449
955.72        61.38094
956.11        61.18742
956.50        60.96444
956.89        60.76033
957.28        60.69546
957.66        60.80953
958.05        61.00109
958.44        61.21896
958.83        61.37027
959.22        61.42013
959.61        61.40265
960.00        61.22109
960.39        60.72746
960.78        59.93893
961.16        58.90227
961.55        57.93741
961.94        57.41023
962.33        57.39777
962.72        57.81813
963.11        58.39384
963.49        58.64716
963.88        58.37602
964.27        57.74718
964.66        57.05962
965.04         56.8148
965.43        57.12999
965.82        57.84946
966.21         58.6902
966.60        59.19378
966.98        59.25444
967.37        59.00532
967.76        58.70153
968.15        58.73306
968.53        59.19611
968.92         59.8401
969.31        60.49315
969.69        60.88557
970.08          60.851
970.47        60.51453
970.86         59.8367
971.24        58.70506
971.63        57.24804
972.02        55.58396
972.40        53.99012
972.79        52.97813
973.17        52.71639
973.56        52.97984
973.95        53.76617
974.33        55.00247
974.72        56.40005
975.11        57.92318
975.49        59.00876
975.88        58.80392
976.26        57.24892
976.65        54.66807
977.04        51.82298
977.42        50.06705
977.81        49.84774
978.19        50.77854
978.58        52.47881
978.96        54.22428
979.35        55.63148
979.74        57.01146
980.12        58.09468
980.51        58.18678
980.89        57.36506
981.28        55.69624
981.66        54.10936
982.05        53.94869
982.43        55.35789
982.82        57.93909
983.20        60.77273
983.59        61.85157
983.97        60.70308
984.35        57.88327
984.74        54.51004
985.12        52.22825
985.51        51.54202
985.89        51.94856
986.28        53.04438
986.66        53.95761
987.04        54.22641
987.43        54.23686
987.81         53.8848
988.20        52.93988
988.58        51.31138
988.96         48.7133
989.35        45.72864
989.73         44.2269
990.12        45.14463
990.50        47.98195
990.88         51.0386
991.27         52.3378
991.65        51.84649
992.03         50.0516
992.42        48.07376
992.80        48.01677
993.18        50.45005
993.56        54.32798
993.95        58.28737
994.33        60.94543
994.71        61.81678
995.10        61.41328
995.48        60.22418
995.86        58.85201
996.24         57.5577
996.63        56.20508
997.01        54.70324
997.39        53.24438
997.77        52.07637
998.15        51.30901
998.54        51.09265
998.92        51.52467
999.30        52.56836
999.68        54.40034
1000.06         56.3247
1000.45        56.15474
1000.83         53.3297
1001.21         49.0747
1001.59         45.3926
1001.97        43.79976
1002.35        44.12067
1002.73        45.89106
1003.12        48.38245
1003.50         49.7734
1003.88        49.15772
1004.26        47.20016
1004.64        44.68777
1005.02        42.68623
1005.40        41.52128
1005.78        40.74995
1006.16        40.66668
1006.54        41.81807
1006.92        43.83619
1007.30        46.19412
1007.69        47.92449
1008.07        48.17742
1008.45         46.6544
1008.83        43.20134
1009.21         37.3379
1009.59        30.19692
1009.97        24.17717
1010.35        20.28339
1010.73        19.82703
1011.11        22.82464
1011.49        28.22355
1011.86        35.81038
1012.24        42.33694
1012.62        44.77601
1013.00        43.03981
1013.38        38.05984
1013.76        32.23087
1014.14          29.866
1014.52        32.09356
1014.90        37.70692
1015.28        43.96657
1015.66        46.22837
1016.04        43.00035
1016.41        35.20881
1016.79        25.26221
1017.17        19.37389
1017.55        20.13596
1017.93         24.8665
1018.31        30.59456
1018.69        34.70943
1019.06        36.83109
1019.44        37.73208
1019.82        37.31273
1020.20        35.09735
1020.58         31.1957
1020.95        25.80359
1021.33        19.41114
1021.71        11.42501
1022.09       0.1497576
1022.46       -19.24727
1022.84       -47.06215
1023.22       -57.34977
1023.60       -34.26343
1023.97       -6.079953
1024.35        10.16706
1024.73        15.60743
