SpectraSmart Spectrum 2.9.0.0
--------- Device Information -----------
Spectrum Name :  反射率_0
Saving Time :  2024/04/20 00:07:54
Spectro-Module Model Name : SE2030-DUVN
Spectro-Module Serial Number : OS361AC55029948
Wavelength Start : 200
Wavelength End : 1025
Wavelength Unit : Wavelength(nm)
Spectrum Unit : Reflectance(%)
-----------Spectrum Setting ------------
Integration Time : 30ms
Average : 10
Boxcar : 0
Background removal :  enabled
linearity correction :  enabled
SC :  disabled
Intensity correction :  disabled
DWT denoise :  enabled
savitzky-golay :  disabled
FFT :  disabled
Running average :  disabled
Kalman :  disabled
High pass :  disabled
---------------BEGIN--------------------
Wavelength(nm)             Reflectance(%)
200.29               0
200.75        59.31992
201.21        60.34587
201.67        63.82581
202.13        69.46986
202.58        76.81131
203.04        86.09371
203.50        94.69632
203.96        96.27579
204.42        90.83888
204.88        82.62305
205.34         75.1807
205.80        69.89631
206.26         65.8661
206.72        61.73812
207.18        57.58103
207.64        56.11715
208.10        59.57915
208.55        66.74602
209.01        73.10771
209.47        75.79029
209.93        75.17208
210.39        72.52998
210.85        68.86301
211.31        65.04102
211.77         60.9649
212.23        55.68444
212.69        49.92082
213.14        47.85014
213.60          50.536
214.06        55.85921
214.52        60.49068
214.98         62.5977
215.44        62.55629
215.90        60.72302
216.36        58.22005
216.81        57.69468
217.27        59.90009
217.73        63.91113
218.19         67.1191
218.65        65.99107
219.11        59.87226
219.57        49.33225
220.02        37.02375
220.48        30.18664
220.94        31.51382
221.40        39.72002
221.86        50.21996
222.32        55.83921
222.77        54.87307
223.23        49.68967
223.69        44.09474
224.15        43.41339
224.61          47.543
225.06        53.47725
225.52        58.39828
225.98          60.042
226.44        58.47039
226.90        54.81114
227.36         50.3284
227.81        47.23321
228.27        46.58971
228.73        47.42654
229.19        48.86605
229.65        49.88908
230.10        50.24225
230.56         50.3194
231.02         50.2816
231.48        50.30438
231.93        50.37662
232.39        50.39758
232.85        50.22626
233.31        49.72179
233.77        48.88702
234.22         47.8184
234.68        46.71658
235.14        45.81538
235.60        45.26097
236.05        45.06007
236.51        45.19518
236.97        45.61984
237.43        46.36419
237.88        47.62886
238.34        49.40067
238.80        51.61826
239.26        53.84139
239.71        55.71964
240.17        56.82511
240.63        57.32848
241.08        57.47927
241.54        57.24999
242.00        56.61976
242.46        55.37098
242.91        53.28088
243.37        49.81388
243.83        45.75486
244.28        45.36271
244.74        51.76318
245.20        63.17442
245.66        72.63129
246.11        74.97302
246.57        69.82047
247.03         57.0204
247.48        39.30585
247.94        33.39809
248.40        42.05342
248.85        53.67574
249.31        62.42941
249.77        67.03695
250.22        68.69181
250.68        68.85792
251.14        67.82455
251.59        65.89076
252.05        63.62094
252.51        60.90292
252.96        58.17587
253.42        56.63018
253.88        56.61242
254.33        57.86401
254.79        60.46529
255.25        64.04813
255.70        68.14401
256.16        72.33999
256.62        75.74756
257.07        77.41729
257.53        77.51865
257.99        76.30582
258.44        74.07927
258.90        72.11773
259.35        70.36015
259.81        69.27936
260.27        68.25568
260.72        66.73653
261.18        64.99802
261.63        62.77795
262.09        60.96825
262.55        60.24472
263.00         60.4732
263.46         61.4219
263.91        62.00906
264.37        61.29811
264.83         59.2997
265.28         56.4306
265.74        53.84428
266.19        52.65837
266.65        53.04313
267.11        54.36287
267.56        55.76978
268.02        56.07618
268.47        55.05421
268.93        53.12715
269.38        50.80202
269.84        49.13553
270.30        48.40859
270.75        48.29875
271.21        48.40735
271.66        48.12688
272.12        47.29293
272.57        46.11602
273.03        44.85913
273.48        43.81575
273.94         43.1279
274.39        42.63705
274.85        42.22035
275.31        41.66266
275.76        40.88987
276.22        40.00118
276.67        39.09581
277.13        38.43555
277.58        37.99619
278.04        37.74135
278.49        37.42233
278.95         36.7774
279.40        35.74931
279.86         34.5397
280.31        33.34727
280.77        32.60276
281.22        32.29543
281.68        32.31284
282.13        32.41414
282.59        32.29265
283.04        31.87226
283.50        31.30747
283.95        30.70082
284.41        30.24747
284.86        29.96913
285.32        29.81189
285.77        29.74535
286.22        29.80079
286.68        29.94752
287.13        30.14964
287.59        30.30801
288.04        30.23891
288.50        29.94619
288.95        29.45471
289.41         28.9232
289.86        28.52412
290.32        28.35378
290.77        28.34787
291.22        28.45406
291.68         28.5522
292.13        28.61915
292.59        28.72524
293.04        28.92305
293.50        29.30732
293.95        29.88475
294.40          30.602
294.86        31.41822
295.31        32.28609
295.77        33.17699
296.22         34.0937
296.68        34.99234
297.13        35.78186
297.58        36.45296
298.04        37.02953
298.49        37.58016
298.95         38.2637
299.40        39.09256
299.85        40.01799
300.31        40.95846
300.76        41.77359
301.21        42.43239
301.67        43.01198
302.12        43.51698
302.58        44.02855
303.03        44.54212
303.48        45.05201
303.94        45.61349
304.39        46.26575
304.84        47.00983
305.30        47.81433
305.75        48.55476
306.20        49.07077
306.66        49.35839
307.11        49.45712
307.57        49.48068
308.02        49.51493
308.47        49.62149
308.93         49.7589
309.38        49.93584
309.83          50.227
310.29         50.6143
310.74        51.07509
311.19        51.44454
311.65        51.45558
312.10        51.06676
312.55          50.368
313.00        49.60733
313.46        49.17006
313.91        49.12353
314.36        49.37127
314.82        49.69263
315.27         49.7485
315.72        49.43839
316.18        48.89581
316.63        48.27509
317.08        47.82362
317.53         47.6019
317.99        47.51095
318.44        47.46885
318.89        47.33716
319.35         47.0703
319.80        46.72397
320.25        46.32746
320.70        45.92224
321.16        45.52272
321.61         45.1162
322.06        44.70787
322.51        44.31922
322.97        43.94387
323.42        43.58815
323.87        43.22648
324.32        42.81943
324.78        42.35078
325.23         41.8495
325.68        41.31887
326.13        40.77639
326.59        40.23897
327.04        39.73371
327.49        39.28374
327.94        38.92948
328.39        38.67064
328.85        38.46722
329.30        38.33047
329.75        38.21441
330.20        38.09411
330.66        37.95594
331.11        37.77619
331.56        37.45893
332.01        36.99353
332.46        36.40224
332.92        35.77927
333.37        35.30868
333.82        35.04442
334.27         34.9615
334.72         34.9699
335.17        34.90509
335.63        34.70274
336.08        34.41114
336.53        34.11268
336.98        33.96246
337.43        33.99137
337.88        34.14972
338.34        34.27306
338.79        34.14693
339.24        33.70849
339.69         33.0239
340.14         32.3141
340.59        31.94796
341.05        31.99849
341.50        32.36015
341.95        32.77783
342.40        32.85364
342.85        32.50392
343.30        31.87159
343.75         31.1622
344.20        30.71125
344.66        30.60864
345.11        30.71127
345.56        30.92361
346.01        31.09322
346.46         31.1492
346.91        31.15608
347.36        31.04902
347.81        30.71536
348.26        30.17368
348.72        29.48623
349.17        28.81377
349.62        28.50711
350.07        28.64105
350.52        29.09706
350.97        29.68204
351.42        30.10107
351.87        30.25788
352.32        30.22055
352.77        30.03009
353.22        29.76035
353.67        29.45416
354.13        29.10682
354.58        28.72455
355.03        28.36382
355.48        28.05178
355.93        27.80578
356.38        27.64069
356.83        27.56208
357.28         27.5563
357.73         27.6001
358.18        27.66045
358.63        27.68659
359.08        27.65263
359.53         27.5653
359.98        27.40091
360.43        27.12876
360.88        26.75977
361.33        26.31304
361.78        25.86749
362.23        25.55388
362.68        25.39976
363.13        25.36231
363.58         25.3663
364.03        25.28832
364.48         25.0908
364.93        24.81112
365.38        24.47002
365.83         24.1093
366.28        23.75826
366.73        23.40661
367.18        23.09312
367.63        22.87813
368.08        22.76565
368.53        22.74127
368.98        22.74258
369.43        22.66521
369.88        22.48721
370.33        22.23914
370.78        21.97057
371.23        21.77231
371.68        21.67168
372.13        21.63218
372.58        21.63447
373.03        21.64762
373.48        21.64809
373.93        21.64265
374.38         21.5958
374.83        21.45069
375.28        21.20317
375.72        20.86203
376.17        20.50811
376.62        20.23415
377.07         20.0733
377.52         20.0041
377.97         19.9913
378.42        19.97525
378.87        19.93291
379.32        19.87553
379.77        19.81535
380.22        19.76909
380.67        19.73808
381.11        19.71671
381.56        19.66841
382.01        19.55553
382.46        19.37418
382.91        19.13682
383.36        18.90388
383.81         18.7631
384.26         18.7301
384.71        18.78709
385.15        18.84904
385.60        18.78908
386.05        18.58458
386.50        18.27352
386.95        17.96836
387.40        17.84698
387.85         17.9365
388.29        18.16776
388.74        18.40689
389.19        18.46019
389.64        18.29197
390.09        17.96283
390.54        17.59213
390.98        17.36364
391.43        17.34107
391.88        17.45299
392.33        17.59334
392.78        17.61076
393.23        17.48126
393.67        17.25011
394.12        17.03341
394.57        16.93014
395.02        16.96104
395.47        17.08873
395.91        17.24208
396.36        17.28011
396.81         17.1765
397.26        16.97315
397.71        16.76535
398.15        16.67844
398.60        16.75349
399.05        16.93269
399.50        17.11928
399.95        17.17669
400.39        17.07664
400.84         16.8574
401.29        16.61229
401.74        16.51142
402.18        16.60444
402.63        16.82812
403.08        17.06287
403.53        17.11836
403.97         16.9577
404.42        16.65833
404.87         16.3411
405.32        16.20212
405.76        16.28689
406.21        16.52432
406.66         16.8157
407.11        17.00938
407.55        17.06203
408.00        17.02374
408.45        16.93353
408.90        16.81476
409.34        16.71063
409.79        16.68837
410.24        16.71764
410.68        16.68353
411.13         16.5841
411.58        16.49257
412.03        16.42517
412.47        16.38291
412.92         16.3695
413.37        16.37676
413.81        16.41638
414.26        16.52031
414.71         16.6793
415.15        16.88868
415.60        17.06777
416.05        17.11321
416.49        17.00095
416.94        16.76598
417.39        16.49797
417.83        16.34402
418.28        16.34702
418.73        16.45891
419.17        16.60482
419.62        16.65429
420.07        16.58277
420.51        16.43773
420.96        16.27893
421.41        16.17799
421.85        16.15121
422.30        16.18061
422.74        16.24493
423.19        16.34459
423.64        16.46164
424.08        16.60475
424.53        16.72848
424.98        16.77943
425.42        16.74827
425.87        16.65339
426.31        16.52355
426.76        16.41478
427.21          16.335
427.65        16.26252
428.10        16.22557
428.54        16.24386
428.99        16.31769
429.44        16.51242
429.88        16.71193
430.33         16.6232
430.77        16.30066
431.22        16.08518
431.66        16.04351
432.11        16.09557
432.56        16.22798
433.00        16.50728
433.45         16.7556
433.89        16.70762
434.34        16.46426
434.78        16.20048
435.23        15.91622
435.67        16.69411
436.12        16.20259
436.57        16.17104
437.01         15.9751
437.46        15.91944
437.90        16.01505
438.35        16.12444
438.79        16.19697
439.24        16.22455
439.68        16.19531
440.13        15.98243
440.57        15.70748
441.02        15.81628
441.46        16.16731
441.91        16.24975
442.35        15.66075
442.80        15.46332
443.24        15.49459
443.69        15.42373
444.13         15.2472
444.58        15.13431
445.02        15.10088
445.47        15.14167
445.91        15.21536
446.36        15.22081
446.80        15.13725
447.24        15.01339
447.69        14.89287
448.13        14.80794
448.58         14.7777
449.02        14.78822
449.47        14.80869
449.91        14.78422
450.36        14.70977
450.80        14.60114
451.25        14.50455
451.69        14.47441
452.13        14.52421
452.58        14.62359
453.02        14.73441
453.47        14.79837
453.91        14.80095
454.36        14.75974
454.80        14.68665
455.24        14.60316
455.69         14.5281
456.13        14.43987
456.58         14.3681
457.02        14.34821
457.46        14.38048
457.91        14.42313
458.35        14.45026
458.79        14.45536
459.24        14.42992
459.68        14.37892
460.13        14.36497
460.57        14.34749
461.01        14.31975
461.46        14.66001
461.90        14.77874
462.34        14.65224
462.79        14.76163
463.23        14.62225
463.68        14.48719
464.12        14.38182
464.56        14.44123
465.01        14.54792
465.45        14.65809
465.89        14.72222
466.34        14.73173
466.78        14.65558
467.22         14.5439
467.67        14.58028
468.11        14.73459
468.55        14.71651
468.99        14.54948
469.44        14.50923
469.88        14.60751
470.32        14.68949
470.77        14.72784
471.21        14.75561
471.65        14.76532
472.10        14.74937
472.54        14.71804
472.98        14.72196
473.42        14.76703
473.87        14.79754
474.31        14.80949
474.75        14.88494
475.20        14.99145
475.64        14.96918
476.08        14.86207
476.52         14.8695
476.97        15.00091
477.41        15.16229
477.85        15.30263
478.29        15.38434
478.74        15.39385
479.18        15.31514
479.62        15.21753
480.06        15.21514
480.50        15.30866
480.95        15.39411
481.39        15.43501
481.83        15.44884
482.27        15.43094
482.72        15.37896
483.16        15.32865
483.60        15.33577
484.04         15.4025
484.48        15.59265
484.93         15.9244
485.37        16.07685
485.81        16.13506
486.25        16.80001
486.69        16.87561
487.14        16.61829
487.58        16.57537
488.02        17.34576
488.46        16.93572
488.90        16.90947
489.34        16.68939
489.79        16.83286
490.23        17.27082
490.67        17.58292
491.11        17.69899
491.55        17.65081
491.99        17.50318
492.43        17.45906
492.88        17.55601
493.32        17.63932
493.76        17.72028
494.20        17.89997
494.64        18.17729
495.08        18.51198
495.52        18.84612
495.96        19.10707
496.41        19.27599
496.85        19.33657
497.29        19.34183
497.73        19.47036
498.17        19.71537
498.61         19.8577
499.05        19.89944
499.49        20.04524
499.93        20.30191
500.37        20.50168
500.82        20.64792
501.26         20.9152
501.70        21.25144
502.14        21.36777
502.58        21.29218
503.02        21.31666
503.46         21.4613
503.90        21.56999
504.34        21.62256
504.78        21.65859
505.22         21.6776
505.66        21.67868
506.10        21.68201
506.54        21.71513
506.98        21.78784
507.42        21.89694
507.86        22.03236
508.30         22.1757
508.74        22.31522
509.18        22.44561
509.62        22.57016
510.06        22.69537
510.50        22.82106
510.94        22.94887
511.38        23.04778
511.82        23.06976
512.26        23.01201
512.70        22.88995
513.14        22.77525
513.58        22.77664
514.02        22.90663
514.46        23.13402
514.90        23.37155
515.34        23.41651
515.78         23.2731
516.22        23.05808
516.66          22.881
517.10        22.57599
517.54        22.17724
517.98         22.7667
518.42        22.68612
518.86        22.95053
519.30        23.04526
519.74        23.14103
520.18        23.21662
520.62        23.21597
521.06        23.15473
521.50        23.03022
521.93        22.87858
522.37        22.77022
522.81        22.72301
523.25        22.72383
523.69        22.74847
524.13         22.7559
524.57        22.73213
525.01        22.68558
525.45         22.6314
525.89        22.59265
526.32        22.57289
526.76        22.56609
527.20        22.54385
527.64        22.46738
528.08        22.33065
528.52        22.14406
528.96        21.95559
529.40        21.83636
529.83         21.7984
530.27        21.82824
530.71        21.85828
531.15        21.78262
531.59        21.58578
532.03        21.30539
532.46        21.02678
532.90        20.90044
533.34        20.94604
533.78        21.10862
534.22        21.29881
534.66        21.37961
535.09        21.31347
535.53        21.15457
535.97        20.95233
536.41         20.7816
536.85        20.67298
537.28        20.61451
537.72        20.61107
538.16        20.60768
538.60         20.6966
539.04        20.78829
539.47        20.88541
539.91        20.99827
540.35        21.13213
540.79        21.10319
541.22        21.18887
541.66        21.24812
542.10        21.38491
542.54        21.25491
542.97          21.431
543.41        21.53265
543.85        21.71473
544.29        21.91638
544.72        22.10102
545.16        22.27607
545.60        22.42771
546.04        22.48597
546.47        22.52068
546.91        22.78499
547.35        23.22488
547.79        23.54053
548.22         23.6914
548.66        23.77704
549.10        23.84433
549.53        24.05532
549.97        24.42544
550.41        24.53211
550.84        24.82299
551.28        25.04693
551.72        25.33961
552.15         25.6135
552.59        25.86156
553.03        26.09695
553.46        26.28995
553.90        26.42299
554.34        26.49703
554.77        26.52287
555.21        26.54813
555.65        26.63525
556.08        26.79284
556.52        26.99712
556.96        27.21536
557.39        27.43011
557.83        27.61678
558.27        27.71589
558.70         27.7404
559.14        27.76921
559.57        27.80535
560.01        27.84424
560.45        27.88018
560.88        27.86751
561.32        27.86611
561.75        27.95639
562.19        28.21835
562.63        28.36157
563.06        28.40499
563.50        28.46286
563.93        28.54933
564.37        28.71676
564.80        28.83419
565.24        29.02069
565.68        29.19404
566.11        29.30777
566.55        29.37371
566.98        29.38125
567.42        29.36131
567.85        29.59606
568.29        29.55123
568.72        29.93965
569.16        30.50092
569.60        30.87385
570.03        30.98751
570.47         31.1451
570.90        31.25068
571.34         31.4285
571.77        31.28756
572.21        31.81899
572.64        31.82243
573.08        32.00481
573.51        32.32813
573.95        32.87555
574.38        33.16578
574.82        33.43497
575.25        33.52822
575.69        33.32631
576.12        33.23696
576.56        33.19445
576.99        33.28566
577.42        33.54154
577.86        33.47152
578.29        33.34352
578.73        33.76233
579.16        33.71155
579.60        33.33159
580.03        33.06123
580.47        33.13512
580.90        32.77111
581.33        32.61179
581.77        32.77375
582.20        33.01476
582.64        32.76403
583.07        32.51691
583.51        32.34417
583.94        31.74078
584.37        31.57102
584.81        31.24842
585.24         31.2564
585.68        31.16798
586.11        31.04023
586.54        31.08082
586.98        30.92024
587.41         30.7806
587.85        30.74359
588.28        30.80288
588.71        30.62213
589.15        30.29001
589.58        30.00471
590.01        30.28538
590.45        30.66058
590.88        30.41665
591.31        30.34869
591.75        29.99588
592.18        30.03213
592.61        29.96944
593.05        30.38585
593.48        30.14458
593.91        30.97167
594.35        30.65126
594.78         30.7404
595.21        31.14559
595.65        31.43271
596.08        31.20576
596.51        31.35194
596.94        31.74408
597.38        31.79196
597.81        31.56262
598.24        32.02307
598.68        32.79442
599.11        32.95383
599.54        33.64209
599.97        33.76651
600.41        34.20637
600.84        34.77423
601.27        35.34617
601.70        35.70711
602.14        35.79932
602.57         36.3828
603.00        37.10061
603.43        37.64049
603.87        37.90988
604.30        38.37223
604.73        38.98696
605.16        39.40855
605.60        39.79982
606.03        40.34383
606.46        40.90691
606.89        41.75068
607.32        42.24372
607.76        42.32256
608.19        42.67172
608.62        43.62873
609.05        43.43994
609.48        43.81871
609.92        44.37763
610.35        44.46087
610.78        45.30725
611.21        46.11985
611.64        45.85789
612.07         46.5016
612.50        46.71553
612.94         46.9015
613.37        47.32506
613.80        47.64536
614.23        48.04596
614.66        48.29658
615.09        48.78365
615.52        49.15165
615.96        49.44336
616.39        49.77692
616.82        50.07667
617.25        49.95134
617.68        50.38209
618.11        50.70471
618.54        51.11963
618.97        51.20633
619.40        50.96954
619.84        51.04961
620.27        50.70548
620.70        50.99168
621.13        51.88761
621.56        52.18936
621.99         52.0909
622.42         52.0753
622.85        52.27612
623.28        52.42903
623.71        52.52842
624.14        52.55523
624.57        52.58235
625.00        52.48812
625.43        52.21535
625.86        52.09232
626.29        51.64227
626.72        51.44417
627.15        51.39386
627.58        51.38182
628.01        51.28266
628.44          51.238
628.87        51.29097
629.30        50.29742
629.73        50.02919
630.16        49.98483
630.59        49.35445
631.02         49.1409
631.45        48.90502
631.88        48.59079
632.31        48.14757
632.74         47.6357
633.17        47.08422
633.60        46.50273
634.03        45.91244
634.46        45.31187
634.89        44.71745
635.32        44.15493
635.75        43.63437
636.18        43.16182
636.61        42.71874
637.04        42.26656
637.47        41.79303
637.89        41.30584
638.32        40.82397
638.75        40.40746
639.18        40.07043
639.61        39.79954
640.04        39.54693
640.47        39.23349
640.90        38.84526
641.33          38.411
641.76        37.99294
642.18        37.69538
642.61        37.53767
643.04        37.48957
643.47        37.50117
643.90        37.48852
644.33        37.42983
644.76        37.35924
645.18         37.3018
645.61        37.29884
646.04        37.36676
646.47        37.48683
646.90        37.67495
647.33        37.96083
647.75        38.34138
648.18        38.80086
648.61        39.28814
649.04        39.72544
649.47         40.1067
649.89        40.43387
650.32        40.76318
650.75        41.28188
651.18        41.98614
651.61        42.58702
652.03         43.1509
652.46        44.06853
652.89        45.18731
653.32        45.95119
653.74        46.17757
654.17        46.24972
654.60        47.39358
655.03         48.0924
655.46        48.24189
655.88        49.74833
656.31         51.0813
656.74        57.20079
657.16        56.53004
657.59         54.1202
658.02         53.6927
658.45        52.99045
658.87        54.04771
659.30        54.45831
659.73         55.1856
660.15        56.06622
660.58        56.09127
661.01        56.09689
661.44        55.95768
661.86        56.25232
662.29        56.95906
662.72        57.72871
663.14        58.38515
663.57        58.55259
664.00        58.35831
664.42        58.44511
664.85        58.88059
665.27        59.22017
665.70        59.41877
666.13        59.67023
666.55        59.96443
666.98        60.20708
667.41         60.4002
667.83         60.5735
668.26        60.72001
668.69        60.83772
669.11         60.9342
669.54        61.01815
669.96        61.10099
670.39        61.20473
670.82        61.35146
671.24        61.50784
671.67        61.70472
672.09        62.05245
672.52        62.46172
672.94        62.71816
673.37        62.76591
673.80        62.54222
674.22           62.22
674.65        62.11339
675.07         62.2944
675.50        62.62078
675.92        62.99424
676.35        63.18471
676.77        63.12814
677.20        63.22529
677.62        62.95121
678.05        62.91784
678.47        62.97943
678.90        63.12233
679.32        63.29729
679.75        63.42936
680.17        63.50385
680.60        63.57497
681.02        63.67231
681.45        63.74326
681.87        63.82746
682.30        64.05556
682.72        64.34483
683.15        64.41203
683.57        64.28185
684.00        64.06673
684.42        63.95327
684.85        64.16125
685.27        64.17191
685.70         64.4885
686.12        64.84013
686.54        65.08092
686.97        65.16743
687.39        65.11032
687.82        64.97503
688.24         65.0099
688.66        65.18138
689.09        65.15981
689.51        64.99224
689.94        64.98104
690.36        65.15803
690.78        65.38815
691.21        65.47062
691.63        65.64108
692.06        65.87542
692.48        65.64516
692.90        65.62425
693.33        65.98466
693.75        65.80386
694.17        65.95509
694.60        66.06499
695.02        66.06187
695.44        65.92303
695.87        65.82897
696.29         65.7925
696.71        65.55203
697.14        65.36942
697.56        65.41512
697.98        66.82372
698.41        67.21136
698.83        67.05317
699.25        66.79994
699.68        66.64317
700.10        66.52959
700.52        66.51054
700.94         66.5976
701.37        66.72277
701.79        66.89013
702.21        66.97679
702.64        67.05637
703.06        67.12534
703.48        67.22269
703.90        67.35578
704.33        67.50217
704.75        67.61726
705.17        67.60106
705.59        67.44534
706.01        67.19052
706.44        66.95576
706.86        66.92471
707.28        67.12481
707.70        67.50011
708.12        67.93374
708.55        68.20336
708.97         68.2709
709.39         68.2737
709.81        68.23563
710.23        68.13727
710.66        68.01154
711.08        67.89307
711.50        67.81594
711.92        67.83483
712.34        67.96792
712.76        68.18761
713.19         68.4109
713.61        68.62975
714.03        68.80358
714.45        68.62868
714.87        68.72423
715.29        68.73929
715.71        68.86086
716.13        69.04424
716.56        69.22048
716.98        69.34464
717.40         69.3632
717.82        69.30711
718.24        69.22742
718.66        69.20526
719.08        69.25964
719.50        69.36234
719.92        69.46407
720.34        69.48529
720.76        69.41003
721.19        69.26727
721.61        69.11382
722.03        69.00449
722.45        68.98231
722.87        69.01498
723.29        69.09483
723.71        69.19745
724.13        69.31192
724.55         69.4509
724.97        69.61349
725.39        69.75792
725.81        69.86733
726.23        70.00467
726.65        70.20147
727.07        70.13495
727.49        70.41461
727.91        70.54671
728.33         70.6712
728.75        70.70346
729.17        70.63968
729.59        70.50307
730.01        70.35509
730.43        70.30864
730.85        70.38578
731.27        70.54937
731.69        70.74954
732.10        70.90144
732.52        70.97561
732.94        70.99263
733.36        70.94621
733.78        70.79609
734.20        70.98618
734.62        70.52076
735.04        70.52793
735.46        70.72332
735.88        70.53111
736.30         70.5696
736.72        70.62379
737.13        70.85107
737.55        71.12913
737.97        71.40312
738.39        71.57616
738.81        71.33967
739.23        70.85287
739.65        70.81666
740.06        71.15572
740.48        71.35672
740.90        71.29733
741.32        70.94369
741.74         70.4248
742.16        70.49525
742.57        70.63383
742.99        71.02438
743.41        71.35776
743.83        71.53773
744.25        71.50285
744.67        71.27971
745.08         70.9725
745.50        70.71277
745.92         70.5688
746.34        70.49995
746.75        70.47183
747.17        70.43159
747.59        70.37219
748.01        70.33368
748.42        70.33702
748.84        70.41648
749.26        70.58973
749.68        70.68866
750.09        70.74238
750.51        71.10217
750.93        71.59619
751.35        71.57341
751.76        71.11786
752.18        70.82341
752.60        70.69398
753.01        70.98376
753.43        70.57846
753.85        70.64057
754.27         70.8428
754.68        71.19737
755.10         71.5572
755.52        71.62599
755.93        71.41928
756.35        71.19938
756.77        71.07029
757.18        71.07151
757.60        71.29613
758.02        71.64574
758.43        71.87107
758.85        72.49946
759.26        72.33992
759.68        71.62144
760.10        71.12121
760.51        71.14635
760.93        71.58562
761.34        70.78777
761.76        70.98784
762.18        71.09904
762.59        70.75581
763.01        70.83718
763.42        71.09977
763.84        71.36779
764.26        71.54816
764.67        71.66375
765.09         71.8938
765.50        71.56253
765.92        72.52094
766.33        72.60054
766.75        72.29836
767.16        72.06915
767.58        71.92362
768.00        71.60795
768.41        71.26008
768.83        71.20667
769.24        71.47279
769.66        72.04167
770.07         72.6678
770.49        72.73096
770.90        72.32117
771.32        72.27808
771.73        72.60909
772.15        72.60839
772.56           72.29
772.97        72.09845
773.39        72.01037
773.80        71.83239
774.22        71.53821
774.63        71.16255
775.05        70.83907
775.46        70.84145
775.88        71.18318
776.29        71.79588
776.70        72.42516
777.12        72.68867
777.53         72.5044
777.95         71.9564
778.36        71.31123
778.77        71.02706
779.19        71.21687
779.60        71.78374
780.02        72.43095
780.43        72.85081
780.84        72.94388
781.26        72.44881
781.67        71.71555
782.09        72.19598
782.50         73.5395
782.91        73.53767
783.33        72.31301
783.74        71.94575
784.15        72.51388
784.57        72.86364
784.98         72.8515
785.39        72.70788
785.81        72.45228
786.22        72.18671
786.63         72.0097
787.04        71.96664
787.46        72.09088
787.87        72.37639
788.28        72.72011
788.70        73.10374
789.11        73.12735
789.52        73.12621
789.93         73.0525
790.35        73.02022
790.76        73.03256
791.17        72.97421
791.58        72.85906
792.00        72.68537
792.41        72.48052
792.82        72.46822
793.23        72.48997
793.65          72.068
794.06        71.60394
794.47         71.5947
794.88         71.7031
795.29        73.86509
795.71        73.73539
796.12        72.18375
796.53        73.28999
796.94        72.78754
797.35        72.40253
797.76        72.31371
798.18        72.57181
798.59        72.84715
799.00        72.99113
799.41         73.0527
799.82         73.0243
800.23        73.03087
800.64        73.07863
801.06        72.99888
801.47         72.8849
801.88        72.90936
802.29        73.08565
802.70        73.34748
803.11        73.57109
803.52        73.55483
803.93        73.27213
804.34        72.81339
804.75        72.32578
805.17         72.0698
805.58        72.14417
805.99        72.29993
806.40        72.53288
806.81        73.04878
807.22        74.13583
807.63        73.90015
808.04        72.80348
808.45        72.53783
808.86         73.2521
809.27        74.00632
809.68        74.54255
810.09        74.86079
810.50        74.84653
810.91        74.50998
811.32        74.00278
811.73        73.54578
812.14        73.21767
812.55         73.0375
812.96         72.9632
813.37        72.75436
813.78        72.46815
814.19        72.50683
814.60        72.79888
815.01        72.92521
815.42        72.85184
815.83        72.76704
816.24        72.74012
816.65        72.80676
817.05        72.99912
817.46        73.26978
817.87        73.53301
818.28        73.61153
818.69        73.48142
819.10        73.19085
819.51        72.90585
819.92        72.93065
820.33        73.33407
820.74        73.98249
821.14         74.6852
821.55        75.16115
821.96         75.3074
822.37        75.09912
822.78        74.67288
823.19        74.36737
823.60        74.27079
824.00        74.27328
824.41        74.29178
824.82        74.31953
825.23        74.33363
825.64        74.36816
826.04        74.43034
826.45        74.47469
826.86        74.50446
827.27        74.50603
827.68        74.50167
828.08         74.5656
828.49        74.65047
828.90         74.7645
829.31        74.84602
829.72        74.79084
830.12        74.60144
830.53        74.28853
830.94        73.95077
831.35        73.70344
831.75        73.60258
832.16        73.57875
832.57        73.62643
832.97        73.70497
833.38         73.7716
833.79        73.83698
834.20        73.89339
834.60        73.92081
835.01        73.93283
835.42        73.93577
835.82        73.92448
836.23        73.84393
836.64        73.71365
837.04        73.54111
837.45        73.40543
837.86        73.47794
838.26        73.79631
838.67        74.28412
839.08         74.7684
839.48        74.91221
839.89        74.64027
840.29        74.09053
840.70        73.53899
841.11        73.31997
841.51        73.52832
841.92        73.99841
842.33        74.64874
842.73        75.33886
843.14         75.8799
843.54        76.36264
843.95        76.61852
844.35        76.46062
844.76        75.90185
845.17        75.04359
845.57        74.14373
845.98        73.62136
846.38        73.57764
846.79        73.89832
847.19        74.50204
847.60           75.08
848.00        75.55502
848.41        75.93105
848.81         76.2291
849.22        76.40358
849.62        76.50101
850.03         76.4572
850.43        76.35065
850.84        76.24242
851.24        76.21404
851.65        76.19922
852.05         76.2327
852.46         76.2406
852.86        76.21184
853.27        76.19473
853.67        76.11424
854.07        75.98417
854.48        75.78172
854.88        75.53623
855.29        75.24886
855.69         75.0808
856.10        74.98764
856.50        75.02674
856.90        75.12146
857.31        75.16147
857.71        75.19372
858.12        75.19219
858.52        75.22221
858.92        75.27673
859.33        75.34112
859.73        75.42939
860.13        75.55409
860.54         75.7556
860.94        76.07258
861.34        76.42949
861.75        76.65614
862.15        76.58483
862.55        76.15081
862.96        75.46304
863.36        74.68308
863.76        74.05392
864.17        73.67344
864.57        73.50406
864.97        73.56325
865.38        73.84666
865.78        74.36137
866.18        75.03333
866.58        75.65709
866.99        75.86929
867.39        75.61259
867.79        74.94579
868.19        74.00012
868.60        72.99029
869.00        71.98733
869.40        70.99911
869.80        70.20749
870.21        69.88879
870.61        70.14165
871.01        70.85349
871.41        71.69402
871.81        72.11427
872.22        72.00748
872.62        71.53735
873.02        70.90746
873.42        70.67485
873.82        70.77355
874.22        70.54759
874.63        70.20988
875.03        70.28902
875.43        70.81411
875.83        72.57206
876.23        72.62643
876.63        72.12992
877.03         70.5557
877.44         68.0155
877.84        130.0169
878.24         67.5722
878.64        68.83414
879.04        72.75314
879.44        69.56261
879.84        67.77711
880.24        72.05267
880.64        72.21142
881.04        69.29972
881.44        67.48798
881.84        67.43866
882.24        68.47167
882.65        69.91216
883.05        70.46103
883.45         69.7209
883.85        68.42181
884.25         67.2146
884.65        66.77242
885.05        67.27466
885.45        68.47104
885.85         69.8524
886.25        70.58726
886.65         70.4379
887.05        69.67403
887.45        68.74184
887.85        68.30701
888.25        68.54051
888.65        69.23271
889.04        70.09222
889.44        70.54945
889.84         70.4658
890.24        70.02254
890.64        69.47221
891.04        69.17879
891.44        69.21027
891.84        69.40469
892.24        69.58913
892.64        69.48618
893.04        69.04881
893.44        68.46407
893.83        67.79356
894.23        67.13414
894.63        66.52484
895.03        65.91367
895.43        65.50352
895.83        65.63818
896.23        66.34194
896.63        67.51385
897.02        68.71069
897.42        69.12151
897.82        68.57678
898.22        67.32377
898.62         65.8899
899.01        65.08925
899.41        65.14678
899.81        65.79359
900.21        66.69848
900.61        67.35622
901.00        67.60879
901.40        67.58804
901.80        67.45378
902.20        67.44397
902.59        67.63129
902.99        67.91698
903.39        68.13234
903.79        68.01781
904.18        67.53551
904.58        66.85161
904.98        66.24261
905.38        66.12054
905.77         66.5537
906.17        67.39902
906.57        68.36737
906.96        69.03629
907.36        69.22952
907.76        69.03952
908.15         68.6703
908.55        68.40211
908.95        68.33747
909.34        68.42914
909.74        68.44159
910.14        67.97872
910.53        66.99059
910.93        65.70099
911.33        64.59293
911.72        64.41216
912.12        65.23847
912.52        66.75211
912.91        68.38762
913.31         69.1893
913.70        68.97799
914.10        68.00889
914.49        66.61433
914.89        65.57292
915.29        65.19459
915.68        65.26424
916.08        65.66032
916.47        66.19907
916.87         66.7505
917.26        67.36232
917.66        67.91535
918.05        68.23653
918.45        68.26339
918.84        68.07912
919.24        67.66125
919.64        67.01187
920.03        66.20735
920.42        65.29082
920.82        64.62917
921.21        64.72996
921.61        65.59803
922.00        67.10946
922.40        68.65284
922.79        69.45881
923.19        69.31565
923.58        68.21417
923.98        66.51376
924.37        65.64334
924.77         66.1508
925.16        64.11685
925.55         65.8978
925.95         65.9072
926.34        66.01196
926.74        66.11828
927.13        66.36833
927.52        66.74742
927.92        67.20507
928.31        67.78619
928.70        68.31467
929.10         68.5405
929.49        68.40231
929.89        67.95595
930.28        67.48556
930.67        67.45192
931.07        67.91378
931.46        68.77524
931.85        69.63985
932.24        69.92081
932.64        69.48403
933.03        68.42063
933.42        67.09225
933.82        66.26072
934.21        66.14224
934.60        66.53899
934.99        66.87708
935.39        66.65511
935.78        65.81129
936.17        63.92944
936.56        61.24587
936.96        62.31129
937.35        61.56949
937.74        63.32386
938.13        65.12486
938.53        66.39487
938.92        67.06417
939.31        67.38349
939.70        67.48424
940.09        67.43193
940.49        67.32472
940.88        67.14733
941.27        67.06435
941.66        67.37403
942.05        68.08822
942.44        69.08038
942.84        70.15773
943.23        70.98856
943.62        71.42355
944.01        71.59594
944.40        71.40416
944.79         70.6968
945.18        69.50864
945.57        67.84369
945.97         66.2669
946.36        65.74698
946.75          66.548
947.14        68.32459
947.53        70.21482
947.92        71.01789
948.31        70.53093
948.70        69.12366
949.09        67.37429
949.48        66.31375
949.87        66.27286
950.26        66.91239
950.65        67.87611
951.04        68.57542
951.43        68.78892
951.82        68.72896
952.21        68.45457
952.60        68.03801
952.99        67.54678
953.38        66.92005
953.77        66.29655
954.16        65.92642
954.55        65.85617
954.94        66.06484
955.33        66.35841
955.72        66.37698
956.11        66.05087
956.50        65.49065
956.89        64.94218
957.28        64.87798
957.66        65.41106
958.05        66.22945
958.44        67.10849
958.83        67.76842
959.22        68.12636
959.61         68.3109
960.00        68.16354
960.39        67.42017
960.78         66.1291
961.16         64.3862
961.55        62.79346
961.94        62.14186
962.33         62.5783
962.72        63.91039
963.11        65.53414
963.49        66.38474
963.88        66.06859
964.27        64.90353
964.66        63.46337
965.04        62.71718
965.43        62.92596
965.82        63.80262
966.21        64.88811
966.60        65.44285
966.98        65.28791
967.37        64.66629
967.76        63.98773
968.15        63.86833
968.53        64.45356
968.92        65.40157
969.31        66.39493
969.69        66.92889
970.08        66.78725
970.47        66.20409
970.86        65.24795
971.24        63.98592
971.63        62.59285
972.02        61.08373
972.40        59.77178
972.79         59.2198
973.17        59.57265
973.56        60.61845
973.95        62.04739
974.33        63.25731
974.72        63.88602
975.11        64.06512
975.49        63.80961
975.88        63.17008
976.26        62.25374
976.65        61.10996
977.04        59.92146
977.42        59.03378
977.81        58.59058
978.19         58.5139
978.58        58.84982
978.96        59.63482
979.35        60.73649
979.74        62.21103
980.12        63.65484
980.51        64.11861
980.89        63.54386
981.28        62.14011
981.66        60.68868
982.05         60.3051
982.43        61.14618
982.82        62.86063
983.20        64.86504
983.59        65.80135
983.97        65.35569
984.35        63.85677
984.74        61.99933
985.12        60.76899
985.51        60.46202
985.89        60.76785
986.28        61.35393
986.66        61.62877
987.04         61.3131
987.43        60.73396
987.81        59.94455
988.20        58.92302
988.58        57.57826
988.96        55.66959
989.35        53.49385
989.73        52.14219
990.12        52.23251
990.50        53.63861
990.88        55.25261
991.27         55.6941
991.65        54.97379
992.03        53.40773
992.42        51.98701
992.80        52.54898
993.18        55.48104
993.56        59.77941
993.95        64.08075
994.33        66.99261
994.71        68.05584
995.10        67.77473
995.48        66.62346
995.86        65.22198
996.24         63.8437
996.63        62.31551
997.01        60.69824
997.39        59.43353
997.77        58.78648
998.15        58.74368
998.54        59.12907
998.92        59.64923
999.30        60.21484
999.68        60.98057
1000.06        61.43246
1000.45        60.33507
1000.83         57.7344
1001.21        54.46843
1001.59         51.8672
1001.97        50.87958
1002.35        51.31441
1002.73        52.85725
1003.12         54.9648
1003.50        56.29076
1003.88         56.0808
1004.26        54.82028
1004.64        52.93556
1005.02        51.00095
1005.40        49.26277
1005.78        47.44913
1006.16        46.21706
1006.54        46.87953
1006.92        49.28281
1007.30        52.52203
1007.69         55.3034
1008.07        56.50512
1008.45        55.87321
1008.83        53.49552
1009.21        48.88611
1009.59        42.63347
1009.97        36.57356
1010.35        31.64748
1010.73        29.79068
1011.11        32.04408
1011.49        37.47397
1011.86        45.43093
1012.24        52.55674
1012.62        55.62283
1013.00        54.45622
1013.38        50.21507
1013.76        44.78496
1014.14        41.56299
1014.52        41.59701
1014.90        43.88155
1015.28        46.95251
1015.66         48.3253
1016.04        47.10698
1016.41        43.96248
1016.79        39.70924
1017.17        36.47919
1017.55        35.50834
1017.93        36.05155
1018.31        37.27103
1018.69        38.46323
1019.06        39.39853
1019.44        40.01897
1019.82        40.45099
1020.20        40.68213
1020.58        40.62679
1020.95        40.36007
1021.33        39.05256
1021.71        34.64632
1022.09        25.32879
1022.46        6.232431
1022.84       -23.88025
1023.22       -36.62785
1023.60        -13.1242
1023.97        16.37087
1024.35        33.82776
1024.73         39.9528
