SpectraSmart Spectrum 2.9.0.0
--------- Device Information -----------
Spectrum Name :  反射率_0
Saving Time :  2024/04/20 00:04:25
Spectro-Module Model Name : SE2030-DUVN
Spectro-Module Serial Number : OS361AC55029948
Wavelength Start : 200
Wavelength End : 1025
Wavelength Unit : Wavelength(nm)
Spectrum Unit : Reflectance(%)
-----------Spectrum Setting ------------
Integration Time : 30ms
Average : 10
Boxcar : 0
Background removal :  enabled
linearity correction :  enabled
SC :  disabled
Intensity correction :  disabled
DWT denoise :  enabled
savitzky-golay :  disabled
FFT :  disabled
Running average :  disabled
Kalman :  disabled
High pass :  disabled
---------------BEGIN--------------------
Wavelength(nm)             Reflectance(%)
200.29               0
200.75        57.56074
201.21        60.74545
201.67        66.83989
202.13        74.02402
202.58         80.9986
203.04        87.97513
203.50        93.38176
203.96        93.89738
204.42        90.06295
204.88        84.31216
205.34        79.12428
205.80        75.56538
206.26         72.9676
206.72        70.45856
207.18        67.96411
207.64        66.57716
208.10        67.53303
208.55        70.87837
209.01        73.72098
209.47        74.24465
209.93        72.69781
210.39        69.83668
210.85        66.89632
211.31        65.21332
211.77        64.88599
212.23        65.62511
212.69        66.88681
213.14        67.05207
213.60        65.40949
214.06        63.69895
214.52        62.81192
214.98        63.28373
215.44        64.93275
215.90        67.24026
216.36        70.24863
216.81        73.52869
217.27        76.23203
217.73        78.54234
218.19        79.21632
218.65        76.50353
219.11        70.27976
219.57        60.57659
220.02        49.86049
220.48        44.95327
220.94        48.13893
221.40        58.07561
221.86         70.1048
222.32         76.9484
222.77        76.79821
223.23        72.08044
223.69         66.0185
224.15        63.29467
224.61        64.47864
225.06        67.38818
225.52        70.26325
225.98        71.71481
226.44        71.68816
226.90         70.8283
227.36        69.80032
227.81        69.51044
228.27        70.37523
228.73        71.75202
229.19        72.87708
229.65        72.92503
230.10        71.90919
230.56        70.40852
231.02        68.96207
231.48        68.27916
231.93        68.33385
232.39        68.82969
232.85        69.34448
233.31         69.2954
233.77         68.5522
234.22         67.3802
234.68        65.93562
235.14        64.41505
235.60        63.02809
236.05        61.76296
236.51        60.91455
236.97        60.91142
237.43         61.8991
237.88        64.19186
238.34        67.33413
238.80         70.0003
239.26        70.99443
239.71         70.1838
240.17        68.26136
240.63        67.13414
241.08        67.36485
241.54        68.48183
242.00        69.46201
242.46        68.24654
242.91        63.77594
243.37        55.12927
243.83        42.85292
244.28        34.46875
244.74        37.88336
245.20        51.97812
245.66         66.7843
246.11        73.67529
246.57         71.9978
247.03        62.70728
247.48        48.13753
247.94        42.56356
248.40        48.98253
248.85        57.88028
249.31         64.3623
249.77        67.19907
250.22        67.27605
250.68        65.73723
251.14        63.27973
251.59        61.33124
252.05        61.01643
252.51         62.1189
252.96        63.66007
253.42        64.15635
253.88        63.33441
254.33        61.85547
254.79        61.57735
255.25        64.02287
255.70        68.68549
256.16        74.28786
256.62        78.98248
257.07         80.7507
257.53        79.81487
257.99        77.05949
258.44        73.40844
258.90        70.86288
259.35        69.30693
259.81        68.73447
260.27        68.24835
260.72        67.10839
261.18        65.60164
261.63         63.5665
262.09         61.9106
262.55        61.30436
263.00        61.62192
263.46        62.62919
263.91        63.28503
264.37        62.72021
264.83        60.93827
265.28        58.32526
265.74        55.98762
266.19        54.96566
266.65         55.4277
267.11         56.7681
267.56        58.17876
268.02        58.53351
268.47        57.61557
268.93        55.83086
269.38          53.667
269.84        52.14278
270.30        51.52729
270.75        51.51559
271.21        51.71522
271.66        51.52611
272.12        50.79152
272.57        49.70906
273.03        48.56417
273.48        47.68124
273.94        47.19962
274.39        46.94347
274.85        46.73871
275.31        46.28756
275.76        45.51044
276.22        44.54482
276.67        43.55265
277.13        42.90144
277.58        42.57391
278.04         42.4917
278.49         42.3471
278.95         41.8086
279.40        40.79449
279.86        39.54601
280.31        38.26385
280.77        37.39582
281.22        36.93789
281.68        36.77841
282.13        36.70736
282.59        36.47868
283.04        36.01485
283.50        35.45462
283.95        34.84461
284.41        34.30269
284.86        33.83842
285.32        33.43895
285.77        33.11559
286.22        32.97079
286.68        32.99523
287.13        33.11991
287.59        33.24308
288.04        33.17051
288.50        32.89315
288.95         32.4355
289.41        31.91346
289.86        31.42771
290.32        31.07275
290.77        30.81193
291.22        30.66026
291.68        30.60078
292.13        30.62703
292.59        30.77141
293.04        31.03992
293.50        31.45617
293.95        32.00169
294.40        32.64768
294.86        33.35503
295.31        34.07769
295.77        34.79833
296.22        35.52158
296.68        36.23923
297.13        36.92005
297.58          37.571
298.04        38.20686
298.49        38.86162
298.95        39.63464
299.40        40.52014
299.85        41.48078
300.31        42.45898
300.76        43.35229
301.21        44.13277
301.67         44.8572
302.12        45.49775
302.58        46.09482
303.03        46.63735
303.48        47.14089
303.94        47.68913
304.39        48.36043
304.84         49.1686
305.30        50.07047
305.75        50.92767
306.20        51.56118
306.66        51.95602
307.11        52.14817
307.57         52.2526
308.02        52.35356
308.47        52.51241
308.93        52.68933
309.38        52.87688
309.83        53.13129
310.29        53.43723
310.74        53.77975
311.19        54.03741
311.65        54.00656
312.10        53.66069
312.55        53.08277
313.00         52.4656
313.46        52.10596
313.91        52.05548
314.36        52.23895
314.82         52.5151
315.27        52.67678
315.72         52.6381
316.18        52.47583
316.63        52.22813
317.08        51.97394
317.53        51.74141
317.99         51.4903
318.44        51.23147
318.89         50.9786
319.35        50.73561
319.80        50.51458
320.25        50.30436
320.70        50.07898
321.16        49.82864
321.61        49.57098
322.06        49.30975
322.51        49.05949
322.97        48.81373
323.42        48.56754
323.87        48.32087
324.32        48.08455
324.78        47.84959
325.23        47.63964
325.68        47.40166
326.13        47.05685
326.59        46.59962
327.04        46.08327
327.49        45.61147
327.94        45.36111
328.39        45.36481
328.85        45.54332
329.30        45.81878
329.75        45.97171
330.20         45.9254
330.66        45.71475
331.11        45.41272
331.56        45.07699
332.01        44.74297
332.46         44.3873
332.92         44.0369
333.37        43.77215
333.82        43.60708
334.27         43.5531
334.72        43.56122
335.17        43.53207
335.63        43.42397
336.08        43.27036
336.53        43.12583
336.98        43.10937
337.43        43.24009
337.88         43.4782
338.34        43.68702
338.79        43.69748
339.24        43.45371
339.69        43.00939
340.14        42.53387
340.59        42.31016
341.05         42.3958
341.50        42.71322
341.95        43.07848
342.40        43.20539
342.85         43.0337
343.30        42.66879
343.75        42.25345
344.20        42.01879
344.66        42.02407
345.11        42.16068
345.56        42.36571
346.01        42.54001
346.46        42.63046
346.91        42.67749
347.36         42.6174
347.81         42.3431
348.26         41.8681
348.72        41.25698
349.17        40.64384
349.62         40.3266
350.07        40.37521
350.52        40.69358
350.97        41.13628
351.42        41.47934
351.87        41.64342
352.32        41.67717
352.77        41.59317
353.22        41.41712
353.67        41.17635
354.13        40.88138
354.58        40.54439
355.03        40.23846
355.48        39.99154
355.93        39.80438
356.38        39.68819
356.83        39.64814
357.28         39.6664
357.73        39.72209
358.18        39.76475
358.63        39.71431
359.08        39.54833
359.53        39.29243
359.98        38.96156
360.43        38.58141
360.88        38.17274
361.33         37.7333
361.78           37.32
362.23        37.02498
362.68        36.86261
363.13        36.80723
363.58         36.7699
364.03        36.60659
364.48        36.27927
364.93        35.81935
365.38        35.30082
365.83        34.85976
366.28        34.53855
366.73        34.29873
367.18        34.08198
367.63        33.79372
368.08        33.41594
368.53        32.99567
368.98          32.578
369.43        32.22058
369.88        31.94043
370.33        31.71651
370.78        31.53516
371.23        31.37937
371.68         31.2395
372.13        31.11646
372.58        31.01045
373.03        30.92223
373.48        30.84308
373.93        30.75886
374.38        30.64719
374.83        30.47763
375.28        30.24269
375.72        29.94397
376.17         29.6215
376.62        29.29919
377.07        29.00083
377.52        28.73279
377.97        28.50756
378.42         28.3402
378.87        28.22728
379.32        28.15558
379.77        28.11477
380.22        28.08607
380.67         28.0567
381.11        28.03325
381.56        27.96873
382.01        27.81272
382.46        27.56073
382.91        27.22334
383.36          26.885
383.81        26.67307
384.26        26.61016
384.71          26.672
385.15        26.74051
385.60        26.63947
386.05        26.33989
386.50        25.90253
386.95        25.48315
387.40        25.32712
387.85        25.47188
388.29        25.81138
388.74        26.18055
389.19        26.33004
389.64        26.20531
390.09        25.87568
390.54        25.46363
390.98        25.15792
391.43        25.03552
391.88        25.02815
392.33        25.03625
392.78        24.91749
393.23        24.65882
393.67        24.30898
394.12        24.00698
394.57        23.85851
395.02        23.88303
395.47         24.0354
395.91        24.23469
396.36        24.31402
396.81        24.23864
397.26        24.05292
397.71        23.84854
398.15        23.74539
398.60        23.79385
399.05        23.93155
399.50        24.07566
399.95        24.10993
400.39        24.01041
400.84        23.81252
401.29        23.59131
401.74        23.48301
402.18        23.53178
402.63        23.68612
403.08        23.85729
403.53        23.90005
403.97        23.78393
404.42        23.56982
404.87        23.34759
405.32        23.26524
405.76        23.35296
406.21        23.55501
406.66        23.78988
407.11        23.93203
407.55         23.9486
408.00        23.88541
408.45        23.77726
408.90        23.62325
409.34        23.47311
409.79        23.43889
410.24        23.48568
410.68        23.45886
411.13        23.35671
411.58        23.27136
412.03        23.22324
412.47        23.21287
412.92        23.24036
413.37        23.29388
413.81         23.3784
414.26        23.51969
414.71        23.70525
415.15        23.93411
415.60        24.12082
416.05        24.15897
416.49        24.02934
416.94        23.77258
417.39        23.49385
417.83         23.3616
418.28        23.42518
418.73        23.62983
419.17        23.89084
419.62        24.06585
420.07         24.1194
420.51        24.09401
420.96        24.04426
421.41        24.02969
421.85        24.06012
422.30        24.12357
422.74        24.19797
423.19        24.29413
423.64        24.39715
424.08        24.52074
424.53        24.62205
424.98        24.66097
425.42        24.63602
425.87        24.56663
426.31        24.47745
426.76        24.41487
427.21        24.38225
427.65        24.35839
428.10        24.37918
428.54        24.46946
428.99        24.62807
429.44        24.94702
429.88        25.27096
430.33        25.19478
430.77        24.80031
431.22        24.59781
431.66        24.65761
432.11        24.79919
432.56        24.98876
433.00        25.34661
433.45        25.66352
433.89         25.5808
434.34          25.262
434.78        25.05981
435.23         24.9306
435.67        25.94978
436.12        25.40012
436.57        25.25712
437.01        24.86334
437.46        24.73019
437.90        24.90047
438.35        25.12979
438.79        25.32004
439.24        25.44381
439.68        25.46994
440.13        25.23149
440.57        24.90158
441.02        25.10172
441.46        25.63337
441.91        25.82889
442.35        25.03487
442.80        24.79828
443.24        24.88364
443.69        24.88133
444.13        24.77283
444.58        24.71825
445.02        24.73438
445.47         24.8595
445.91        25.03334
446.36        25.08369
446.80        24.98284
447.24        24.81422
447.69        24.64793
448.13        24.54174
448.58        24.52592
449.02        24.57404
449.47         24.6444
449.91        24.66085
450.36        24.61167
450.80        24.51795
451.25        24.42414
451.69        24.37341
452.13        24.38467
452.58        24.43449
453.02        24.50003
453.47        24.55541
453.91        24.59077
454.36        24.61296
454.80        24.62093
455.24        24.60805
455.69        24.58463
456.13        24.52618
456.58        24.46741
457.02        24.44892
457.46        24.47347
457.91        24.47524
458.35        24.44566
458.79        24.43911
459.24        24.44798
459.68         24.4666
460.13        24.55006
460.57          24.554
461.01        24.44884
461.46        24.91276
461.90        24.98557
462.34        24.71505
462.79        24.92831
463.23        24.78056
463.68        24.65813
464.12        24.54221
464.56        24.63951
465.01        24.77852
465.45        24.90084
465.89        24.94736
466.34        24.91335
466.78        24.73601
467.22         24.5115
467.67        24.56842
468.11        24.85837
468.55        24.88746
468.99        24.66903
469.44        24.62881
469.88        24.77656
470.32        24.86049
470.77        24.86017
471.21        24.86821
471.65        24.88586
472.10        24.88784
472.54        24.87857
472.98        24.91318
473.42        24.99339
473.87        25.03485
474.31        25.04461
474.75        25.18932
475.20        25.41537
475.64        25.43798
476.08        25.30588
476.52        25.32069
476.97        25.49323
477.41        25.67702
477.85        25.80859
478.29        25.86237
478.74        25.83035
479.18        25.68022
479.62        25.52317
480.06        25.53773
480.50        25.72106
480.95        25.90671
481.39        26.03106
481.83        26.10518
482.27        26.11163
482.72         26.0612
483.16        26.01975
483.60        25.96029
484.04        26.12036
484.48        26.37863
484.93        26.77869
485.37        26.94549
485.81        26.96865
486.25        27.48666
486.69         28.2271
487.14        27.82554
487.58        27.45758
488.02        28.07401
488.46        27.72083
488.90        27.79926
489.34        27.61683
489.79        27.73864
490.23        28.08449
490.67        28.25131
491.11        28.23788
491.55        28.22702
491.99        28.25393
492.43        28.30045
492.88         28.3819
493.32        28.48698
493.76        28.63445
494.20        28.85112
494.64        29.13315
495.08        29.50251
495.52        29.88497
495.96         30.0911
496.41        30.15072
496.85         30.2483
497.29        30.41518
497.73        30.65676
498.17        30.93276
498.61        31.03938
499.05         31.0071
499.49        31.13667
499.93        31.44785
500.37        31.68655
500.82        31.85091
501.26        32.18171
501.70        32.60176
502.14        32.70623
502.58        32.53376
503.02        32.49176
503.46         32.6109
503.90        32.67606
504.34        32.67194
504.78        32.67538
505.22          32.689
505.66        32.70038
506.10        32.72999
506.54        32.80366
506.98        32.92545
507.42        33.09191
507.86        33.27163
508.30        33.41207
508.74        33.49841
509.18        33.53759
509.62        33.56701
510.06        33.64844
510.50        33.79455
510.94        33.99007
511.38        34.17747
511.82        34.26295
512.26        34.22938
512.70        34.10803
513.14        33.97988
513.58        33.96676
514.02        34.08842
514.46        34.30961
514.90        34.55319
515.34         34.6211
515.78        34.54907
516.22        34.41157
516.66        34.30097
517.10        34.05482
517.54        33.69987
517.98        34.16158
518.42        34.04861
518.86        34.26317
519.30        34.37323
519.74        34.51392
520.18        34.64062
520.62        34.66283
521.06        34.58491
521.50        34.41888
521.93        34.22171
522.37        34.09595
522.81        34.06817
523.25        34.11373
523.69        34.19097
524.13        34.23273
524.57        34.21864
525.01        34.16631
525.45        34.10274
525.89        34.06945
526.32        34.07403
526.76        34.10239
527.20         34.1182
527.64        34.07131
528.08        33.95192
528.52        33.77592
528.96        33.59167
529.40        33.47004
529.83        33.42471
530.27        33.44536
530.71        33.47147
531.15        33.41105
531.59        33.24986
532.03        33.01994
532.46        32.79366
532.90        32.70562
533.34        32.76896
533.78        32.93406
534.22        33.11677
534.66        33.18877
535.09        33.11509
535.53        32.95076
535.97        32.74599
536.41        32.57655
536.85        32.47156
537.28        32.42311
537.72        32.43578
538.16        32.41768
538.60        32.51752
539.04        32.59895
539.47         32.6728
539.91        32.76928
540.35        32.90279
540.79        32.78484
541.22        32.86227
541.66        32.93875
542.10        33.17352
542.54        33.02385
542.97        33.34066
543.41        33.47044
543.85        33.64169
544.29        33.77689
544.72        33.86594
545.16        33.98589
545.60        34.13141
546.04        34.19601
546.47        34.24505
546.91        34.56212
547.35        35.07019
547.79        35.40744
548.22        35.53865
548.66        35.61031
549.10        35.67662
549.53        35.93504
549.97         36.3891
550.41        36.43237
550.84        36.73239
551.28        36.89284
551.72        37.14203
552.15        37.41314
552.59         37.7098
553.03        38.02911
553.46         38.3116
553.90        38.51205
554.34        38.61684
554.77        38.64408
555.21        38.65118
555.65        38.71326
556.08        38.84406
556.52        39.01624
556.96        39.19723
557.39        39.38325
557.83        39.54911
558.27        39.60923
558.70        39.58852
559.14         39.6083
559.57        39.66853
560.01         39.7567
560.45        39.84885
560.88        39.84809
561.32        39.82762
561.75        39.93036
562.19        40.27389
562.63        40.39515
563.06        40.35506
563.50        40.44528
563.93        40.64767
564.37        40.86827
564.80        40.91176
565.24        41.03461
565.68        41.16546
566.11        41.28857
566.55         41.4311
566.98        41.52787
567.42        41.55906
567.85        41.95599
568.29        41.76826
568.72        42.10843
569.16        42.61495
569.60        42.94992
570.03        43.06163
570.47        43.21869
570.90        43.22242
571.34        43.57332
571.77         43.4173
572.21         43.7204
572.64        44.13128
573.08        44.50912
573.51        44.34969
573.95        44.79021
574.38        45.35924
574.82         45.6079
575.25        45.74334
575.69        45.49642
576.12        45.48734
576.56        45.31824
576.99        45.16417
577.42         45.6186
577.86        45.71987
578.29        45.65839
578.73        46.20294
579.16        46.04816
579.60        45.69447
580.03         45.3428
580.47        45.41667
580.90        45.07848
581.33        44.98911
581.77        45.05502
582.20        45.60484
582.64        45.43852
583.07        44.89177
583.51        44.70211
583.94        44.02277
584.37        44.03352
584.81        43.38119
585.24        43.63519
585.68        43.88111
586.11        43.75075
586.54        43.60887
586.98        43.22139
587.41        43.34309
587.85        43.33274
588.28        43.30969
588.71        43.19432
589.15        43.03802
589.58         42.5486
590.01        42.72064
590.45        42.94667
590.88        43.08309
591.31         43.1622
591.75        42.53332
592.18        42.62774
592.61        42.35544
593.05        42.91314
593.48        42.51599
593.91        43.80668
594.35        43.43283
594.78        43.65252
595.21        43.90075
595.65         44.2077
596.08        44.20607
596.51        44.19717
596.94        44.17914
597.38          44.176
597.81         44.2718
598.24        44.60535
598.68        45.43909
599.11        45.35134
599.54        46.54384
599.97        46.36704
600.41        46.83508
600.84        47.07229
601.27        47.70374
601.70        48.19225
602.14        48.66955
602.57        49.12837
603.00        49.60998
603.43        49.95543
603.87        50.21293
604.30        50.79977
604.73        51.65649
605.16        51.68511
605.60        51.95068
606.03        52.35095
606.46        53.00112
606.89        53.99028
607.32        54.34093
607.76        54.25358
608.19        54.90061
608.62        55.50256
609.05        55.47189
609.48        55.71534
609.92        56.01355
610.35        56.02882
610.78          56.909
611.21         57.7272
611.64        57.40067
612.07        57.87365
612.50        58.30397
612.94        58.23411
613.37         58.7906
613.80        58.95271
614.23        59.11531
614.66         59.6492
615.09        59.96239
615.52        60.45705
615.96        60.80289
616.39        61.11928
616.82         61.5192
617.25        60.84869
617.68        61.27164
618.11        61.61082
618.54        62.07733
618.97         62.1265
619.40        61.71481
619.84        61.79238
620.27        61.48192
620.70        61.98507
621.13        62.81457
621.56        63.05038
621.99        62.81127
622.42        62.78569
622.85        63.09232
623.28        63.23904
623.71        63.20818
624.14        63.50572
624.57         63.3875
625.00        63.32952
625.43        63.42585
625.86        62.71523
626.29        62.65877
626.72        62.37714
627.15        62.33001
627.58        62.36056
628.01        62.34456
628.44        62.50479
628.87        62.29743
629.30        61.70641
629.73        61.32737
630.16        61.16378
630.59        60.80508
631.02        60.45793
631.45        60.08022
631.88        59.76498
632.31        59.46989
632.74        59.16648
633.17        58.81004
633.60         58.3823
634.03        57.87781
634.46        57.31206
634.89        56.71382
635.32        56.12597
635.75        55.57269
636.18        55.05923
636.61        54.60254
637.04        54.18719
637.47        53.86006
637.89        53.57479
638.32        53.29972
638.75        52.98673
639.18        52.62421
639.61        52.22935
640.04        51.81948
640.47        51.42376
640.90        51.05824
641.33        50.72134
641.76        50.42986
642.18        50.21477
642.61         50.0707
643.04        49.99117
643.47        49.95688
643.90        49.93171
644.33        49.90436
644.76        49.88761
645.18        49.87664
645.61        49.86534
646.04        49.86065
646.47        49.86322
646.90        49.91458
647.33        50.08367
647.75         50.3806
648.18        50.77734
648.61        51.21373
649.04        51.59153
649.47        51.89279
649.89        52.13774
650.32        52.37831
650.75        52.74641
651.18         53.2616
651.61        53.74392
652.03        54.21564
652.46        54.95822
652.89        55.84999
653.32         56.3306
653.74        56.50607
654.17        56.97357
654.60        57.20174
655.03        58.82009
655.46         57.9758
655.88        59.62782
656.31        61.18728
656.74        67.08896
657.16          65.923
657.59        63.79596
658.02        62.69785
658.45        62.11408
658.87        62.91199
659.30        63.14154
659.73        63.73357
660.15        63.90602
660.58        64.20882
661.01        63.94974
661.44        63.52351
661.86        63.71653
662.29        64.49797
662.72         65.4126
663.14        66.17233
663.57        66.17047
664.00        65.61674
664.42        65.54583
664.85        66.05226
665.27         66.4665
665.70        66.69556
666.13        66.95125
666.55         67.2172
666.98        67.42368
667.41        67.58972
667.83        67.74783
668.26        67.89616
668.69        68.03523
669.11        68.17419
669.54        68.32386
669.96        68.49863
670.39        68.71136
670.82        68.92741
671.24        69.17164
671.67        69.43297
672.09        69.58555
672.52        69.66808
672.94        70.01096
673.37        70.48964
673.80        70.44189
674.22        69.99355
674.65        69.89658
675.07        70.22353
675.50        70.55767
675.92        70.80183
676.35        70.93968
676.77        70.94654
677.20        70.83747
677.62         70.7113
678.05        70.73253
678.47        70.93214
678.90        71.26986
679.32        71.67001
679.75         71.9726
680.17        72.12543
680.60        72.24314
681.02        72.39822
681.45        72.26868
681.87         72.5377
682.30        72.69193
682.72        72.89015
683.15        72.94156
683.57        72.89986
684.00        72.95462
684.42        73.20718
684.85        73.42154
685.27        73.61273
685.70        73.88679
686.12        74.19136
686.54        74.42388
686.97        74.56136
687.39        74.60374
687.82        74.57172
688.24        74.62143
688.66        74.72603
689.09        74.66809
689.51        74.50185
689.94         74.4724
690.36        74.62262
690.78        74.77652
691.21        74.89697
691.63         75.1371
692.06        75.51466
692.48        75.47725
692.90        75.71502
693.33        76.14173
693.75          75.718
694.17        75.83295
694.60        76.09573
695.02        76.05756
695.44        75.73463
695.87        75.91407
696.29        76.44326
696.71        76.10073
697.14        75.26121
697.56        75.40661
697.98        76.70124
698.41        77.76984
698.83        77.14534
699.25        76.79027
699.68        76.81202
700.10        76.74353
700.52        76.74837
700.94         76.8726
701.37        77.05287
701.79        77.21671
702.21        77.30602
702.64        77.33779
703.06        77.37111
703.48        77.49927
703.90        77.71028
704.33        78.06469
704.75         78.4878
705.17        78.47494
705.59        77.91259
706.01        78.27936
706.44        77.34533
706.86        77.36377
707.28        77.66361
707.70        78.26065
708.12        78.92419
708.55        79.18989
708.97        79.06691
709.39        78.96754
709.81        78.96371
710.23        78.87861
710.66        78.75578
711.08        78.74841
711.50        78.84248
711.92        78.94828
712.34        79.05606
712.76        79.20402
713.19        79.35328
713.61        79.49989
714.03        79.60294
714.45        79.65839
714.87        79.69783
715.29        79.77977
715.71        79.91473
716.13        80.08714
716.56        80.23361
716.98        80.34245
717.40        80.36951
717.82        80.32902
718.24        80.27322
718.66        80.28527
719.08        80.38454
719.50        80.54839
719.92        80.71346
720.34        80.78265
720.76        80.73775
721.19        80.58903
721.61        80.42916
722.03        80.41018
722.45        80.56443
722.87        80.74058
723.29         80.8969
723.71        81.04225
724.13        81.15536
724.55        81.21288
724.97        81.27207
725.39         81.3652
725.81         81.4879
726.23        81.77135
726.65        82.22049
727.07        81.97569
727.49         82.4136
727.91        82.43076
728.33        82.45097
728.75        82.45102
729.17        82.45631
729.59        82.45798
730.01        82.45356
730.43        82.49524
730.85        82.58852
731.27        82.66798
731.69        82.74433
732.10         82.9637
732.52        83.24812
732.94        83.31361
733.36        83.15398
733.78        83.04401
734.20        83.02275
734.62        82.89412
735.04        82.65039
735.46        82.69505
735.88        82.52809
736.30        82.38873
736.72        82.42405
737.13        82.53252
737.55        82.72208
737.97        83.21596
738.39        83.79795
738.81        83.64261
739.23        82.94058
739.65        82.78102
740.06        83.14899
740.48        83.57245
740.90        83.90198
741.32        83.23778
741.74         83.0091
742.16        82.78905
742.57        83.04215
742.99        83.27557
743.41        83.41705
743.83        83.51976
744.25        83.53525
744.67        83.44827
745.08        83.29808
745.50        83.11847
745.92        82.95152
746.34         82.7893
746.75         82.6542
747.17        82.57761
747.59         82.5729
748.01        82.66505
748.42        82.82886
748.84        82.99076
749.26        83.16458
749.68         83.2555
750.09        83.30994
750.51        83.70233
750.93        84.25922
751.35        84.19407
751.76        83.59554
752.18        83.31212
752.60        83.38902
753.01         83.3662
753.43        83.24131
753.85        83.28742
754.27        83.51002
754.68        83.85703
755.10        84.19858
755.52        84.28674
755.93        84.16212
756.35        83.84161
756.77         83.5178
757.18        83.42267
757.60        83.65435
758.02        84.14597
758.43        84.67709
758.85        84.94594
759.26        85.23066
759.68        84.53839
760.10        84.29242
760.51        84.11495
760.93        84.44902
761.34        83.88388
761.76        84.14217
762.18        83.87532
762.59        83.72197
763.01        83.30052
763.42        83.48937
763.84        83.86144
764.26        84.50062
764.67        84.71025
765.09        84.59761
765.50        84.78963
765.92        85.25382
766.33        85.53589
766.75        85.44598
767.16        84.94666
767.58        84.17548
768.00        83.60117
768.41        83.50126
768.83        83.99844
769.24        84.88039
769.66        85.65717
770.07        86.07143
770.49        85.84796
770.90        85.23084
771.32        85.26342
771.73        85.86444
772.15        85.89764
772.56        85.36787
772.97        84.96072
773.39        84.75223
773.80        84.73577
774.22        84.80457
774.63        84.55331
775.05        84.10546
775.46        84.11465
775.88        84.59541
776.29        85.24276
776.70        85.77787
777.12        85.92519
777.53        85.61731
777.95        84.89841
778.36        84.09985
778.77        83.78425
779.19        84.08778
779.60        84.90967
780.02        85.83174
780.43        86.40411
780.84        86.50111
781.26        85.72471
781.67        84.61547
782.09        85.38105
782.50        87.49864
782.91        87.66398
783.33        86.02839
783.74        85.59049
784.15        86.44151
784.57        86.94142
784.98        86.88818
785.39        86.50072
785.81        85.89966
786.22        85.57036
786.63        85.56158
787.04        85.50492
787.46         85.4314
787.87        85.43581
788.28        85.84663
788.70        86.13196
789.11         86.3431
789.52        86.56639
789.93        86.77434
790.35        86.84399
790.76        86.77819
791.17        86.69177
791.58        86.61053
792.00        86.32795
792.41        85.87481
792.82        85.77486
793.23        85.90695
793.65        85.20609
794.06        84.17437
794.47        84.62792
794.88        86.17801
795.29        87.71771
795.71        87.84289
796.12        86.94086
796.53        87.53272
796.94        86.96571
797.35        86.28713
797.76        85.95321
798.18        86.03753
798.59        86.25897
799.00         86.4947
799.41        86.75942
799.82        86.97643
800.23        87.15843
800.64        87.26474
801.06         87.1174
801.47        86.87546
801.88        86.84278
802.29        87.06103
802.70        87.41467
803.11        87.72368
803.52        87.69701
803.93        87.29888
804.34        86.67149
804.75        85.99965
805.17        85.66146
805.58        85.79277
805.99        85.93858
806.40        86.10535
806.81        87.10593
807.22        88.48076
807.63        88.41269
808.04         87.1596
808.45        86.65441
808.86        87.15417
809.27        87.89735
809.68        88.62069
810.09        89.02541
810.50        88.97266
810.91        88.69596
811.32        88.34904
811.73        87.99166
812.14        87.68083
812.55        87.56734
812.96        87.57372
813.37        87.18462
813.78        86.55968
814.19        86.59396
814.60        87.17059
815.01        87.40076
815.42        87.23029
815.83        87.11736
816.24        87.15162
816.65        87.26468
817.05        87.48123
817.46        87.76349
817.87        88.02658
818.28        88.08759
818.69        87.92984
819.10        87.61478
819.51        87.28791
819.92        87.25363
820.33        87.59253
820.74        88.07619
821.14        88.61401
821.55        89.30289
821.96        89.95161
822.37        89.98711
822.78        89.49212
823.19        89.17358
823.60        89.11716
824.00        88.95589
824.41        88.66807
824.82        88.54331
825.23        88.60945
825.64        88.81837
826.04        89.09549
826.45        89.25922
826.86        89.27407
827.27        89.17477
827.68        89.03242
828.08        89.00322
828.49        89.05724
828.90        89.18482
829.31        89.30379
829.72        89.27737
830.12        89.09653
830.53        88.78235
830.94        88.44672
831.35        88.21709
831.75        88.15395
832.16        88.17458
832.57        88.26162
832.97        88.35799
833.38        88.40992
833.79        88.43798
834.20        88.44853
834.60        88.44095
835.01        88.43885
835.42        88.45088
835.82        88.46616
836.23        88.40891
836.64         88.2966
837.04        88.13501
837.45        88.02534
837.86        88.18282
838.26        88.65282
838.67        89.33801
839.08        90.00015
839.48        90.18433
839.89        89.78979
840.29        88.99805
840.70        88.19813
841.11        87.87355
841.51        88.14869
841.92        88.80069
842.33          89.675
842.73        90.49907
843.14        91.02708
843.54        91.41923
843.95        91.52206
844.35        91.19079
844.76         90.4697
845.17        89.43839
845.57        88.43265
845.98        88.00077
846.38        88.25555
846.79        89.06172
847.19        90.18157
847.60        90.98563
848.00        91.32347
848.41        91.26323
848.81        91.07047
849.22        91.08479
849.62        91.44624
850.03        91.98124
850.43        92.52248
850.84        92.64662
851.24        92.32203
851.65        91.62542
852.05        90.89498
852.46        90.54033
852.86        90.67111
853.27        91.15251
853.67        91.67741
854.07        91.97485
854.48        91.91467
854.88        91.57243
855.29        91.03551
855.69        90.70346
856.10        90.58021
856.50        90.62593
856.90        90.73692
857.31        90.80663
857.71        90.87319
858.12        90.91902
858.52        90.95888
858.92        90.89076
859.33        90.67632
859.73         90.3644
860.13        90.04832
860.54        89.93172
860.94         90.1438
861.34        90.57774
861.75        90.98057
862.15        91.04517
862.55         90.6544
862.96         89.9353
863.36        89.13988
863.76        88.64333
864.17        88.56202
864.57        88.80519
864.97        89.23339
865.38         89.6085
865.78         89.8966
866.18        90.07896
866.58        90.15659
866.99        90.13567
867.39        90.08218
867.79         89.9533
868.19        89.61613
868.60        88.84943
869.00        87.62409
869.40        86.06613
869.80        84.61984
870.21        84.01266
870.61         84.4673
871.01        85.70708
871.41        87.13863
871.81        87.80918
872.22        87.49973
872.62        86.52984
873.02        85.31675
873.42        84.64581
873.82        84.63109
874.22          84.766
874.63        85.03582
875.03        85.51225
875.43        86.07533
875.83        87.16791
876.23        87.40278
876.63         87.3205
877.03        86.67544
877.44        85.42875
877.84        113.8336
878.24        84.97799
878.64        85.60199
879.04        87.53479
879.44        86.11044
879.84        84.90732
880.24        86.21749
880.64         85.3918
881.04        82.94398
881.44        81.47498
881.84        81.55403
882.24        82.70451
882.65        84.18456
883.05        84.78384
883.45        84.09952
883.85        82.68587
884.25        81.24726
884.65        80.67251
885.05        81.17337
885.45        82.43336
885.85        83.91515
886.25        84.73598
886.65        84.62716
887.05         83.8788
887.45        82.91006
887.85        82.33528
888.25        82.33038
888.65        82.71229
889.04        83.25688
889.44        83.50179
889.84        83.35879
890.24        82.98396
890.64        82.60281
891.04        82.53452
891.44        82.81882
891.84         83.2897
892.24        83.73696
892.64        83.82009
893.04        83.46425
893.44        82.86133
893.83        82.08765
894.23        81.28962
894.63         80.5247
895.03        79.75659
895.43        79.20097
895.83        79.22131
896.23        79.84916
896.63        80.96818
897.02        82.18262
897.42        82.73319
897.82        82.44925
898.22        81.56123
898.62        80.44124
899.01        79.66801
899.41        79.45139
899.81           79.59
900.21        79.98738
900.61        80.50243
901.00        81.04255
901.40        81.63095
901.80        82.17429
902.20        82.48472
902.59        82.53268
902.99        82.35007
903.39        82.00283
903.79        81.62118
904.18        81.26759
904.58        80.95473
904.98        80.80485
905.38        81.00777
905.77        81.55298
906.17        82.39084
906.57        83.22823
906.96        83.62835
907.36        83.45634
907.76        82.81779
908.15        82.03416
908.55        81.57379
908.95        81.58492
909.34        81.99154
909.74        82.44701
910.14        82.36068
910.53        81.60381
910.93        80.43114
911.33        79.37809
911.72        79.28307
912.12        80.24921
912.52        81.90083
912.91        83.62355
913.31        84.40777
913.70        84.07098
914.10        82.89955
914.49        81.27389
914.89        80.01781
915.29        79.49493
915.68         79.4696
916.08        79.86569
916.47         80.5368
916.87        81.34559
917.26        82.30849
917.66        83.18728
918.05        83.61546
918.45        83.48193
918.84        82.92673
919.24        82.05511
919.64        81.09115
920.03        80.18359
920.42        79.33153
920.82        78.81934
921.21        79.00781
921.61        79.87045
922.00        81.33212
922.40        82.86217
922.79        83.81628
923.19        83.95169
923.58        83.29992
923.98        82.13824
924.37        81.37102
924.77        81.40112
925.16        80.05557
925.55         80.8233
925.95        80.53786
926.34        80.26502
926.74        79.97905
927.13        79.92361
927.52        80.29137
927.92         81.0636
928.31        82.23064
928.70        83.41166
929.10        83.96459
929.49         83.7279
929.89        82.84658
930.28        81.85548
930.67        81.62268
931.07        82.30969
931.46        83.68908
931.85        85.15928
932.24        85.82604
932.64        85.45936
933.03        84.25729
933.42        82.69383
933.82        81.75599
934.21        81.72939
934.60        82.31117
934.99        82.85355
935.39        82.61864
935.78        81.48112
936.17        79.37101
936.56        76.62438
936.96        76.54922
937.35        75.98138
937.74        77.39352
938.13        79.03462
938.53        80.28323
938.92        81.03236
939.31        81.49854
939.70        81.73996
940.09        81.73893
940.49        81.55472
940.88        81.21839
941.27        80.87228
941.66        80.78059
942.05        80.99145
942.44        81.41248
942.84        82.02808
943.23        82.81939
943.62        83.68608
944.01        84.64146
944.40        85.36627
944.79         85.3613
945.18        84.53747
945.57        82.96913
945.97        81.22836
946.36         80.3793
946.75        80.76283
947.14        82.05074
947.53        83.50852
947.92        84.10036
948.31         83.6404
948.70        82.46041
949.09        81.06634
949.48        80.33387
949.87        80.52929
950.26        81.35076
950.65        82.40604
951.04        83.06725
951.43        83.11253
951.82        82.73347
952.21        82.12614
952.60        81.58681
952.99        81.23382
953.38        80.98944
953.77        80.77402
954.16        80.47768
954.55         80.0918
954.94        79.68917
955.33        79.42053
955.72        79.50124
956.11        79.98112
956.50        80.79927
956.89        81.73264
957.28        82.35863
957.66        82.52193
958.05        82.24982
958.44        81.80241
958.83        81.54114
959.22        81.53789
959.61        81.71695
960.00        81.81989
960.39        81.40645
960.78        80.41389
961.16        79.00128
961.55         77.6742
961.94         77.0516
962.33        77.25621
962.72        78.10587
963.11        79.13617
963.49        79.56658
963.88        79.09146
964.27        77.99226
964.66        76.73273
965.04        76.08163
965.43        76.24471
965.82         77.0009
966.21        78.00522
966.60        78.69697
966.98        78.92136
967.37        78.83031
967.76        78.68578
968.15         78.8792
968.53        79.50391
968.92        80.29388
969.31        81.03171
969.69        81.38378
970.08        81.18549
970.47        80.60548
970.86        79.71512
971.24        78.58749
971.63        77.37287
972.02        76.11741
972.40        75.01694
972.79        74.39796
973.17        74.38683
973.56        74.81365
973.95        75.62412
974.33         76.6589
974.72        77.64415
975.11        78.55915
975.49        79.13793
975.88        78.99426
976.26        78.12937
976.65         76.7424
977.04        75.14176
977.42        73.89692
977.81         73.2317
978.19        72.97808
978.58        73.24718
978.96        74.22736
979.35        75.76661
979.74        77.92455
980.12        80.00643
980.51        80.50045
980.89        79.27338
981.28        76.76765
981.66        74.19679
982.05         73.2835
982.43        74.27532
982.82        76.65913
983.20        79.59073
983.59        81.19994
983.97        80.98218
984.35        79.35158
984.74        77.22017
985.12        75.93712
985.51        75.88479
985.89        76.71379
986.28        77.76237
986.66        77.91138
987.04        76.76871
987.43        74.97116
987.81        73.12865
988.20        71.91137
988.58        71.37666
988.96        71.26483
989.35        71.45615
989.73        71.77493
990.12        71.97977
990.50        72.28209
990.88        72.44752
991.27        72.17383
991.65        71.56884
992.03        70.65668
992.42        69.89662
992.80        70.21526
993.18        71.78217
993.56        74.08473
993.95        76.41286
994.33        78.15492
994.71        78.99046
995.10        79.13295
995.48        78.69335
995.86        77.75601
996.24        76.44805
996.63        74.77998
997.01        72.95092
997.39        71.60406
997.77        71.11209
998.15        71.27679
998.54        72.07261
998.92         73.4909
999.30        75.58081
999.68        78.67844
1000.06        81.82119
1000.45        81.85213
1000.83        77.95712
1001.21         71.8532
1001.59         66.4084
1001.97        63.74575
1002.35        63.64299
1002.73        65.49197
1003.12        68.37617
1003.50        70.18885
1003.88        69.78516
1004.26        67.87045
1004.64        65.46925
1005.02        64.02707
1005.40        63.96523
1005.78        64.79568
1006.16        66.28087
1006.54        67.89645
1006.92        69.13188
1007.30        69.99937
1007.69        70.51907
1008.07        70.87946
1008.45        71.13444
1008.83        71.36079
1009.21        71.14049
1009.59        69.44556
1009.97        65.91044
1010.35         61.0716
1010.73        57.41319
1011.11        57.56826
1011.49        61.24302
1011.86        67.39474
1012.24        72.90988
1012.62        74.73809
1013.00        72.71562
1013.38        68.09219
1013.76        62.58855
1014.14        59.27395
1014.52        59.11179
1014.90        61.08481
1015.28        64.03458
1015.66        66.02863
1016.04        66.31992
1016.41        65.57381
1016.79        63.68924
1017.17        60.96287
1017.55        58.14756
1017.93        55.36895
1018.31        53.38116
1018.69        52.90282
1019.06        53.70407
1019.44        55.39258
1019.82         57.2457
1020.20        57.35237
1020.58        55.02786
1020.95        51.08525
1021.33        46.18521
1021.71        40.25741
1022.09        32.37494
1022.46        18.82635
1022.84       0.7434004
1023.22     -0.03793404
1023.60        23.62494
1023.97        47.34585
1024.35        60.27032
1024.73        64.47599
