SpectraSmart Spectrum 2.9.0.0
--------- Device Information -----------
Spectrum Name :  反射率_0
Saving Time :  2024/04/20 00:49:56
Spectro-Module Model Name : SE2030-DUVN
Spectro-Module Serial Number : OS361AC55029948
Wavelength Start : 200
Wavelength End : 1025
Wavelength Unit : Wavelength(nm)
Spectrum Unit : Reflectance(%)
-----------Spectrum Setting ------------
Integration Time : 30ms
Average : 10
Boxcar : 0
Background removal :  enabled
linearity correction :  enabled
SC :  disabled
Intensity correction :  disabled
DWT denoise :  enabled
savitzky-golay :  disabled
FFT :  disabled
Running average :  disabled
Kalman :  disabled
High pass :  disabled
---------------BEGIN--------------------
Wavelength(nm)             Reflectance(%)
200.29               0
200.75         59.4922
201.21        63.46043
201.67         70.7156
202.13        79.96816
202.58        90.00565
203.04        100.9969
203.50        109.4212
203.96        108.2379
204.42        98.84232
204.88        86.73793
205.34        76.68161
205.80        70.55372
206.26        67.12044
206.72        65.06436
207.18        64.27162
207.64        64.75364
208.10        66.36769
208.55        69.37347
209.01        71.40332
209.47        71.30581
209.93        69.40073
210.39        66.11366
210.85        62.69352
211.31        60.50007
211.77          59.597
212.23        59.77623
212.69        60.39376
213.14        59.82571
213.60        57.68515
214.06        55.74203
214.52         55.0996
214.98        56.52698
215.44         59.8414
215.90        64.58505
216.36        70.35034
216.81        75.28904
217.27        77.89281
217.73        78.77294
218.19        77.71496
218.65         74.3975
219.11        69.00432
219.57        61.23609
220.02        52.93541
220.48        49.47077
220.94        52.49369
221.40        61.14044
221.86        71.45207
222.32        77.19472
222.77        76.87217
223.23         72.5023
223.69        67.10598
224.15        65.10051
224.61        66.82725
225.06        70.11748
225.52        73.14379
225.98        74.38918
226.44         73.8247
226.90        72.17241
227.36        70.16528
227.81        68.92055
228.27        69.06383
228.73        69.98492
229.19        71.04464
229.65        71.53127
230.10         71.3398
230.56        70.87353
231.02        70.44617
231.48        70.50901
231.93        70.98892
232.39        71.66061
232.85        72.14483
233.31        71.93399
233.77        70.92278
234.22        69.34539
234.68        67.37042
235.14        65.23625
235.60         63.2071
236.05        61.34467
236.51        59.92289
236.97        59.26207
237.43        59.43742
237.88          60.674
238.34        62.67274
238.80        64.69852
239.26        65.92991
239.71        66.14564
240.17        65.44434
240.63        64.76543
241.08        64.48245
241.54        64.42204
242.00        63.94126
242.46         61.6726
242.91        56.79234
243.37        48.10597
243.83        36.53719
244.28        30.39115
244.74        37.42922
245.20        55.65231
245.66        72.82059
246.11          78.824
246.57        72.87464
247.03        55.12719
247.48        29.67512
247.94        20.59647
248.40        32.47862
248.85        48.83329
249.31        60.83704
249.77        66.12438
250.22        66.42499
250.68        63.80373
251.14        59.60261
251.59        56.73225
252.05        57.09534
252.51        59.91188
252.96        63.53773
253.42        65.31497
253.88        64.56155
254.33        62.51262
254.79        61.29103
255.25           62.61
255.70        66.14812
256.16        70.63064
256.62        74.54067
257.07        76.25874
257.53        75.89212
257.99        74.06663
258.44        71.31107
258.90        69.11726
259.35        67.42498
259.81        66.50579
260.27         65.6715
260.72        64.34041
261.18        62.77078
261.63        60.72749
262.09         59.0843
262.55        58.49003
263.00        58.81248
263.46        59.83079
263.91        60.48606
264.37        59.85988
264.83        57.97248
265.28        55.23325
265.74        52.79477
266.19        51.78058
266.65        52.34898
267.11        53.85432
267.56        55.43808
268.02         55.8989
268.47        55.00952
268.93         53.2043
269.38        50.98367
269.84        49.38902
270.30        48.70732
270.75        48.62919
271.21        48.79328
271.66         48.6488
272.12        48.03901
272.57        47.14682
273.03        46.19994
273.48        45.43383
273.94        44.96269
274.39        44.63384
274.85        44.32295
275.31        43.81047
275.76        43.03553
276.22         42.1163
276.67        41.16996
277.13        40.49144
277.58        40.06385
278.04        39.83944
278.49        39.58397
278.95        39.05949
279.40        38.19307
279.86        37.17533
280.31        36.13411
280.77        35.40962
281.22         34.9816
281.68        34.77345
282.13        34.62439
282.59        34.35729
283.04        33.91373
283.50        33.40314
283.95        32.85155
284.41        32.34469
284.86        31.88436
285.32        31.46852
285.77        31.11595
286.22        30.93437
286.68        30.91898
287.13        31.00484
287.59        31.08821
288.04        30.97679
288.50        30.66241
288.95          30.172
289.41        29.63114
289.86        29.15817
290.32        28.84263
290.77        28.63383
291.22        28.52487
291.68        28.46684
292.13        28.44721
292.59        28.50991
293.04        28.66327
293.50        28.93446
293.95        29.31249
294.40        29.76444
294.86        30.27969
295.31        30.85649
295.77        31.48257
296.22        32.15436
296.68        32.80991
297.13         33.3302
297.58         33.7059
298.04        33.97531
298.49        34.25184
298.95        34.75515
299.40        35.50736
299.85        36.44085
300.31        37.40767
300.76        38.17068
301.21        38.68067
301.67        39.04147
302.12        39.33543
302.58        39.75271
303.03        40.30794
303.48        40.95318
303.94        41.66047
304.39        42.34698
304.84        42.98861
305.30        43.59486
305.75        44.12004
306.20        44.52236
306.66        44.81769
307.11        44.99858
307.57        45.11149
308.02        45.14825
308.47        45.14942
308.93        45.11753
309.38        45.09597
309.83        45.20389
310.29        45.44388
310.74         45.7795
311.19        46.06863
311.65        46.08157
312.10        45.77694
312.55        45.23448
313.00        44.64344
313.46        44.29449
313.91        44.23828
314.36        44.40409
314.82         44.6333
315.27        44.69242
315.72        44.50339
316.18         44.1536
316.63        43.74653
317.08        43.45195
317.53        43.30744
317.99        43.24293
318.44        43.18427
318.89        43.00473
319.35        42.67495
319.80        42.25087
320.25        41.79435
320.70        41.39995
321.16        41.09236
321.61        40.84398
322.06        40.62762
322.51        40.40573
322.97        40.15131
323.42        39.88311
323.87        39.58381
324.32        39.22953
324.78        38.81617
325.23        38.36893
325.68        37.90289
326.13        37.45599
326.59        37.04868
327.04         36.6987
327.49         36.4257
327.94        36.26182
328.39        36.19985
328.85         36.2026
329.30         36.2506
329.75        36.24957
330.20        36.16481
330.66        35.99486
331.11        35.76783
331.56        35.47595
332.01        35.13185
332.46        34.73785
332.92        34.33982
333.37        34.03285
333.82        33.84254
334.27        33.76546
334.72        33.75273
335.17        33.70988
335.63        33.59679
336.08        33.44466
336.53        33.29458
336.98          33.236
337.43        33.28314
337.88        33.40193
338.34        33.49019
338.79          33.431
339.24        33.18087
339.69        32.78092
340.14        32.35564
340.59        32.11203
341.05        32.09059
341.50        32.23922
341.95        32.43087
342.40        32.46467
342.85        32.29651
343.30        32.00394
343.75        31.67643
344.20        31.45864
344.66        31.38906
345.11        31.39004
345.56        31.44643
346.01        31.53345
346.46        31.61933
346.91        31.72049
347.36         31.7422
347.81         31.5318
348.26         31.0893
348.72        30.49374
349.17        29.89149
349.62        29.60407
350.07        29.70302
350.52        30.07478
350.97        30.55816
351.42        30.90877
351.87        31.04523
352.32        31.03173
352.77        30.88459
353.22        30.63432
353.67        30.31659
354.13        29.93955
354.58        29.54809
355.03        29.25913
355.48        29.10372
355.93        29.06964
356.38        29.11319
356.83        29.15174
357.28        29.15138
357.73        29.11763
358.18        29.06228
358.63        29.00992
359.08        28.96213
359.53        28.90676
359.98        28.80379
360.43        28.59661
360.88        28.28614
361.33        27.90044
361.78        27.51993
362.23        27.27408
362.68         27.1869
363.13        27.20906
363.58        27.25741
364.03        27.20084
364.48        27.00126
364.93        26.69901
365.38        26.32456
365.83        25.93643
366.28        25.56912
366.73        25.20887
367.18        24.88823
367.63         24.6563
368.08        24.51486
368.53        24.45546
368.98        24.41875
369.43        24.30372
369.88        24.09043
370.33        23.80836
370.78        23.51082
371.23        23.29509
371.68        23.19032
372.13        23.15934
372.58        23.17585
373.03        23.19791
373.48        23.19613
373.93        23.17434
374.38        23.10626
374.83        22.94893
375.28        22.70195
375.72         22.3775
376.17        22.03301
376.62        21.72344
377.07        21.48123
377.52        21.29765
377.97         21.1938
378.42         21.1964
378.87        21.28898
379.32        21.44605
379.77         21.6018
380.22        21.65698
380.67        21.58934
381.11        21.43051
381.56        21.20216
382.01         20.9686
382.46        20.75816
382.91        20.55055
383.36        20.37777
383.81        20.28176
384.26        20.26489
384.71         20.3337
385.15        20.39995
385.60        20.32949
386.05        20.10131
386.50        19.74483
386.95        19.40405
387.40        19.31089
387.85        19.49168
388.29        19.85342
388.74         20.2009
389.19        20.24837
389.64        19.95053
390.09        19.40448
390.54        18.79672
390.98        18.41966
391.43        18.36795
391.88         18.5343
392.33        18.77186
392.78        18.86861
393.23        18.78155
393.67        18.57424
394.12        18.37142
394.57        18.27946
395.02        18.32245
395.47        18.45416
395.91        18.60704
396.36        18.64903
396.81        18.55537
397.26        18.36767
397.71        18.17098
398.15        18.07305
398.60        18.11621
399.05        18.24969
399.50        18.39186
399.95        18.42746
400.39        18.33153
400.84        18.13449
401.29        17.91742
401.74        17.82836
402.18        17.91008
402.63        18.10725
403.08        18.30726
403.53        18.33002
403.97        18.14237
404.42        17.81728
404.87        17.47877
405.32        17.32917
405.76        17.41261
406.21        17.65575
406.66        17.94828
407.11        18.11949
407.55         18.1223
408.00         18.0129
408.45        17.84291
408.90        17.65748
409.34        17.51192
409.79         17.4751
410.24        17.50808
410.68        17.47806
411.13          17.379
411.58        17.28899
412.03        17.23117
412.47        17.21675
412.92        17.24747
413.37         17.3059
413.81         17.3882
414.26        17.50513
414.71        17.64316
415.15        17.80593
415.60        17.92281
416.05        17.90885
416.49         17.7492
416.94        17.47595
417.39        17.18361
417.83        17.02486
418.28        17.04173
418.73        17.18538
419.17        17.36797
419.62        17.43825
420.07        17.36658
420.51        17.20405
420.96         17.0229
421.41        16.91532
421.85        16.90129
422.30        16.95629
422.74        17.04683
423.19        17.15596
423.64        17.26297
424.08        17.38459
424.53        17.48539
424.98        17.53037
425.42        17.51558
425.87        17.45083
426.31        17.35891
426.76        17.28797
427.21        17.24065
427.65        17.19619
428.10        17.17467
428.54        17.18184
428.99        17.21901
429.44        17.36377
429.88        17.51212
430.33        17.38248
430.77        17.03898
431.22        16.83388
431.66        16.82582
432.11        16.91225
432.56        17.06997
433.00        17.36897
433.45        17.63568
433.89        17.59605
434.34        17.35284
434.78        17.13733
435.23        16.90881
435.67        17.63895
436.12          16.915
436.57        16.86309
437.01        16.80697
437.46        16.78396
437.90        16.79325
438.35        16.85252
438.79        16.93024
439.24        16.97243
439.68        16.96846
440.13        16.79779
440.57        16.55976
441.02        16.68196
441.46        17.01031
441.91        17.01986
442.35        16.33139
442.80        16.11167
443.24        16.19547
443.69          16.216
444.13        16.13814
444.58        16.08992
445.02         16.0731
445.47        16.09904
445.91        16.13542
446.36        16.09329
446.80        15.96213
447.24        15.78979
447.69        15.63173
448.13         15.5384
448.58        15.52966
449.02        15.58404
449.47        15.65693
449.91        15.66818
450.36        15.60536
450.80        15.49363
451.25        15.37754
451.69        15.30959
452.13        15.30875
452.58        15.34519
453.02        15.40528
453.47        15.46965
453.91        15.52795
454.36        15.58622
454.80        15.61949
455.24        15.58487
455.69        15.48707
456.13        15.32675
456.58        15.16984
457.02        15.10516
457.46        15.14569
457.91        15.22857
458.35        15.31304
458.79        15.37431
459.24        15.39375
459.68        15.38185
460.13        15.39839
460.57        15.38731
461.01         15.3412
461.46        15.67103
461.90        15.75546
462.34        15.58891
462.79        15.68908
463.23         15.5357
463.68        15.40129
464.12        15.31679
464.56        15.42115
465.01         15.5859
465.45        15.74651
465.89        15.82641
466.34        15.81452
466.78        15.68477
467.22        15.50898
467.67        15.51334
468.11        15.67344
468.55          15.671
468.99         15.5181
469.44        15.48706
469.88        15.58475
470.32         15.6559
470.77        15.67486
471.21        15.68067
471.65        15.66955
472.10        15.63078
472.54        15.58635
472.98        15.60776
473.42         15.7012
473.87        15.79962
474.31        15.87775
474.75        15.99275
475.20        16.10333
475.64        16.04874
476.08        15.89454
476.52        15.87107
476.97        15.99417
477.41        16.17865
477.85        16.37071
478.29        16.42272
478.74        16.48679
479.18        16.41058
479.62        16.32067
480.06        16.33628
480.50        16.45841
480.95        16.57362
481.39        16.63306
481.83        16.64277
482.27        16.59838
482.72        16.50826
483.16         16.4216
483.60        16.40483
484.04        16.45875
484.48        16.65508
484.93        17.01982
485.37        17.13324
485.81        17.14696
486.25        17.86912
486.69        18.45932
487.14        17.90797
487.58        17.46461
488.02        18.20735
488.46        17.89253
488.90        18.10259
489.34        17.97332
489.79        18.07302
490.23        18.34922
490.67        18.54842
491.11        18.64713
491.55          18.618
491.99        18.50672
492.43        18.47428
492.88        18.54902
493.32        18.62374
493.76        18.70826
494.20         18.8581
494.64        19.06942
495.08        19.35252
495.52        19.65693
495.96        19.83712
496.41        19.91822
496.85        20.06261
497.29        20.27113
497.73        20.48553
498.17        20.67366
498.61        20.72663
499.05        20.68826
499.49        20.78844
499.93        21.05009
500.37        21.29324
500.82        21.48936
501.26        21.77057
501.70        22.07225
502.14        22.11096
502.58        21.94862
503.02        21.93556
503.46        22.10232
503.90         22.2701
504.34        22.39047
504.78        22.46125
505.22        22.46873
505.66        22.42444
506.10        22.36655
506.54        22.35146
506.98        22.39814
507.42        22.49452
507.86        22.62094
508.30        22.74398
508.74         22.8492
509.18         22.9402
509.62        23.02873
510.06        23.13264
510.50        23.25471
510.94        23.39087
511.38        23.50702
511.82        23.55062
512.26        23.51528
512.70          23.417
513.14         23.3209
513.58        23.32576
514.02          23.443
514.46        23.64371
514.90        23.85218
515.34        23.88416
515.78        23.75006
516.22        23.56133
516.66        23.41499
517.10        23.12614
517.54        22.72359
517.98        23.28598
518.42        23.18087
518.86        23.43968
519.30        23.55453
519.74        23.68689
520.18         23.7956
520.62        23.79342
521.06        23.69121
521.50        23.49966
521.93        23.27715
522.37        23.12989
522.81        23.08495
523.25        23.11557
523.69        23.18503
524.13        23.23282
524.57        23.23682
525.01        23.21208
525.45        23.16773
525.89        23.11709
526.32        23.06503
526.76        23.00784
527.20        22.93621
527.64        22.84315
528.08        22.72894
528.52        22.59543
528.96        22.46964
529.40        22.38873
529.83        22.35739
530.27        22.37361
530.71        22.38616
531.15        22.31532
531.59        22.15225
532.03         21.9243
532.46        21.70597
532.90        21.63222
533.34        21.71622
533.78        21.90664
534.22        22.11635
534.66        22.21161
535.09        22.15633
535.53        22.00361
535.97        21.80105
536.41        21.62182
536.85        21.49675
537.28        21.41516
537.72        21.38904
538.16        21.37103
538.60        21.45984
539.04         21.5631
539.47        21.67289
539.91        21.78279
540.35        21.89687
540.79        21.82998
541.22        21.88971
541.66        21.96221
542.10        22.15806
542.54        22.10575
542.97        22.37134
543.41        22.51443
543.85        22.68541
544.29        22.83535
544.72        22.94791
545.16        23.06369
545.60        23.17975
546.04         23.2168
546.47         23.2405
546.91        23.50162
547.35        23.94014
547.79        24.24911
548.22        24.39278
548.66        24.48113
549.10        24.56065
549.53        24.79383
549.97        25.17951
550.41        25.25562
550.84        25.48079
551.28        25.60775
551.72        25.80201
552.15        26.01589
552.59        26.25291
553.03        26.51337
553.46        26.74668
553.90        26.90363
554.34        26.97453
554.77        26.97743
555.21        26.96743
555.65        27.01913
556.08        27.14564
556.52        27.32001
556.96        27.50448
557.39        27.67491
557.83        27.80763
558.27        27.84866
558.70        27.82475
559.14        27.83411
559.57        27.88273
560.01        27.95875
560.45        28.04065
560.88        28.05853
561.32        28.06468
561.75        28.14408
562.19        28.38708
562.63        28.51687
563.06        28.55687
563.50        28.62036
563.93        28.70864
564.37        28.85255
564.80        28.92054
565.24        29.04304
565.68        29.15656
566.11        29.25544
566.55        29.35914
566.98        29.41758
567.42         29.4347
567.85        29.78714
568.29        29.71137
568.72        30.10739
569.16        30.64567
569.60        31.00325
570.03        31.11644
570.47        31.21589
570.90        31.19447
571.34        31.53486
571.77        31.24308
572.21        31.87332
572.64        31.94881
573.08        32.32435
573.51        32.20834
573.95        32.75819
574.38        32.90256
574.82        33.24239
575.25        33.45118
575.69        33.29789
576.12        33.16025
576.56        33.04573
576.99        33.16718
577.42        33.28558
577.86        33.36345
578.29        33.44028
578.73        33.85641
579.16         33.4169
579.60        33.07923
580.03        32.92249
580.47        33.00384
580.90        32.87507
581.33        32.48295
581.77         32.5508
582.20        33.38479
582.64        32.81116
583.07        32.29609
583.51        32.39362
583.94         31.9085
584.37        31.55099
584.81        31.29428
585.24        31.26024
585.68        31.42843
586.11        31.45866
586.54        31.16649
586.98        30.94306
587.41        30.92906
587.85        30.91296
588.28        30.89596
588.71        30.74323
589.15        30.50643
589.58        30.23817
590.01        30.27827
590.45        30.65998
590.88        30.51172
591.31        30.58945
591.75        30.20169
592.18        30.27762
592.61        30.04066
593.05        30.53092
593.48        30.64916
593.91        31.27777
594.35        30.76209
594.78        30.88952
595.21        31.03154
595.65        31.48185
596.08         31.5421
596.51        31.55734
596.94        31.45613
597.38        31.54855
597.81        31.90589
598.24         32.0986
598.68        32.54125
599.11        32.79764
599.54        33.80254
599.97        33.58119
600.41        33.76678
600.84        34.65943
601.27        34.94164
601.70        35.43935
602.14        35.64357
602.57        36.02555
603.00        36.58856
603.43        37.07471
603.87        37.32579
604.30        37.87919
604.73        38.71392
605.16        38.61603
605.60        39.35503
606.03         39.7681
606.46        40.23163
606.89        40.98779
607.32        41.28128
607.76        41.52681
608.19        41.70047
608.62        42.60317
609.05         42.5428
609.48        42.91999
609.92         43.2297
610.35        43.35494
610.78         44.3134
611.21         44.6884
611.64        44.55887
612.07        45.17987
612.50        45.44073
612.94        45.32311
613.37        45.98707
613.80        46.23355
614.23         46.4838
614.66        46.97946
615.09        47.24992
615.52        47.69254
615.96        48.06331
616.39        48.31992
616.82        48.50029
617.25        48.37168
617.68         48.4826
618.11        48.94159
618.54        49.68416
618.97        49.86442
619.40        49.51309
619.84        49.29274
620.27        49.09864
620.70        49.53788
621.13        50.35194
621.56        50.58963
621.99        50.34185
622.42        50.36676
622.85        50.73993
623.28         50.8507
623.71        50.69239
624.14        50.92957
624.57        50.80322
625.00         50.6594
625.43        50.91404
625.86         50.1237
626.29        50.29354
626.72        49.97212
627.15        49.75389
627.58        49.64737
628.01        49.60055
628.44        49.57405
628.87        49.28273
629.30        48.99136
629.73        48.63684
630.16        48.41897
630.59        48.02447
631.02        47.70763
631.45        47.36349
631.88        46.98062
632.31        46.55225
632.74        46.08906
633.17        45.60579
633.60         45.1125
634.03        44.61713
634.46         44.1322
634.89        43.65466
635.32        43.14711
635.75        42.62722
636.18        42.17403
636.61         41.7747
637.04        41.34401
637.47        40.87377
637.89        40.40773
638.32        39.96407
638.75        39.57779
639.18        39.26003
639.61        39.01129
640.04        38.78822
640.47        38.49734
640.90        38.14327
641.33        37.77252
641.76        37.43372
642.18        37.17878
642.61        37.02104
643.04         36.9521
643.47        36.94429
643.90        36.94279
644.33          36.932
644.76        36.93536
645.18        36.94951
645.61        36.96985
646.04         37.0015
646.47        37.04074
646.90        37.12782
647.33        37.32928
647.75        37.65394
648.18        38.08085
648.61        38.54279
649.04        38.91815
649.47        39.18581
649.89        39.40472
650.32        39.64984
650.75         39.9956
651.18        40.49701
651.61        41.18989
652.03        42.00165
652.46         42.8076
652.89        43.54478
653.32        44.00157
653.74        44.19543
654.17        44.92711
654.60        45.27549
655.03        46.26664
655.46        45.66885
655.88        47.88457
656.31        49.32124
656.74        57.44922
657.16        54.33092
657.59        49.77057
658.02        50.01961
658.45        50.17079
658.87        50.89022
659.30        51.39919
659.73        51.99676
660.15        52.84481
660.58        52.88217
661.01        52.80275
661.44        52.49794
661.86        52.67342
662.29        53.31289
662.72        54.06047
663.14        54.70773
663.57        54.76089
664.00        54.39405
664.42        54.43933
664.85        54.96804
665.27        55.43503
665.70        55.73775
666.13        56.00953
666.55        56.23149
666.98        56.36208
667.41         56.4425
667.83        56.54216
668.26        56.67154
668.69        56.81702
669.11        56.98012
669.54        57.13744
669.96        57.28373
670.39        57.49142
670.82        57.72883
671.24        57.78408
671.67         57.7244
672.09        57.88955
672.52        58.23931
672.94        58.45993
673.37        58.50903
673.80        58.43168
674.22        58.31394
674.65        58.32654
675.07        58.50619
675.50        58.74112
675.92        58.96533
676.35          59.074
676.77        59.03068
677.20        58.93111
677.62        58.85906
678.05         58.7651
678.47        58.63406
678.90        59.21221
679.32        59.14046
679.75        59.42137
680.17        59.62283
680.60        59.88583
681.02        60.19088
681.45        60.11097
681.87        60.20326
682.30        60.27784
682.72        60.47699
683.15        60.54883
683.57        60.52169
684.00        60.52257
684.42         60.6927
684.85        60.82718
685.27        60.95953
685.70        61.14585
686.12         61.3389
686.54        61.49173
686.97        61.61376
687.39        61.59196
687.82          61.447
688.24        61.63541
688.66        62.15643
689.09        61.64845
689.51        61.87494
689.94        61.78816
690.36        61.94217
690.78        62.06264
691.21        62.12958
691.63        62.31848
692.06        62.63103
692.48        62.55357
692.90        62.68489
693.33        63.10583
693.75        62.91314
694.17        63.02161
694.60        63.08614
695.02        62.93549
695.44        62.60601
695.87        62.56479
696.29        62.79519
696.71        62.67898
697.14        62.40223
697.56        62.81023
697.98        63.67144
698.41        64.40109
698.83        64.23825
699.25        63.85099
699.68        63.75694
700.10        63.86625
700.52        63.74233
700.94         63.9167
701.37        64.12463
701.79        64.30898
702.21         64.4041
702.64        64.44716
703.06        64.47814
703.48         64.5501
703.90        64.68111
704.33         64.8474
704.75        64.99127
705.17        64.99424
705.59        64.84111
706.01        64.57298
706.44        64.32925
706.86        64.32209
707.28        64.58182
707.70        65.05343
708.12        65.57608
708.55         65.8411
708.97        65.81232
709.39        65.69245
709.81        65.56283
710.23        65.46062
710.66        65.43787
711.08         65.5203
711.50        65.67679
711.92        65.84087
712.34        65.99375
712.76        66.17037
713.19        66.33796
713.61        66.45087
714.03        66.54276
714.45        66.56281
714.87        66.56737
715.29        66.61942
715.71        66.73352
716.13        66.89269
716.56        67.04439
716.98        67.17875
717.40        67.25334
717.82        67.27596
718.24        67.27422
718.66        67.29394
719.08        67.34671
719.50        67.41872
719.92        67.47279
720.34        67.46175
720.76        67.38337
721.19        67.22113
721.61        67.04572
722.03        67.03214
722.45        67.17719
722.87         67.2216
723.29        67.18436
723.71         67.2819
724.13          67.516
724.55        67.75702
724.97        67.96205
725.39        68.12342
725.81        68.22469
726.23        68.25876
726.65        68.26768
727.07        68.32539
727.49        68.44958
727.91        68.62383
728.33        68.80264
728.75        68.90466
729.17        68.91135
729.59        68.85349
730.01        68.78323
730.43        68.77502
730.85        68.86603
731.27        69.00307
731.69        69.15048
732.10        69.28682
732.52        69.36988
732.94        69.34154
733.36         69.2394
733.78        69.20769
734.20        69.28276
734.62        69.34772
735.04        69.44807
735.46        69.50946
735.88         69.5474
736.30        69.34377
736.72        69.35441
737.13        69.39578
737.55        69.54792
737.97        69.97091
738.39        70.46436
738.81        70.31986
739.23        69.67396
739.65        69.47276
740.06        69.74638
740.48         70.0567
740.90        70.23058
741.32        70.02797
741.74        69.55397
742.16        69.42561
742.57        69.70743
742.99        69.94818
743.41        70.09198
743.83        70.24542
744.25        70.37999
744.67        70.45203
745.08        70.45879
745.50        70.37068
745.92        70.20895
746.34        69.98621
746.75        69.76645
747.17        69.64847
747.59        69.66439
748.01        69.80608
748.42        70.01817
748.84        70.21516
749.26        70.37965
749.68        70.36732
750.09        70.26404
750.51        70.55883
750.93        71.10142
751.35        71.07136
751.76        70.52516
752.18        70.25048
752.60        70.27647
753.01        70.17995
753.43        70.01475
753.85        69.98298
754.27        70.07526
754.68        70.52948
755.10        71.25809
755.52        70.73743
755.93        70.97291
756.35        70.76679
756.77        70.78493
757.18        70.80724
757.60        70.90553
758.02         71.1505
758.43        71.36835
758.85         71.4913
759.26         71.6989
759.68        70.89159
760.10        71.12758
760.51        71.19041
760.93        71.22159
761.34        70.31493
761.76        71.08447
762.18        70.89619
762.59         70.7406
763.01        69.97952
763.42         70.5062
763.84        70.91676
764.26        71.57215
764.67        71.69112
765.09        71.43229
765.50        71.77121
765.92        72.56663
766.33        72.74823
766.75        72.21944
767.16        71.72921
767.58         71.3716
768.00        70.87975
768.41        70.47443
768.83        70.68743
769.24        71.38875
769.66        72.00533
770.07        72.33881
770.49        72.26128
770.90        71.94278
771.32        72.11619
771.73         72.6963
772.15        72.80441
772.56        72.43339
772.97        72.12291
773.39        71.91673
773.80        71.73582
774.22        71.54198
774.63        71.19378
775.05        70.80639
775.46        70.77171
775.88        71.10109
776.29        71.64475
776.70         72.1711
777.12        72.38754
777.53        72.22571
777.95        71.73904
778.36        71.17469
778.77        70.96374
779.19        71.21543
779.60        71.84544
780.02        72.55446
780.43        73.06319
780.84        73.27715
781.26        72.81908
781.67         72.0664
782.09         72.7574
782.50        74.43027
782.91        74.33933
783.33        72.67155
783.74        72.11301
784.15         72.7916
784.57        73.15303
784.98        73.03823
785.39        72.94258
785.81        72.81397
786.22        72.41875
786.63        71.89902
787.04        71.64285
787.46        71.70023
787.87        71.86012
788.28        72.07177
788.70         72.5107
789.11        72.67641
789.52        73.03498
789.93        73.36185
790.35        73.33273
790.76         73.0272
791.17        72.84048
791.58        72.83503
792.00        72.84043
792.41        72.78154
792.82        72.61639
793.23         72.3764
793.65        71.97542
794.06        71.65789
794.47        72.12908
794.88        73.15318
795.29        73.75696
795.71        73.81017
796.12        73.49923
796.53         73.6824
796.94        73.23141
797.35        72.57648
797.76        72.42705
798.18        72.75484
798.59        72.90353
799.00        72.81409
799.41        72.92363
799.82        73.18777
800.23        73.31271
800.64         73.2655
801.06        73.08713
801.47        72.91017
801.88        72.89367
802.29        73.06599
802.70         73.3511
803.11        73.62964
803.52        73.69634
803.93        73.51568
804.34        73.21649
804.75        72.89176
805.17        72.61486
805.58        72.64266
805.99        72.66558
806.40        72.45402
806.81        73.19683
807.22        74.40531
807.63        74.35468
808.04        73.24393
808.45        72.82558
808.86        73.31352
809.27        73.99461
809.68        74.63578
810.09        74.99007
810.50        74.93731
810.91        74.68121
811.32        74.34428
811.73        73.96823
812.14        73.60692
812.55        73.37888
812.96        73.27003
813.37         72.9607
813.78        72.58121
814.19        72.78869
814.60        73.41242
815.01        73.64988
815.42        73.43582
815.83        73.15496
816.24        72.94006
816.65        72.87179
817.05        73.01642
817.46        73.29124
817.87        73.60641
818.28        73.78072
818.69        73.79224
819.10        73.71624
819.51        73.60948
819.92        73.67587
820.33        73.97799
820.74        74.12112
821.14         74.1857
821.55        75.01512
821.96        76.25531
822.37        76.20825
822.78        75.01994
823.19        74.45383
823.60        74.65302
824.00        74.62918
824.41         74.2991
824.82        74.13538
825.23        74.15091
825.64         74.2362
826.04        74.36798
826.45        74.45177
826.86        74.47272
827.27        74.46712
827.68        74.44263
828.08        74.42898
828.49        74.38769
828.90        74.33884
829.31        74.31578
829.72        74.37804
830.12        74.54623
830.53        74.75728
830.94        74.95758
831.35        75.03597
831.75        74.99104
832.16        74.81565
832.57        74.57782
832.97        74.37588
833.38        74.22989
833.79        74.11655
834.20         74.0405
834.60        73.99577
835.01        73.99094
835.42        74.04713
835.82        74.11395
836.23        74.04522
836.64        73.84314
837.04         73.5378
837.45        73.26792
837.86        73.30837
838.26         73.7212
838.67        74.39334
839.08        75.10276
839.48        75.42467
839.89        75.24517
840.29        74.72265
840.70        74.14602
841.11        73.87057
841.51        74.00086
841.92        74.36023
842.33        74.88119
842.73        75.45154
843.14         75.8988
843.54        76.32747
843.95        76.55254
844.35        76.35223
844.76        75.73307
845.17        74.79845
845.57        73.85495
845.98        73.39476
846.38        73.52594
846.79        74.11704
847.19        74.98553
847.60        75.64247
848.00        75.96954
848.41        76.01911
848.81        75.96378
849.22        76.00381
849.62        76.23132
850.03         76.4991
850.43        76.74662
850.84        76.78298
851.24        76.63384
851.65        76.34699
852.05         76.0309
852.46        75.82456
852.86        75.79875
853.27        75.65042
853.67        75.43726
854.07        76.01741
854.48        77.05594
854.88        77.08871
855.29        76.13936
855.69        75.74178
856.10        75.93681
856.50        75.92128
856.90         75.6265
857.31        75.44421
857.71        75.47036
858.12         75.5376
858.52        75.67575
858.92        75.81521
859.33        75.90832
859.73        76.00977
860.13        76.09361
860.54         76.1132
860.94        76.11616
861.34        76.07785
861.75        75.93964
862.15        75.71104
862.55        75.37389
862.96        74.97792
863.36        74.63429
863.76        74.48882
864.17        74.56957
864.57        74.84347
864.97        75.23759
865.38        75.61927
865.78          75.983
866.18        76.27691
866.58        76.43528
866.99        76.36551
867.39        76.10184
867.79        75.65073
868.19        75.01244
868.60        74.17057
869.00        73.13336
869.40        71.97993
869.80         70.9895
870.21        70.60062
870.61        70.95936
871.01        71.88831
871.41        72.97655
871.81        73.56239
872.22        73.50113
872.62        72.98759
873.02        72.27918
873.42        72.00421
873.82         72.1262
874.22        71.99597
874.63        71.75715
875.03        71.80681
875.43        72.15285
875.83        73.60847
876.23        73.45599
876.63        72.93434
877.03        71.57951
877.44        69.49199
877.84        128.2355
878.24        69.78754
878.64        71.04849
879.04        74.63475
879.44        71.52296
879.84        69.71832
880.24        73.66292
880.64        73.76267
881.04         70.9534
881.44        69.12088
881.84        68.88995
882.24        69.64828
882.65        70.82633
883.05         71.2965
883.45        70.69926
883.85        69.70457
884.25        68.83595
884.65        68.59454
885.05        69.11472
885.45        70.18188
885.85        71.38223
886.25         72.0481
886.65        71.98347
887.05        71.41135
887.45        70.66525
887.85        70.23891
888.25        70.27909
888.65        70.64104
889.04        71.17117
889.44        71.53585
889.84         71.6441
890.24        71.56759
890.64        71.42133
891.04        71.37251
891.44        71.43164
891.84        71.50813
892.24        71.43637
892.64        70.96082
893.04         70.0938
893.44        69.04176
893.83         67.9938
894.23        67.22401
894.63        66.78963
895.03        66.59206
895.43        66.69157
895.83        67.18774
896.23        68.02369
896.63        69.13645
897.02         70.1893
897.42        70.56409
897.82        70.14666
898.22        69.13178
898.62        67.91405
899.01        67.11069
899.41         66.9278
899.81        67.17704
900.21        67.72033
900.61        68.33726
901.00        68.91747
901.40        69.49665
901.80        70.01778
902.20        70.36209
902.59        70.50311
902.99        70.43728
903.39        70.18469
903.79        69.80634
904.18        69.35578
904.58        68.89639
904.98        68.55654
905.38        68.52856
905.77        68.82834
906.17        69.39571
906.57        70.04919
906.96        70.52509
907.36        70.68932
907.76        70.58221
908.15        70.32374
908.55        70.06413
908.95         69.8832
909.34        69.79385
909.74        69.64782
910.14         69.1929
910.53        68.41515
910.93        67.46954
911.33        66.77433
911.72        66.98531
912.12        68.13187
912.52        69.89529
912.91        71.68355
913.31        72.50996
913.70        72.19328
914.10        70.99054
914.49        69.26012
914.89        67.84628
915.29        67.12268
915.68        66.89995
916.08        67.08453
916.47        67.50128
916.87        68.01206
917.26        68.65733
917.66        69.30085
918.05        69.73589
918.45        69.87968
918.84         69.8144
919.24        69.48777
919.64        68.86344
920.03        68.01495
920.42        66.99368
920.82        66.22386
921.21         66.3031
921.61        67.25367
922.00        68.92854
922.40        70.65592
922.79        71.56143
923.19        71.39645
923.58         70.1943
923.98        68.36975
924.37        67.40431
924.77        67.86617
925.16        66.00034
925.55        67.77029
925.95        67.78164
926.34        67.77731
926.74        67.70007
927.13        67.75491
927.52        68.02127
927.92        68.46521
928.31        69.10713
928.70        69.69815
929.10        69.85826
929.49        69.50794
929.89        68.76167
930.28        68.01142
930.67        67.88585
931.07         68.4763
931.46        69.60967
931.85        70.81266
932.24        71.39139
932.64        71.15975
933.03        70.23325
933.42        68.92328
933.82        67.90659
934.21        67.42723
934.60        67.36852
934.99         67.2719
935.39         66.7617
935.78        65.80183
936.17        63.93538
936.56        61.44602
936.96        62.89266
937.35        62.71861
937.74        65.07841
938.13        67.36615
938.53         68.7972
938.92        69.29128
939.31        69.12856
939.70        68.60912
940.09         68.1644
940.49         68.0192
940.88        68.07449
941.27        68.27776
941.66        68.58853
942.05        68.95508
942.44         69.3669
942.84         69.8397
943.23        70.38801
943.62        70.95631
944.01        71.56013
944.40        71.89774
944.79        71.50622
945.18        70.32261
945.57        68.42854
945.97        66.51991
946.36        65.81679
946.75        66.67114
947.14        68.65244
947.53        70.77708
947.92        71.68821
948.31        71.15334
948.70        69.59566
949.09        67.69219
949.48        66.62998
949.87         66.7816
950.26        67.76299
950.65        69.08541
951.04        69.94781
951.43         70.0728
951.82        69.72337
952.21        69.12682
952.60        68.62228
952.99        68.33551
953.38        68.13397
953.77        67.95419
954.16        67.72806
954.55        67.43997
954.94        67.16345
955.33        66.94448
955.72        66.81857
956.11        66.80885
956.50        66.90533
956.89        67.08819
957.28        67.32546
957.66        67.58601
958.05        67.76586
958.44        67.88686
958.83        67.98563
959.22        68.05695
959.61        68.11064
960.00        67.98814
960.39        67.42912
960.78        66.44132
961.16        65.13367
961.55        63.93697
961.94         63.3733
962.33        63.54479
962.72        64.30277
963.11        65.28173
963.49        65.85037
963.88        65.73695
964.27        65.15919
964.66         64.4066
965.04        63.97382
965.43        64.00603
965.82        64.35309
966.21        64.85797
966.60        65.27171
966.98        65.52116
967.37        65.67354
967.76        65.82413
968.15        66.09265
968.53        66.50629
968.92        66.89869
969.31         67.1962
969.69        67.29887
970.08        67.10735
970.47          66.696
970.86        66.03371
971.24        65.02641
971.63        63.78182
972.02        62.41784
972.40        61.14054
972.79        60.31365
973.17        60.07671
973.56        60.23707
973.95        60.84617
974.33        61.93996
974.72        63.26643
975.11          64.741
975.49        65.83951
975.88        65.77045
976.26        64.46085
976.65        62.22777
977.04        59.66825
977.42        57.84911
977.81        57.16183
978.19        57.31095
978.58        58.16388
978.96        59.44416
979.35        60.88068
979.74        62.65526
980.12        64.30458
980.51        64.74427
980.89        63.93221
981.28        62.11347
981.66        60.25453
982.05        59.75274
982.43        60.79423
982.82        62.92467
983.20        65.45231
983.59        66.79122
983.97        66.52892
984.35        65.08017
984.74        63.09471
985.12        61.48464
985.51        60.56193
985.89        59.99862
986.28        59.74621
986.66        59.81296
987.04        60.06596
987.43        60.60685
987.81        61.01056
988.20        60.67742
988.58        59.43692
988.96         57.1863
989.35        54.39904
989.73        52.74016
990.12        53.09165
990.50        55.03551
990.88        57.26616
991.27        58.24948
991.65        57.95509
992.03        56.80913
992.42        55.59291
992.80        55.73965
993.18         57.6255
993.56        60.44588
993.95        63.33477
994.33        65.57343
994.71        66.78051
995.10        67.24897
995.48        67.03752
995.86        66.11061
996.24        64.56035
996.63        62.36655
997.01        59.82291
997.39        57.98175
997.77        57.39468
998.15        57.81107
998.54        58.80712
998.92        59.85816
999.30        60.85342
999.68         62.0927
1000.06         63.0485
1000.45        62.26606
1000.83        59.65224
1001.21        56.07412
1001.59        53.12441
1001.97        52.00735
1002.35        52.55839
1002.73        54.46661
1003.12         57.0493
1003.50        58.60469
1003.88        58.22313
1004.26        56.45451
1004.64         54.1175
1005.02        52.37615
1005.40        51.57074
1005.78        51.29115
1006.16         51.5923
1006.54        52.54712
1006.92        53.81048
1007.30        55.15759
1007.69        56.08025
1008.07        56.18456
1008.45        55.29448
1008.83         53.3287
1009.21        49.89847
1009.59        45.37657
1009.97        41.04981
1010.35         37.6416
1010.73        36.58011
1011.11        38.61994
1011.49        43.04873
1011.86        49.40919
1012.24        54.88323
1012.62         56.9014
1013.00        55.37795
1013.38        51.25102
1013.76        46.31826
1014.14        43.79895
1014.52        44.62922
1014.90        47.88702
1015.28        51.89682
1015.66        53.82112
1016.04        52.70554
1016.41        49.22626
1016.79        44.48357
1017.17        41.39989
1017.55         41.3152
1017.93        42.97904
1018.31        45.18497
1018.69        46.92971
1019.06        47.99239
1019.44        48.54068
1019.82        48.44285
1020.20         47.2295
1020.58        44.84476
1020.95        41.54569
1021.33        37.35891
1021.71        31.19216
1022.09        21.46267
1022.46        3.827397
1022.84        -22.2902
1023.22       -32.08708
1023.60       -10.24867
1023.97        16.24605
1024.35          31.898
1024.73        37.98294
