SpectraSmart Spectrum 2.9.0.0
--------- Device Information -----------
Spectrum Name :  反射率_0
Saving Time :  2024/04/20 00:45:20
Spectro-Module Model Name : SE2030-DUVN
Spectro-Module Serial Number : OS361AC55029948
Wavelength Start : 200
Wavelength End : 1025
Wavelength Unit : Wavelength(nm)
Spectrum Unit : Reflectance(%)
-----------Spectrum Setting ------------
Integration Time : 30ms
Average : 10
Boxcar : 0
Background removal :  enabled
linearity correction :  enabled
SC :  disabled
Intensity correction :  disabled
DWT denoise :  enabled
savitzky-golay :  disabled
FFT :  disabled
Running average :  disabled
Kalman :  disabled
High pass :  disabled
---------------BEGIN--------------------
Wavelength(nm)             Reflectance(%)
200.29               0
200.75        51.51211
201.21        52.79552
201.67        56.51495
202.13        62.52877
202.58        70.39683
203.04        80.41792
203.50        89.59482
203.96        90.87219
204.42        84.44035
204.88        75.10453
205.34        66.90716
205.80        61.51804
206.26        57.97163
206.72        54.89301
207.18        52.42151
207.64        52.42241
208.10        56.13043
208.55        62.83424
209.01        68.17641
209.47         69.5007
209.93        67.40247
210.39        62.97977
210.85        58.26913
211.31        55.48262
211.77        54.77782
212.23        55.67702
212.69        57.21692
213.14        56.65839
213.60        53.39473
214.06        50.19517
214.52        48.41101
214.98        48.68613
215.44        50.68212
215.90        53.64014
216.36        57.67674
216.81        62.34122
217.27        66.52506
217.73        70.33846
218.19        71.91093
218.65         68.6878
219.11        60.45581
219.57         47.2499
220.02          32.549
220.48        25.60053
220.94        29.69326
221.40        43.08893
221.86         59.3421
222.32        68.33054
222.77        67.67624
223.23        60.70165
223.69        52.23897
224.15        49.24614
224.61        52.20456
225.06        57.60063
225.52        62.50721
225.98        64.57761
226.44        63.77745
226.90        61.28174
227.36        58.15112
227.81        56.06034
228.27        55.88485
228.73        56.81189
229.19         58.0982
229.65        58.93337
230.10        59.13946
230.56        59.07004
231.02        59.00883
231.48        59.32346
231.93        59.95922
232.39        60.74253
232.85        61.27283
233.31        61.00064
233.77        59.84576
234.22        58.03204
234.68        55.95185
235.14        54.21969
235.60        53.11436
236.05        52.52436
236.51        52.33162
236.97        52.28863
237.43        52.29613
237.88        52.57937
238.34        52.96247
238.80        53.34569
239.26        53.55296
239.71        53.46101
240.17        53.10209
240.63        53.05849
241.08        53.53017
241.54        54.39103
242.00        55.11784
242.46         54.6001
242.91         52.2081
243.37        47.21992
243.83        40.17578
244.28         36.3072
244.74        40.48429
245.20        51.49602
245.66        61.57611
246.11        64.07314
246.57        58.21081
247.03        44.00439
247.48        24.97564
247.94        20.02649
248.40        31.34145
248.85        45.53723
249.31        55.77759
249.77        60.64853
250.22        61.61822
250.68        60.18038
251.14        57.28304
251.59        54.85195
252.05        54.24556
252.51        55.13777
252.96        55.98972
253.42        54.51118
253.88        50.59948
254.33        45.64853
254.79        42.72559
255.25        44.42907
255.70        50.05112
256.16        57.67922
256.62         64.1724
257.07        66.06559
257.53        63.64608
257.99        58.51079
258.44         53.0066
258.90        50.65417
259.35        50.92534
259.81        52.51182
260.27        53.59415
260.72        52.69971
261.18        50.25852
261.63        46.68033
262.09         43.3827
262.55        41.81641
263.00        42.00192
263.46        43.30697
263.91        44.42636
264.37        44.06141
264.83        42.20867
265.28        39.43196
265.74        36.93062
266.19        35.95327
266.65        36.64489
267.11        38.32977
267.56        40.11487
268.02        40.73225
268.47        39.96109
268.93        38.23771
269.38        36.12037
269.84        34.73608
270.30        34.37207
270.75        34.68792
271.21         35.1974
271.66        35.18806
272.12        34.48232
272.57        33.33598
273.03        32.13041
273.48        31.35236
273.94        31.15683
274.39        31.32322
274.85        31.56718
275.31        31.47013
275.76        30.93412
276.22        30.12651
276.67        29.27828
277.13        28.82063
277.58        28.76569
278.04        28.98388
278.49         29.1501
278.95        28.87076
279.40        28.07265
279.86        27.00054
280.31         25.8881
280.77        25.18855
281.22        24.91759
281.68        24.93691
282.13        25.04855
282.59        24.99516
283.04         24.7055
283.50        24.31043
283.95        23.84422
284.41        23.38176
284.86        22.94038
285.32         22.5041
285.77        22.13741
286.22        22.00929
286.68         22.1121
287.13        22.36706
287.59         22.5961
288.04        22.51784
288.50         22.1067
288.95        21.43174
289.41        20.68188
289.86        20.08495
290.32        19.75317
290.77        19.60352
291.22        19.57687
291.68        19.54724
292.13        19.48098
292.59        19.43011
293.04        19.42741
293.50        19.52879
293.95        19.73187
294.40        19.98878
294.86        20.25504
295.31        20.48187
295.77        20.65455
296.22        20.79641
296.68        20.91019
297.13        20.97489
297.58        21.01685
298.04        21.05935
298.49        21.16754
298.95         21.4725
299.40        21.97564
299.85        22.62417
300.31        23.31931
300.76        23.91332
301.21        24.36125
301.67        24.72755
302.12        25.01891
302.58        25.29019
303.03        25.55368
303.48         25.8053
303.94        26.12534
304.39        26.60712
304.84         27.2599
305.30        28.04195
305.75        28.81509
306.20        29.37723
306.66         29.7058
307.11        29.85349
307.57        29.94612
308.02        30.11686
308.47        30.42356
308.93        30.80841
309.38        31.23818
309.83        31.70564
310.29        32.18092
310.74        32.67229
311.19        33.09187
311.65        33.29621
312.10        33.26793
312.55         33.0502
313.00        32.79128
313.46        32.72495
313.91        32.88896
314.36        33.23427
314.82        33.62402
315.27        33.85068
315.72        33.84496
316.18        33.67768
316.63        33.44872
317.08        33.32014
317.53         33.3283
317.99        33.40973
318.44        33.48816
318.89        33.43257
319.35        33.21268
319.80        32.88359
320.25        32.51251
320.70        32.20243
321.16        31.98238
321.61        31.82354
322.06        31.69554
322.51        31.55266
322.97        31.36983
323.42        31.16929
323.87        30.94393
324.32        30.68526
324.78        30.39193
325.23        30.07368
325.68        29.74079
326.13        29.42043
326.59        29.12637
327.04        28.87887
327.49        28.67989
327.94        28.53092
328.39        28.42694
328.85        28.34574
329.30        28.31252
329.75        28.32557
330.20        28.36907
330.66        28.40969
331.11        28.41404
331.56         28.2802
332.01        27.98861
332.46        27.56648
332.92        27.08082
333.37        26.65481
333.82         26.3415
334.27        26.13857
334.72         26.0164
335.17        25.91529
335.63        25.80453
336.08         25.6963
336.53        25.63864
336.98        25.71849
337.43        25.93594
337.88        26.25975
338.34        26.50962
338.79        26.44445
339.24        26.00839
339.69        25.27509
340.14        24.51974
340.59        24.20516
341.05        24.42343
341.50        25.03945
341.95        25.74616
342.40         26.0641
342.85         25.8847
343.30        25.37153
343.75        24.74223
344.20        24.35405
344.66        24.30473
345.11        24.43859
345.56         24.6666
346.01        24.84982
346.46        24.92227
346.91        24.95537
347.36        24.87222
347.81        24.53692
348.26        23.96806
348.72        23.23672
349.17        22.53277
349.62        22.25707
350.07        22.48951
350.52        23.08915
350.97        23.82156
351.42        24.32984
351.87        24.50859
352.32        24.45418
352.77        24.23183
353.22        23.95442
353.67        23.67888
354.13        23.37995
354.58        23.08009
355.03        22.86012
355.48        22.73733
355.93         22.7153
356.38         22.7457
356.83        22.73488
357.28        22.65333
357.73        22.51149
358.18        22.34934
358.63        22.23877
359.08        22.19569
359.53        22.20032
359.98        22.18652
360.43         22.0553
360.88        21.79583
361.33        21.44359
361.78        21.10113
362.23        20.93308
362.68        20.96694
363.13        21.13813
363.58        21.32635
364.03        21.34829
364.48         21.1566
364.93        20.80603
365.38        20.37334
365.83        19.99256
366.28        19.71715
366.73        19.51449
367.18        19.36078
367.63        19.21641
368.08        19.06623
368.53        18.92948
368.98        18.81285
369.43        18.71613
369.88         18.6396
370.33        18.58183
370.78        18.52486
371.23        18.44668
371.68        18.34346
372.13        18.21191
372.58        18.09868
373.03        18.08295
373.48        18.16933
373.93        18.32549
374.38        18.45697
374.83        18.42054
375.28        18.19204
375.72         17.8117
376.17        17.39896
376.62        17.10642
377.07        16.98369
377.52        16.98519
377.97        17.05361
378.42        17.09795
378.87        17.08476
379.32         17.0382
379.77        16.97571
380.22        16.91899
380.67        16.87485
381.11        16.83725
381.56        16.77629
382.01         16.6661
382.46        16.50425
382.91        16.29693
383.36        16.10297
383.81        16.00635
384.26        16.01877
384.71         16.1241
385.15        16.22107
385.60        16.15707
386.05         15.9093
386.50        15.52412
386.95        15.14898
387.40        15.01591
387.85        15.16218
388.29        15.50463
388.74        15.86472
389.19        15.99072
389.64         15.8368
390.09        15.47886
390.54        15.07637
390.98        14.87868
391.43        14.95372
391.88        15.19916
392.33        15.45786
392.78        15.50657
393.23        15.31572
393.67        14.97015
394.12         14.6218
394.57        14.42163
395.02        14.40383
395.47        14.51316
395.91        14.67954
396.36        14.76555
396.81        14.73459
397.26        14.62521
397.71        14.50021
398.15        14.43833
398.60        14.47368
399.05        14.56519
399.50        14.65114
399.95        14.64698
400.39        14.53627
400.84        14.34506
401.29        14.14652
401.74        14.07299
402.18        14.16266
402.63        14.36572
403.08        14.58004
403.53        14.64165
403.97        14.51773
404.42        14.27104
404.87        14.00585
405.32        13.89457
405.76        13.97458
406.21        14.18136
406.66        14.42418
407.11        14.56246
407.55        14.55921
408.00        14.46587
408.45        14.32169
408.90        14.15879
409.34        14.02232
409.79        13.96525
410.24        13.97499
410.68        13.97337
411.13        13.95706
411.58        13.98318
412.03        14.02913
412.47         14.0333
412.92        13.98432
413.37        13.88999
413.81        13.80977
414.26        13.85069
414.71         14.0204
415.15        14.29217
415.60        14.54462
416.05        14.60295
416.49        14.42589
416.94        14.07714
417.39        13.68403
417.83        13.45161
418.28        13.44034
418.73        13.58266
419.17        13.78525
419.62        13.88913
420.07        13.85668
420.51        13.74005
420.96        13.59768
421.41         13.5005
421.85        13.46589
422.30        13.47426
422.74        13.50139
423.19        13.54129
423.64         13.5784
424.08        13.62301
424.53         13.6523
424.98        13.64923
425.42          13.614
425.87        13.55754
426.31        13.47897
426.76        13.38629
427.21        13.27833
427.65        13.14842
428.10        13.05063
428.54        13.05243
428.99        13.16281
429.44        13.41164
429.88        13.67297
430.33         13.6601
430.77        13.40841
431.22          13.215
431.66        13.14895
432.11        13.16659
432.56        13.26417
433.00        13.48633
433.45        13.68716
433.89        13.65234
434.34        13.46046
434.78        13.25563
435.23        13.02535
435.67        13.63203
436.12           13.17
436.57        13.06082
437.01        12.81611
437.46        12.71665
437.90        12.77962
438.35        12.88295
438.79         12.9759
439.24        13.03547
439.68        13.04333
440.13        12.90215
440.57        12.69671
441.02        12.76668
441.46        12.99685
441.91        12.98298
442.35        12.43706
442.80        12.25057
443.24        12.29545
443.69         12.2987
444.13        12.22773
444.58        12.17152
445.02        12.13019
445.47         12.1135
445.91        12.11155
446.36         12.0818
446.80        12.01719
447.24        11.94362
447.69        11.87766
448.13        11.81584
448.58        11.76853
449.02        11.73697
449.47        11.71269
449.91          11.676
450.36        11.62945
450.80        11.57537
451.25        11.54187
451.69        11.55879
452.13        11.63117
452.58        11.73632
453.02        11.84344
453.47        11.90297
453.91        11.90454
454.36         11.8626
454.80        11.78982
455.24        11.71041
455.69         11.6436
456.13         11.5732
456.58        11.52381
457.02        11.52358
457.46        11.57238
457.91         11.6344
458.35        11.68926
458.79        11.73078
459.24        11.74919
459.68        11.74343
460.13        11.75994
460.57        11.75563
461.01        11.72575
461.46        11.98591
461.90        12.05583
462.34        11.91691
462.79        11.96472
463.23        11.80408
463.68        11.66211
464.12        11.59209
464.56         11.7046
465.01        11.88922
465.45        12.07181
465.89        12.15748
466.34        12.13349
466.78        11.99464
467.22         11.8154
467.67        11.80018
468.11        11.93958
468.55        11.97931
468.99        11.91995
469.44        11.95761
469.88        12.09124
470.32        12.20354
470.77        12.26195
471.21        12.27975
471.65        12.25212
472.10        12.17672
472.54        12.08913
472.98        12.07886
473.42        12.15947
473.87        12.26989
474.31        12.37497
474.75        12.49253
475.20        12.58434
475.64        12.53198
476.08        12.39544
476.52        12.37678
476.97        12.49242
477.41        12.65212
477.85        12.80064
478.29        12.88645
478.74        12.89221
479.18        12.81333
479.62        12.71468
480.06        12.70006
480.50        12.77388
480.95         12.8471
481.39        12.88766
481.83        12.90891
482.27        12.90484
482.72        12.87033
483.16         12.8366
483.60        12.85638
484.04        12.93288
484.48        13.10875
484.93        13.40708
485.37        13.50377
485.81        13.44842
486.25        13.85852
486.69        14.25147
487.14        13.56569
487.58        13.70929
488.02         14.5914
488.46        14.07611
488.90        14.13677
489.34        14.00566
489.79        14.18536
490.23        14.57216
490.67        14.74214
491.11        14.68577
491.55        14.60271
491.99        14.54178
492.43        14.50209
492.88        14.50878
493.32        14.53945
493.76        14.60854
494.20         14.7532
494.64        14.97121
495.08        15.24215
495.52        15.51643
495.96        15.73138
496.41        15.87104
496.85        15.92001
497.29        15.92423
497.73        16.03724
498.17        16.25424
498.61        16.39234
499.05        16.44691
499.49         16.5774
499.93        16.78692
500.37         16.9385
500.82        17.04177
501.26        17.25296
501.70        17.53083
502.14        17.63363
502.58        17.57618
503.02        17.58633
503.46        17.67865
503.90        17.73014
504.34        17.73309
504.78        17.73403
505.22        17.73653
505.66        17.73483
506.10        17.74204
506.54        17.77498
506.98        17.83868
507.42        17.93299
507.86        18.04539
508.30        18.15339
508.74        18.24781
509.18        18.32731
509.62        18.40495
510.06        18.50315
510.50        18.62533
510.94        18.76692
511.38        18.89312
511.82        18.94862
512.26        18.92444
512.70        18.83587
513.14        18.74288
513.58        18.73708
514.02        18.83009
514.46        18.99609
514.90        19.16608
515.34        19.17279
515.78        19.01706
516.22        18.82171
516.66        18.68274
517.10         18.3994
517.54        17.99808
517.98        18.62635
518.42        18.53809
518.86        18.80442
519.30        18.88593
519.74        18.96143
520.18        19.01563
520.62         19.0017
521.06        18.93957
521.50        18.82532
521.93        18.69092
522.37        18.59936
522.81        18.56502
523.25        18.57438
523.69         18.6072
524.13        18.62914
524.57        18.62638
525.01        18.60537
525.45        18.56989
525.89        18.52572
526.32        18.47506
526.76        18.41854
527.20        18.34867
527.64        18.25863
528.08        18.15042
528.52        18.02727
528.96        17.91503
529.40        17.85018
529.83         17.8372
530.27        17.86971
530.71        17.90356
531.15        17.87014
531.59        17.75817
532.03         17.5887
532.46        17.41577
532.90        17.34036
533.34        17.37408
533.78        17.48285
534.22        17.60479
534.66        17.64484
535.09        17.57847
535.53        17.44397
535.97        17.28549
536.41        17.16976
536.85        17.11908
537.28        17.12164
537.72        17.16462
538.16        17.17386
538.60         17.2228
539.04        17.24769
539.47        17.27204
539.91        17.33731
540.35        17.45653
540.79        17.46708
541.22        17.58806
541.66        17.68607
542.10        17.83951
542.54        17.76335
542.97        17.93244
543.41         18.0238
543.85        18.16684
544.29        18.31308
544.72         18.4355
545.16         18.5463
545.60        18.63838
546.04        18.65431
546.47        18.65999
546.91         18.8774
547.35        19.26113
547.79        19.55561
548.22        19.71394
548.66        19.79815
549.10        19.84287
549.53        19.98966
549.97        20.25403
550.41        20.29028
550.84        20.47553
551.28        20.60394
551.72        20.80093
552.15        21.01422
552.59        21.23854
553.03        21.47989
553.46        21.69703
553.90        21.82564
554.34        21.89451
554.77        21.89055
555.21        21.86877
555.65        21.88796
556.08         21.9624
556.52        22.07428
556.96        22.20243
557.39        22.34269
557.83        22.47612
558.27        22.54983
558.70        22.57503
559.14        22.61365
559.57        22.66404
560.01        22.72269
560.45        22.76657
560.88        22.72986
561.32        22.66065
561.75        22.63691
562.19        22.75473
562.63        22.82005
563.06        22.86268
563.50        22.98012
563.93         23.1449
564.37        23.31947
564.80        23.38543
565.24        23.47001
565.68        23.53911
566.11         23.6152
566.55        23.72084
566.98         23.7921
567.42        23.82371
567.85        24.13447
568.29        24.08895
568.72        24.36689
569.16        24.71654
569.60         24.9565
570.03        25.05638
570.47        25.13452
570.90        25.08946
571.34         25.4152
571.77        25.30477
572.21        25.60145
572.64        25.67369
573.08        25.98955
573.51        26.14909
573.95        26.63961
574.38        26.83556
574.82        27.00447
575.25        27.01743
575.69        26.85766
576.12        26.82092
576.56        26.77863
576.99        26.87275
577.42        26.84308
577.86        26.95145
578.29          26.977
578.73        27.42229
579.16        26.93032
579.60         26.8599
580.03        26.82092
580.47        26.97906
580.90        26.53364
581.33        26.41628
581.77        26.57998
582.20        26.90406
582.64        26.37013
583.07        26.24786
583.51         26.1669
583.94        25.77441
584.37        25.58515
584.81        25.33493
585.24        25.32724
585.68        25.44306
586.11        25.27178
586.54        25.11913
586.98        24.88772
587.41        24.99828
587.85        25.00578
588.28        24.96516
588.71        24.81221
589.15        24.60006
589.58        24.42393
590.01          24.552
590.45        24.79297
590.88        24.62376
591.31        24.61354
591.75        24.54325
592.18        24.70923
592.61        24.51826
593.05        24.78708
593.48        24.78928
593.91        25.09591
594.35        24.79764
594.78         24.9529
595.21        25.27836
595.65        25.58661
596.08        25.41895
596.51         25.4409
596.94         25.5745
597.38        25.74314
597.81        25.99483
598.24        26.05533
598.68         26.7112
599.11        26.78186
599.54         27.5597
599.97         27.4233
600.41        27.85759
600.84        28.18155
601.27        28.70449
601.70        29.05911
602.14        29.26427
602.57        29.58496
603.00         29.9781
603.43        30.68798
603.87        30.79565
604.30        31.19284
604.73        31.64821
605.16        31.92761
605.60        32.28095
606.03        32.82271
606.46        33.52452
606.89        33.92296
607.32        34.58694
607.76        34.62536
608.19        35.09873
608.62        35.37165
609.05        35.40723
609.48        35.62174
609.92        36.20046
610.35         36.1287
610.78         37.1829
611.21        37.73953
611.64        37.51929
612.07        38.14142
612.50        38.31648
612.94        38.22708
613.37        38.84474
613.80        39.12035
614.23        39.40847
614.66        39.88931
615.09        40.15025
615.52        40.49844
615.96        40.76442
616.39         40.9924
616.82         41.2309
617.25        41.25213
617.68        41.55922
618.11        41.91104
618.54        42.19442
618.97        42.26823
619.40        42.11327
619.84        42.36663
620.27        42.28835
620.70        42.72684
621.13        43.31866
621.56        43.51081
621.99        43.40872
622.42        43.46096
622.85        43.71341
623.28        43.81815
623.71        43.79561
624.14        43.75352
624.57        43.75716
625.00        43.70369
625.43        43.73641
625.86        43.21421
626.29        43.23519
626.72        43.01694
627.15        42.89336
627.58        42.78252
628.01         42.6558
628.44        42.55162
628.87        42.46856
629.30        41.96493
629.73        41.94557
630.16        41.48301
630.59        41.28506
631.02        40.91628
631.45        40.49596
631.88        40.29391
632.31        39.81012
632.74        39.44394
633.17        39.04081
633.60        38.61205
634.03        38.15587
634.46        37.68512
634.89         37.2063
635.32         36.7132
635.75         36.2155
636.18        35.72352
636.61        35.25431
637.04        34.83013
637.47        34.45161
637.89        34.11015
638.32        33.78781
638.75        33.47395
639.18        33.16438
639.61        32.86798
640.04        32.57203
640.47        32.25387
640.90        31.91532
641.33        31.56564
641.76        31.24565
642.18        31.02558
642.61        30.91368
643.04        30.88954
643.47         30.9098
643.90         30.9002
644.33        30.84221
644.76         30.7639
645.18         30.6877
645.61        30.65444
646.04         30.6797
646.47        30.74796
646.90          30.877
647.33        31.09594
647.75         31.4047
648.18        31.79343
648.61        32.20934
649.04        32.56866
649.47        32.85796
649.89        33.08345
650.32         33.3158
650.75        33.71922
651.18        34.31556
651.61        34.92694
652.03        35.50103
652.46        36.25286
652.89        37.10734
653.32         37.3827
653.74        37.21292
654.17        38.03438
654.60        38.73211
655.03        39.68692
655.46        39.25832
655.88        40.96831
656.31        42.07528
656.74        47.51417
657.16        45.05884
657.59        41.89079
658.02        42.82645
658.45        43.34395
658.87        44.02404
659.30         44.6169
659.73        45.49253
660.15        46.03893
660.58        46.08347
661.01        46.10498
661.44        46.16066
661.86        46.39738
662.29        46.83529
662.72        47.46259
663.14        48.14459
663.57        48.41204
664.00        48.34214
664.42        48.51094
664.85        48.96943
665.27        49.32592
665.70        49.54313
666.13        49.81069
666.55        50.10797
666.98        50.30875
667.41        50.43456
667.83        50.57031
668.26        50.71756
668.69         50.9242
669.11        51.03686
669.54        51.16321
669.96         51.2604
670.39        51.34908
670.82        51.47066
671.24        51.61823
671.67        51.81744
672.09        52.21403
672.52         52.6875
672.94        52.82304
673.37        52.64444
673.80        52.51736
674.22        52.53215
674.65        52.54801
675.07        52.59477
675.50        52.89188
675.92        53.14244
676.35        53.30466
676.77         53.2829
677.20        53.15602
677.62        53.00262
678.05        52.95743
678.47        53.05268
678.90        53.24248
679.32        53.47918
679.75        53.68444
680.17         53.8237
680.60        53.94812
681.02        54.06494
681.45        54.07277
681.87        54.02311
682.30        54.14345
682.72        54.38949
683.15         54.4108
683.57        54.28001
684.00        54.30506
684.42         54.6027
684.85        54.95537
685.27        54.90411
685.70        55.03957
686.12        55.19927
686.54        55.30214
686.97        55.33907
687.39         55.3094
687.82        55.24899
688.24        55.31681
688.66         55.4833
689.09        55.52877
689.51        55.46582
689.94        55.47685
690.36        55.58526
690.78        55.64203
691.21        55.63786
691.63        55.75557
692.06        56.01456
692.48        55.92954
692.90        56.03156
693.33        56.37505
693.75        56.17182
694.17        56.29277
694.60        56.42642
695.02        56.38652
695.44        56.17681
695.87        56.16158
696.29        56.32016
696.71        56.19513
697.14        55.97027
697.56        56.28996
697.98        56.92621
698.41        57.77728
698.83        57.33392
699.25        57.03311
699.68        56.96641
700.10         56.8683
700.52         56.9044
700.94        57.07095
701.37        57.30184
701.79        57.49403
702.21        57.58697
702.64        57.61486
703.06         57.6167
703.48        57.66527
703.90        57.78048
704.33        57.92644
704.75        58.05372
705.17        58.07439
705.59        57.96924
706.01        57.74862
706.44        57.52639
706.86        57.50772
707.28        57.72015
707.70        58.08003
708.12        58.47317
708.55        58.72429
708.97        58.78489
709.39        58.71561
709.81        58.56894
710.23        58.44123
710.66        58.37576
711.08        58.34768
711.50        58.35758
711.92        58.42106
712.34        58.53522
712.76         58.7078
713.19        58.88366
713.61        59.01433
714.03        59.06343
714.45         59.0383
714.87        58.97972
715.29        59.04575
715.71        59.27197
716.13        59.45211
716.56        59.45882
716.98        60.07392
717.40        59.78445
717.82        59.79387
718.24        59.71882
718.66        59.68364
719.08        59.70376
719.50        59.76728
719.92        59.84423
720.34        59.85876
720.76        59.80333
721.19        59.67939
721.61        59.53338
722.03        59.54955
722.45        59.53823
722.87        59.64691
723.29        59.78734
723.71        59.92349
724.13        60.03815
724.55        60.14367
724.97        60.24604
725.39        60.34893
725.81        60.45277
726.23        60.54802
726.65        60.63365
727.07         60.7141
727.49        60.78999
727.91        60.86168
728.33        60.92571
728.75         60.9743
729.17        61.00834
729.59        61.03381
730.01        61.05553
730.43         61.0873
730.85        61.13311
731.27        61.16655
731.69        61.19553
732.10        61.28911
732.52        61.41556
732.94        61.46179
733.36        61.42552
733.78        61.40597
734.20        61.42038
734.62        61.40782
735.04        61.37315
735.46        61.39889
735.88        61.49034
736.30        61.43378
736.72        61.58381
737.13        61.68498
737.55        61.78119
737.97        62.03985
738.39        62.33776
738.81        62.12593
739.23        61.57335
739.65        61.53073
740.06        61.88774
740.48        62.29761
740.90        62.10033
741.32        61.62738
741.74        61.74609
742.16        61.73253
742.57        61.90026
742.99        62.13847
743.41        62.39259
743.83        62.55831
744.25         62.5941
744.67        62.53149
745.08        62.40114
745.50        62.23577
745.92        62.07103
746.34        61.89067
746.75         61.7463
747.17        61.69774
747.59        61.76063
748.01        62.00276
748.42        62.32993
748.84        62.44334
749.26        62.39545
749.68        62.39913
750.09        62.52435
750.51        62.95724
750.93        63.51049
751.35        63.47192
751.76        62.92153
752.18        62.66119
752.60        62.73147
753.01        62.67358
753.43        62.47684
753.85        62.40255
754.27        62.46793
754.68        62.61339
755.10        62.78363
755.52        62.90006
755.93        62.94172
756.35         62.9265
756.77        62.89196
757.18        62.97485
757.60        63.22708
758.02        63.40652
758.43         63.3771
758.85        63.82817
759.26        63.76436
759.68        63.13243
760.10        63.15922
760.51        62.90829
760.93        62.89903
761.34        62.60241
761.76        62.78579
762.18        62.81674
762.59        62.84892
763.01        62.78059
763.42        62.71418
763.84        63.18107
764.26        64.00505
764.67        64.01637
765.09        63.43134
765.50        63.50544
765.92        64.19146
766.33        64.55892
766.75        64.42757
767.16        64.04988
767.58        63.52971
768.00        63.12981
768.41        63.03012
768.83        63.28531
769.24        63.77374
769.66        64.20623
770.07        64.44083
770.49        64.38579
770.90        64.15684
771.32        64.22211
771.73        64.55285
772.15        64.59838
772.56        64.36272
772.97          64.231
773.39        64.18435
773.80        64.02901
774.22        63.75416
774.63        63.43934
775.05        63.18729
775.46        63.20241
775.88        63.43398
776.29         63.9106
776.70        64.41232
777.12        64.62299
777.53        64.48051
777.95        64.05671
778.36         63.5664
778.77        63.38056
779.19        63.58695
779.60        64.10675
780.02        64.69458
780.43        65.08923
780.84        65.20235
781.26        64.85416
781.67        64.32518
782.09        64.70628
782.50        65.75079
782.91        65.84483
783.33         65.0452
783.74         64.8177
784.15        65.19984
784.57          65.355
784.98        65.20657
785.39         64.9968
785.81        64.74209
786.22        64.44161
786.63        64.17303
787.04        64.03294
787.46        64.04102
787.87        64.17247
788.28        64.41509
788.70        64.67565
789.11        64.90692
789.52        65.23798
789.93        65.57204
790.35        65.51073
790.76        65.13725
791.17        65.00323
791.58        65.14793
792.00        65.06982
792.41        64.76067
792.82        64.76797
793.23        64.94243
793.65        64.45535
794.06        63.68358
794.47        63.86104
794.88         64.6526
795.29        66.35427
795.71        65.26281
796.12        65.33785
796.53        65.54974
796.94        65.26123
797.35         64.6189
797.76        64.56373
798.18        65.06681
798.59        65.28088
799.00        65.15035
799.41        65.16258
799.82        65.31912
800.23        65.38977
800.64        65.36234
801.06        65.26331
801.47        65.17665
801.88        65.18456
802.29        65.29843
802.70        65.46988
803.11        65.61784
803.52        65.61586
803.93        65.44967
804.34        65.18008
804.75        64.87364
805.17        64.69711
805.58        64.72674
805.99        64.69279
806.40        64.64405
806.81         65.2195
807.22        66.14273
807.63        66.10932
808.04        65.30096
808.45        65.16036
808.86        65.78906
809.27        66.37347
809.68        66.72948
810.09        66.92941
810.50        66.89642
810.91        66.61083
811.32        66.19514
811.73          65.814
812.14        65.52522
812.55        65.40529
812.96         65.3931
813.37        65.12832
813.78        64.70615
814.19        64.71709
814.60        65.09852
815.01        65.28996
815.42        65.25465
815.83        65.27969
816.24        65.38691
816.65        65.46804
817.05        65.52661
817.46        65.55592
817.87        65.55352
818.28        65.47205
818.69        65.32364
819.10        65.13515
819.51        64.98508
819.92        65.03986
820.33        65.33604
820.74        65.72162
821.14        66.14369
821.55        66.68898
821.96        67.22135
822.37        67.30268
822.78        66.98414
823.19        66.77432
823.60        66.73242
824.00        66.59547
824.41        66.34418
824.82         66.1777
825.23        66.11869
825.64         66.1328
826.04        66.20567
826.45        66.25772
826.86        66.27644
827.27        66.28452
827.68        66.26974
828.08        66.23186
828.49        66.12947
828.90        65.98308
829.31        65.84341
829.72        65.80494
830.12        65.90382
830.53        66.07659
830.94        66.26047
831.35        66.32961
831.75        66.27674
832.16        66.10049
832.57        65.88181
832.97        65.73821
833.38        65.69228
833.79        65.70728
834.20        65.75421
834.60        65.77878
835.01        65.78008
835.42        65.79094
835.82        65.79513
836.23        65.71212
836.64        65.55618
837.04        65.33394
837.45        65.14851
837.86        65.21379
838.26        65.57055
838.67        66.12848
839.08         66.6858
839.48        66.85843
839.89        66.55933
840.29        65.94664
840.70        65.29837
841.11        64.95769
841.51        65.02731
841.92        65.34492
842.33        65.85935
842.73        66.48253
843.14          67.048
843.54        67.62706
843.95        68.01689
844.35        67.95922
844.76        67.44539
845.17        66.59554
845.57        65.68604
845.98        65.16348
846.38        65.13606
846.79        65.47023
847.19        66.08553
847.60        66.69359
848.00         67.2086
848.41        67.64162
848.81        67.96387
849.22        68.05184
849.62        67.93923
850.03         67.5891
850.43        67.16542
850.84        66.90727
851.24        66.93589
851.65        67.14696
852.05        67.46048
852.46        67.61683
852.86        67.55658
853.27        67.38637
853.67        67.12306
854.07        66.90361
854.48        66.74541
854.88        66.63892
855.29        66.54522
855.69        66.54323
856.10        66.56418
856.50         66.6637
856.90        66.80852
857.31        66.95631
857.71        67.14951
858.12        67.33043
858.52        67.46871
858.92        67.41556
859.33        67.14254
859.73        66.71159
860.13        66.26428
860.54        66.08578
860.94        66.30041
861.34         66.7904
861.75        67.31227
862.15        67.55403
862.55        67.39217
862.96        66.96886
863.36        66.41893
863.76        65.95653
864.17        65.66527
864.57        65.48042
864.97         65.4625
865.38        65.69447
865.78          66.201
866.18        66.90632
866.58        67.53511
866.99        67.59287
867.39        67.00541
867.79        65.90636
868.19         64.5779
868.60        63.46516
869.00        62.69029
869.40        62.19279
869.80        62.02667
870.21        62.24188
870.61        62.83631
871.01        63.73756
871.41         64.6583
871.81        65.13181
872.22        65.08846
872.62        64.66022
873.02        64.02173
873.42        63.73997
873.82         63.7119
874.22        63.18335
874.63        62.49716
875.03        62.43221
875.43        63.09237
875.83        65.43499
876.23        65.69311
876.63        65.24731
877.03        63.41705
877.44        60.36126
877.84        137.1151
878.24        60.06097
878.64        61.83112
879.04        66.84873
879.44        63.15715
879.84        61.01283
880.24        66.04932
880.64        66.02172
881.04        62.24215
881.44        59.97794
881.84        60.10799
882.24        61.72547
882.65         63.9272
883.05        64.94125
883.45        64.24249
883.85         62.7566
884.25        61.23591
884.65        60.45954
885.05        60.67162
885.45        61.58294
885.85        62.75143
886.25        63.47334
886.65        63.52368
887.05        63.13793
887.45        62.63419
887.85        62.47382
888.25        62.77628
888.65        63.37555
889.04        64.05694
889.44        64.40378
889.84        64.32578
890.24        63.95992
890.64        63.50583
891.04        63.25309
891.44        63.24947
891.84        63.35765
892.24        63.45213
892.64        63.32611
893.04        62.94802
893.44        62.48357
893.83        61.92381
894.23        61.25694
894.63        60.51477
895.03        59.67811
895.43        59.04903
895.83        59.13586
896.23        59.99648
896.63        61.47666
897.02        63.01702
897.42        63.60724
897.82        63.02723
898.22        61.60941
898.62        59.96802
899.01        59.05444
899.41        59.13068
899.81         59.8614
900.21        60.93468
900.61         61.8826
901.00        62.52036
901.40        62.96554
901.80         63.2215
902.20        63.26497
902.59        63.11659
902.99         62.7495
903.39        62.21048
903.79        61.61159
904.18        61.02492
904.58        60.52571
904.98        60.20967
905.38        60.19908
905.77        60.49518
906.17        61.04616
906.57        61.70234
906.96        62.25493
907.36        62.56837
907.76        62.64831
908.15        62.57239
908.55        62.43186
908.95        62.28922
909.34        62.17569
909.74         61.9581
910.14        61.40001
910.53        60.50896
910.93        59.44286
911.33        58.65282
911.72        58.84908
912.12         60.0526
912.52        61.91592
912.91        63.81354
913.31        64.69444
913.70        64.36703
914.10        63.14146
914.49        61.33854
914.89         59.7689
915.29        58.82093
915.68        58.31119
916.08        58.31846
916.47        58.92767
916.87        59.99676
917.26        61.48224
917.66          62.945
918.05        63.66909
918.45        63.46697
918.84        62.58924
919.24        61.31779
919.64        60.17272
920.03        59.37903
920.42        58.80019
920.82        58.63958
921.21        59.16503
921.61        60.28246
922.00        61.94613
922.40        63.51821
922.79        64.16922
923.19        63.72139
923.58        62.14701
923.98        59.88972
924.37        58.71568
924.77          59.297
925.16        56.92227
925.55        59.25312
925.95        59.61789
926.34        60.20377
926.74        60.83942
927.13        61.55033
927.52        62.13553
927.92        62.51627
928.31        62.80804
928.70        62.89902
929.10        62.68394
929.49        62.18279
929.89        61.42524
930.28        60.79954
930.67        60.91684
931.07        61.82515
931.46        63.37939
931.85        64.92936
932.24        65.49413
932.64        64.85213
933.03        63.16463
933.42        61.03711
933.82          59.738
934.21        59.65559
934.60        60.44434
934.99        61.25049
935.39         61.2521
935.78        60.32718
936.17        58.05906
936.56        54.81246
936.96        56.06959
937.35          55.391
937.74          57.702
938.13         60.0181
938.53         61.5238
938.92        62.11208
939.31        62.11528
939.70        61.79338
940.09        61.43677
940.49        61.24135
940.88        61.13559
941.27        61.17282
941.66        61.48456
942.05        62.04293
942.44         62.7675
942.84        63.58405
943.23        64.34637
943.62        64.94221
944.01        65.43775
944.40        65.55313
944.79        64.85422
945.18        63.31101
945.57        61.01017
945.97        58.72486
946.36        57.80906
946.75        58.66297
947.14        60.80211
947.53        63.18056
947.92        64.34969
948.31        64.04002
948.70        62.70245
949.09        60.93477
949.48        59.79551
949.87        59.64124
950.26        60.10921
950.65        60.90225
951.04        61.54437
951.43        61.83853
951.82         61.9802
952.21        61.94915
952.60         61.6756
952.99        61.19483
953.38        60.49038
953.77        59.76588
954.16        59.37744
954.55        59.39725
954.94        59.75911
955.33        60.23123
955.72        60.39981
956.11        60.16661
956.50        59.65408
956.89        59.09489
957.28        58.93491
957.66        59.30943
958.05        59.94613
958.44        60.64738
958.83        61.16584
959.22        61.42383
959.61         61.5159
960.00        61.35011
960.39        60.77482
960.78        59.82497
961.16         58.5475
961.55        57.31936
961.94        56.59523
962.33        56.47271
962.72        56.86354
963.11        57.44874
963.49        57.66361
963.88        57.28949
964.27        56.52849
964.66        55.72543
965.04        55.45441
965.43        55.85088
965.82        56.72312
966.21        57.76271
966.60        58.47614
966.98        58.72974
967.37        58.65306
967.76        58.47189
968.15        58.53362
968.53        58.92955
968.92        59.42535
969.31        59.88498
969.69        60.09832
970.08        59.93487
970.47        59.52872
970.86        58.84334
971.24        57.76482
971.63        56.41183
972.02         54.8816
972.40        53.47038
972.79        52.71597
973.17        52.77817
973.56        53.43484
973.95         54.5403
974.33        55.78967
974.72        56.86069
975.11        57.77611
975.49        58.25824
975.88        57.90113
976.26        56.71407
976.65        54.88486
977.04        52.82951
977.42        51.30232
977.81        50.59678
978.19        50.52265
978.58        51.02009
978.96        51.91483
979.35        53.01091
979.74        54.44994
980.12        55.86158
980.51        56.34374
980.89        55.85814
981.28        54.57064
981.66        53.27243
982.05        53.10637
982.43        54.22487
982.82        56.23656
983.20        58.52953
983.59        59.69191
983.97        59.36225
984.35        57.89616
984.74        55.91945
985.12        54.29713
985.51        53.33683
985.89          52.756
986.28         52.4709
986.66        52.37018
987.04         52.3457
987.43        52.52134
987.81        52.66665
988.20        52.42042
988.58        51.65261
988.96         50.2603
989.35        48.53078
989.73        47.40337
990.12        47.44048
990.50        48.48052
990.88        49.72207
991.27        50.16063
991.65        49.84765
992.03        49.04342
992.42         48.3914
992.80         49.0014
993.18        51.09896
993.56        53.95991
993.95        56.78508
994.33        58.95957
994.71        60.12575
995.10        60.53996
995.48        60.20269
995.86        58.98925
996.24        56.97008
996.63        54.14463
997.01        50.93861
997.39        48.80126
997.77        48.43129
998.15        49.44243
998.54         51.0672
998.92        52.42064
999.30        53.31681
999.68        54.09118
1000.06        54.35232
1000.45        53.21174
1000.83        50.82149
1001.21        47.77747
1001.59        45.31824
1001.97        44.35772
1002.35        44.70046
1002.73         46.1138
1003.12        47.93717
1003.50        48.53892
1003.88        47.21468
1004.26        44.61133
1004.64        41.61018
1005.02        39.37189
1005.40        38.23611
1005.78        37.81693
1006.16        38.36123
1006.54        40.19761
1006.92        42.76908
1007.30        45.46575
1007.69        47.43089
1008.07         48.0315
1008.45         47.0534
1008.83        44.42887
1009.21        39.44669
1009.59         32.2275
1009.97        24.47212
1010.35         17.5162
1010.73        14.15319
1011.11        16.13414
1011.49        22.41848
1011.86        32.06211
1012.24        40.81823
1012.62         44.4697
1013.00        42.76729
1013.38        37.15592
1013.76        30.22978
1014.14         26.6294
1014.52        27.73119
1014.90        32.20831
1015.28        37.72555
1015.66        40.35196
1016.04        38.77181
1016.41        33.90059
1016.79        27.45118
1017.17         23.6283
1017.55        24.20044
1017.93        27.24386
1018.31         30.8048
1018.69        33.23027
1019.06        34.25415
1019.44        34.30886
1019.82        33.39124
1020.20        31.32805
1020.58        28.34617
1020.95         24.7099
1021.33        20.49246
1021.71        14.66466
1022.09        5.749453
1022.46       -10.44382
1022.84       -33.39886
1023.22       -39.18954
1023.60       -16.01316
1023.97        9.863663
1024.35        24.18221
1024.73        28.45637
