SpectraSmart Spectrum 2.9.0.0
--------- Device Information -----------
Spectrum Name :  反射率_0
Saving Time :  2024/04/20 00:29:32
Spectro-Module Model Name : SE2030-DUVN
Spectro-Module Serial Number : OS361AC55029948
Wavelength Start : 200
Wavelength End : 1025
Wavelength Unit : Wavelength(nm)
Spectrum Unit : Reflectance(%)
-----------Spectrum Setting ------------
Integration Time : 30ms
Average : 10
Boxcar : 0
Background removal :  enabled
linearity correction :  enabled
SC :  disabled
Intensity correction :  disabled
DWT denoise :  enabled
savitzky-golay :  disabled
FFT :  disabled
Running average :  disabled
Kalman :  disabled
High pass :  disabled
---------------BEGIN--------------------
Wavelength(nm)             Reflectance(%)
200.29               0
200.75        56.31986
201.21        56.74601
201.67        59.23958
202.13        63.87733
202.58        70.43678
203.04        78.87772
203.50        87.10276
203.96        89.71831
204.42        86.23649
204.88        80.12057
205.34        73.93058
205.80        68.40272
206.26        62.53624
206.72        54.41127
207.18        43.91236
207.64        36.94487
208.10        39.80595
208.55         51.0336
209.01        62.12486
209.47        66.09124
209.93        63.54732
210.39        57.39193
210.85        50.81706
211.31        47.16769
211.77        46.93262
212.23        49.26805
212.69        53.54752
213.14        56.76585
213.60        56.65981
214.06        55.32939
214.52        54.36206
214.98        54.89227
215.44        56.83336
215.90        59.48226
216.36        62.63916
216.81        65.41827
217.27        66.94579
217.73        67.74472
218.19        66.95689
218.65        63.23289
219.11        56.41124
219.57        46.23097
220.02        35.08812
220.48        29.71906
220.94        32.33589
221.40        41.92041
221.86        53.07171
222.32         57.3468
222.77        53.08627
223.23        43.16792
223.69        33.10137
224.15        30.70977
224.61        35.85486
225.06        44.24311
225.52        51.49125
225.98        53.92006
226.44        51.58728
226.90        46.19948
227.36        39.76153
227.81        35.84029
228.27        35.85203
228.73          38.181
229.19        41.33917
229.65        43.64704
230.10        44.74079
230.56        45.26228
231.02        45.49419
231.48        45.72121
231.93        45.99849
232.39        46.17767
232.85          46.192
233.31        46.02532
233.77        45.69939
234.22        45.29896
234.68        44.92391
235.14        44.59916
235.60        44.40082
236.05        44.37107
236.51        44.63538
236.97        45.39928
237.43        46.82714
237.88        49.21074
238.34        52.45583
238.80        55.96926
239.26        58.85526
239.71        60.67956
240.17        61.46917
240.63        62.30108
241.08        63.59312
241.54        65.00816
242.00         65.9212
242.46        65.03321
242.91        61.63966
243.37        55.02862
243.83        45.59831
244.28        38.96872
244.74        41.20198
245.20        51.78899
245.66        63.03579
246.11        68.09563
246.57        66.34804
247.03        58.44305
247.48        46.74681
247.94        43.83351
248.40         51.1315
248.85        60.01845
249.31        66.18824
249.77        68.64918
250.22        68.33302
250.68         66.2329
251.14        63.21827
251.59        61.26647
252.05        61.71824
252.51        64.24597
252.96        67.43564
253.42        68.87949
253.88        68.13639
254.33        66.35861
254.79        65.66492
255.25        67.85087
255.70        72.50182
256.16        78.14504
256.62        83.32948
257.07        86.52892
257.53        87.73058
257.99        87.43287
258.44        85.51309
258.90        82.82549
259.35        79.68638
259.81        77.14606
260.27        75.07684
260.72        73.32611
261.18         72.0593
261.63        70.70506
262.09        69.83893
262.55        69.66421
263.00        69.94386
263.46        70.64305
263.91        70.85284
264.37        69.89703
264.83        67.78625
265.28        64.84016
265.74        62.09943
266.19         60.4946
266.65        60.23083
267.11        60.77517
267.56        61.43402
268.02        61.22663
268.47        59.94857
268.93        57.95802
269.38        55.66343
269.84        53.95739
270.30        53.07522
270.75        52.74787
271.21        52.64049
271.66         52.2335
272.12        51.37674
272.57         50.2272
273.03        49.00992
273.48        47.96165
273.94        47.21709
274.39        46.65331
274.85        46.15112
275.31        45.48697
275.76        44.59738
276.22        43.58174
276.67         42.6023
277.13         42.0253
277.58        41.81433
278.04        41.88371
278.49         41.8565
278.95        41.30147
279.40        40.13444
279.86        38.63353
280.31        37.09924
280.77        36.11794
281.22        35.71004
281.68        35.72163
282.13        35.85493
282.59        35.72881
283.04        35.24245
283.50        34.57878
283.95         33.8753
284.41        33.37822
284.86        33.11716
285.32        33.03183
285.77         33.0376
286.22        33.09084
286.68        33.15882
287.13        33.22826
287.59        33.29353
288.04        33.30177
288.50        33.26443
288.95         33.1436
289.41        32.98272
289.86        32.76613
290.32        32.55795
290.77        32.37568
291.22        32.25485
291.68        32.20574
292.13        32.25051
292.59        32.41964
293.04         32.7835
293.50        33.46837
293.95        34.45947
294.40        35.68801
294.86        37.01566
295.31        38.23711
295.77        39.29218
296.22        40.22403
296.68        41.08043
297.13         41.9306
297.58        42.81021
298.04        43.69633
298.49        44.59953
298.95         45.5899
299.40        46.64943
299.85        47.76161
300.31        48.86914
300.76        49.85612
301.21        50.70274
301.67        51.47692
302.12        52.16984
302.58        52.86332
303.03        53.54942
303.48        54.23703
303.94        54.99404
304.39        55.86606
304.84        56.85802
305.30        57.93215
305.75        58.95029
306.20          59.743
306.66        60.29575
307.11        60.63008
307.57         60.8572
308.02        61.04673
308.47         61.2621
308.93        61.47355
309.38        61.67633
309.83        61.93797
310.29        62.25292
310.74        62.60738
311.19        62.88503
311.65        62.88831
312.10        62.58458
312.55         62.0453
313.00        61.46846
313.46        61.15854
313.91        61.16172
314.36        61.40474
314.82        61.69965
315.27        61.76829
315.72        61.52217
316.18        61.07175
316.63        60.54456
317.08        60.15939
317.53        59.96826
317.99        59.88527
318.44        59.83285
318.89        59.67345
319.35        59.36769
319.80        58.97444
320.25        58.53985
320.70        58.13393
321.16        57.77562
321.61        57.44792
322.06        57.13631
322.51        56.82937
322.97        56.50732
323.42        56.18504
323.87        55.84583
324.32         55.4691
324.78        55.04198
325.23        54.59506
325.68        54.11774
326.13        53.60899
326.59        53.08075
327.04        52.57005
327.49        52.12041
327.94        51.80964
328.39        51.64281
328.85        51.56103
329.30        51.55017
329.75        51.49625
330.20        51.35514
330.66        51.12998
331.11        50.83618
331.56        50.43147
332.01        49.92781
332.46        49.34048
332.92         48.7426
333.37        48.29885
333.82        48.04903
334.27        47.97284
334.72        48.00821
335.17        48.03381
335.63        47.98766
336.08        47.91354
336.53        47.82017
336.98        47.75462
337.43        47.72309
337.88        47.69613
338.34        47.61378
338.79        47.43738
339.24        47.14174
339.69        46.75428
340.14         46.3546
340.59        46.07045
341.05        45.92992
341.50        45.91183
341.95        45.94186
342.40        45.89869
342.85        45.75127
343.30        45.54065
343.75          45.315
344.20         45.1537
344.66         45.0742
345.11        45.02516
345.56         44.9925
346.01        44.95407
346.46        44.89138
346.91        44.81929
347.36        44.69138
347.81        44.42945
348.26        44.03899
348.72        43.57419
349.17        43.11052
349.62        42.84301
350.07        42.81641
350.52        42.96268
350.97        43.18845
351.42        43.35296
351.87        43.39823
352.32        43.34616
352.77        43.18944
353.22        42.92298
353.67         42.5635
354.13        42.13703
354.58         41.6569
355.03        41.19294
355.48        40.77979
355.93        40.42595
356.38        40.15409
356.83        39.98689
357.28        39.91359
357.73        39.90854
358.18        39.92928
358.63          39.908
359.08        39.81345
359.53        39.65573
359.98        39.41833
360.43        39.08005
360.88        38.65465
361.33        38.16151
361.78        37.67028
362.23        37.29781
362.68        37.07269
363.13        36.95767
363.58         36.8991
364.03        36.80633
364.48        36.64175
364.93        36.42371
365.38        36.13918
365.83        35.77687
366.28        35.34811
366.73        34.85643
367.18        34.35804
367.63        33.94144
368.08        33.62897
368.53        33.41144
368.98        33.23135
369.43        32.98736
369.88        32.66013
370.33         32.2811
370.78        31.91607
371.23        31.67998
371.68        31.59934
372.13        31.62518
372.58         31.6948
373.03        31.70793
373.48        31.62314
373.93         31.4642
374.38        31.23745
374.83        30.95215
375.28        30.61914
375.72         30.2272
376.17        29.82898
376.62         29.4721
377.07        29.18204
377.52        28.96146
377.97        28.79915
378.42        28.66769
378.87        28.55612
379.32        28.46683
379.77        28.40456
380.22        28.37584
380.67        28.37428
381.11        28.39121
381.56        28.38411
382.01        28.31121
382.46        28.15849
382.91        27.92889
383.36        27.66893
383.81        27.44771
384.26        27.28461
384.71         27.1822
385.15        27.06921
385.60        26.84348
386.05        26.49477
386.50        26.05694
386.95         25.6731
387.40        25.56553
387.85        25.75663
388.29        26.15092
388.74        26.55289
389.19        26.66563
389.64        26.43783
390.09         25.9574
390.54        25.40841
390.98        25.08179
391.43        25.06812
391.88        25.25169
392.33         25.4721
392.78        25.49907
393.23        25.29616
393.67        24.94254
394.12        24.59043
394.57        24.36016
395.02        24.28185
395.47        24.30316
395.91        24.37253
396.36        24.37986
396.81        24.30532
397.26        24.18203
397.71        24.05837
398.15         23.9846
398.60        23.99863
399.05        24.05992
399.50        24.11912
399.95        24.10972
400.39        24.01586
400.84        23.85161
401.29        23.66922
401.74         23.5664
402.18        23.57629
402.63        23.66722
403.08        23.75995
403.53        23.72036
403.97         23.5265
404.42        23.23473
404.87        22.95574
405.32        22.87188
405.76        23.01347
406.21        23.31026
406.66         23.6396
407.11        23.81111
407.55        23.77661
408.00        23.59912
408.45        23.34525
408.90        23.07713
409.34        22.86809
409.79        22.81021
410.24        22.85372
410.68        22.82299
411.13        22.70678
411.58        22.60466
412.03        22.53561
412.47        22.49637
412.92        22.48839
413.37        22.49908
413.81         22.5391
414.26        22.64468
414.71        22.80514
415.15         23.0155
415.60        23.18706
416.05        23.20761
416.49        23.05308
416.94        22.76221
417.39        22.43593
417.83        22.23721
418.28        22.21434
418.73        22.31584
419.17         22.4588
419.62        22.50279
420.07        22.41766
420.51        22.25021
420.96        22.06684
421.41         21.9457
421.85         21.9017
422.30        21.91809
422.74        21.96015
423.19        22.01437
423.64        22.06066
424.08        22.11746
424.53        22.15427
424.98        22.15297
425.42        22.11631
425.87        22.05073
426.31        21.97064
426.76        21.90866
427.21         21.8608
427.65        21.80951
428.10        21.77953
428.54        21.78113
428.99        21.81986
429.44        21.99017
429.88        22.17149
430.33        22.02983
430.77        21.64204
431.22        21.44319
431.66        21.49094
432.11        21.62378
432.56        21.80375
433.00        22.13693
433.45        22.42674
433.89        22.29645
434.34        21.87997
434.78        21.58518
435.23        21.41682
435.67         21.9794
436.12        21.53766
436.57        21.36602
437.01        21.05257
437.46         20.9294
437.90        21.02486
438.35        21.17024
438.79        21.28652
439.24        21.36279
439.68        21.37558
440.13        21.15853
440.57        20.85797
441.02        21.04059
441.46        21.51827
441.91        21.62977
442.35        20.84446
442.80        20.57077
443.24        20.59894
443.69        20.49397
444.13        20.26058
444.58        20.13014
445.02        20.12539
445.47        20.23615
445.91        20.39781
446.36        20.45734
446.80        20.38268
447.24        20.24458
447.69        20.10368
448.13        20.01116
448.58        19.99371
449.02        20.02669
449.47        20.07519
449.91        20.07701
450.36        20.02316
450.80        19.93171
451.25        19.84177
451.69        19.79081
452.13        19.79512
452.58        19.83405
453.02        19.88501
453.47        19.91879
453.91        19.92498
454.36        19.90752
454.80        19.87154
455.24        19.82404
455.69        19.77581
456.13        19.70506
456.58        19.62663
457.02        19.55185
457.46        19.48386
457.91        19.38222
458.35        19.26349
458.79        19.20172
459.24        19.19689
459.68        19.22927
460.13        19.33047
460.57        19.36567
461.01        19.30278
461.46        19.68066
461.90        19.73444
462.34        19.48806
462.79        19.59494
463.23        19.39223
463.68         19.2068
464.12        19.06261
464.56        19.13147
465.01        19.26735
465.45        19.40357
465.89        19.46086
466.34        19.42817
466.78        19.26742
467.22         19.0621
467.67         19.0826
468.11        19.29492
468.55        19.30741
468.99        19.13101
469.44        19.09694
469.88        19.21221
470.32        19.28539
470.77        19.28801
471.21         19.2725
471.65        19.23727
472.10        19.16812
472.54        19.09464
472.98        19.10467
473.42        19.20609
473.87        19.31824
474.31        19.40757
474.75        19.54193
475.20        19.66938
475.64         19.5907
476.08        19.38396
476.52        19.34077
476.97        19.48133
477.41        19.67348
477.85        19.84143
478.29        19.92023
478.74        19.89017
479.18        19.74306
479.62        19.57629
480.06        19.54453
480.50        19.65166
480.95        19.76003
481.39        19.82463
481.83         19.8707
482.27        19.88837
482.72        19.86707
483.16        19.82898
483.60        19.83029
484.04        19.88108
484.48        19.99837
484.93        20.21688
485.37        20.38906
485.81        20.37747
486.25        20.87584
486.69         21.7238
487.14        21.05315
487.58        20.88001
488.02        21.50869
488.46        21.07914
488.90        21.15295
489.34        21.01154
489.79        21.23131
490.23        21.68538
490.67        21.88942
491.11         21.8343
491.55        21.75953
491.99        21.71936
492.43        21.69408
492.88        21.71381
493.32        21.78008
493.76        21.89869
494.20        22.08047
494.64        22.32024
495.08        22.60439
495.52         22.8953
495.96        23.15257
496.41        23.36228
496.85        23.48552
497.29        23.54697
497.73        23.70218
498.17        23.92772
498.61        23.97623
499.05        23.88712
499.49        23.96769
499.93        24.24286
500.37        24.49113
500.82        24.69635
501.26        25.03457
501.70        25.43135
502.14        25.55223
502.58        25.42954
503.02        25.40785
503.46        25.51498
503.90        25.56775
504.34        25.55725
504.78        25.55655
505.22        25.57084
505.66        25.58929
506.10        25.62852
506.54        25.70789
506.98        25.82933
507.42        25.98993
507.86        26.16142
508.30        26.29654
508.74        26.38134
509.18        26.42137
509.62        26.44815
510.06        26.51447
510.50        26.63221
510.94        26.78967
511.38        26.93901
511.82        27.00239
512.26        26.96527
512.70        26.85171
513.14        26.73243
513.58         26.7142
514.02        26.81193
514.46        26.99429
514.90        27.18605
515.34        27.20082
515.78        27.05884
516.22        26.86175
516.66        26.70778
517.10        26.42185
517.54        26.03243
517.98         26.5702
518.42        26.47325
518.86        26.73066
519.30        26.85461
519.74        26.99706
520.18        27.11292
520.62        27.11027
521.06        26.99763
521.50        26.78826
521.93         26.5422
522.37        26.36816
522.81        26.29643
523.25        26.30208
523.69        26.35123
524.13        26.38733
524.57        26.38822
525.01        26.36569
525.45        26.32853
525.89        26.28917
526.32        26.24979
526.76        26.20628
527.20        26.13867
527.64        26.02422
528.08        25.86204
528.52        25.65937
528.96        25.46201
529.40        25.33592
529.83        25.29148
530.27        25.31988
530.71         25.3508
531.15        25.27386
531.59        25.07351
532.03        24.78717
532.46         24.5077
532.90        24.39964
533.34        24.48268
533.78         24.6957
534.22        24.93483
534.66        25.04128
535.09        24.97226
535.53        24.78907
535.97        24.55306
536.41         24.3585
536.85        24.24105
537.28        24.18432
537.72          24.186
538.16        24.16861
538.60        24.23958
539.04        24.30183
539.47        24.36695
539.91        24.45945
540.35        24.59007
540.79        24.54143
541.22         24.6388
541.66        24.72249
542.10        24.91039
542.54         24.7975
542.97        25.03866
543.41        25.16896
543.85        25.36462
544.29        25.56016
544.72        25.72364
545.16        25.88111
545.60        26.02174
546.04        26.05998
546.47        26.07423
546.91        26.35274
547.35        26.83052
547.79        27.16236
548.22        27.30154
548.66        27.36219
549.10         27.3967
549.53         27.5923
549.97        27.96526
550.41        28.02387
550.84        28.26901
551.28        28.46473
551.72        28.78756
552.15        29.01552
552.59        29.11301
553.03        29.71062
553.46        29.70193
553.90        29.91077
554.34        30.01772
554.77        30.06029
555.21        30.07987
555.65        30.14965
556.08         30.2894
556.52        30.46437
556.96        30.64625
557.39        30.82618
557.83        30.98209
558.27        31.04961
558.70        31.04684
559.14        31.06604
559.57        31.11007
560.01         31.1711
560.45        31.24004
560.88         31.2587
561.32        31.28648
561.75        31.41888
562.19        31.73805
562.63        31.88172
563.06        31.88225
563.50        31.93279
563.93        32.03736
564.37        32.17373
564.80        32.19489
565.24        32.30236
565.68        32.44378
566.11        32.48669
566.55         32.6786
566.98        32.77898
567.42        32.83287
567.85        33.22129
568.29        33.08862
568.72         33.4349
569.16        33.91249
569.60        34.26654
570.03        34.35728
570.47        34.46733
570.90        34.41956
571.34        34.83244
571.77          34.645
572.21        35.00251
572.64        35.29446
573.08        35.67133
573.51          35.755
573.95        36.12206
574.38        36.42003
574.82        36.72309
575.25        36.88086
575.69         36.6804
576.12        36.53468
576.56        36.37073
576.99        36.30698
577.42        36.86848
577.86        36.92246
578.29        36.70331
578.73        37.35441
579.16        36.84965
579.60        36.83751
580.03        36.32246
580.47        36.46943
580.90        36.13776
581.33        35.93083
581.77        36.01682
582.20        36.55476
582.64        35.93121
583.07          35.574
583.51        35.67525
583.94        34.85102
584.37        34.64452
584.81        34.29836
585.24         34.2669
585.68        34.33738
586.11         34.3552
586.54        34.13708
586.98        33.97063
587.41         33.8764
587.85        33.83376
588.28        33.79169
588.71        33.70595
589.15        33.64203
589.58         32.9755
590.01        32.99202
590.45        33.33802
590.88        33.48273
591.31         33.3763
591.75        32.80202
592.18        32.99094
592.61        33.17357
593.05        33.48095
593.48        33.02985
593.91         34.0042
594.35        33.54377
594.78        33.67765
595.21        34.24737
595.65        34.38977
596.08        34.36381
596.51        34.38145
596.94        34.57041
597.38        34.61256
597.81        34.58246
598.24        34.95207
598.68        35.88513
599.11        35.76229
599.54        36.79583
599.97        36.70717
600.41        37.09934
600.84        37.49361
601.27         38.0525
601.70        38.47785
602.14        38.73224
602.57        39.23331
603.00        39.94594
603.43        40.52262
603.87        40.93975
604.30        41.41279
604.73        41.95619
605.16         42.3766
605.60        42.69484
606.03         43.3583
606.46         44.1487
606.89        44.83067
607.32        45.43135
607.76        45.14649
608.19        45.94564
608.62        46.47147
609.05        46.51475
609.48        46.83611
609.92        47.29907
610.35        47.28839
610.78        48.22425
611.21        49.09905
611.64         48.8885
612.07        49.10942
612.50        49.59452
612.94        49.56901
613.37        50.09027
613.80         50.3473
614.23         50.6356
614.66        51.20461
615.09        51.51426
615.52        52.04506
615.96        52.38546
616.39        52.72108
616.82        53.06779
617.25        52.85415
617.68        53.23093
618.11        53.58083
618.54        54.10327
618.97        54.07842
619.40        53.58938
619.84        53.73534
620.27        53.65064
620.70        54.17976
621.13        54.87048
621.56        55.14822
621.99        55.08645
622.42        55.12479
622.85        55.37379
623.28         55.3858
623.71        55.15439
624.14         55.5903
624.57        55.40703
625.00        55.16698
625.43        55.58043
625.86        54.69372
626.29        54.90016
626.72        54.60742
627.15         54.4655
627.58        54.37216
628.01        54.27805
628.44        54.12484
628.87         53.8773
629.30        53.50227
629.73        53.03072
630.16        52.82476
630.59        52.52581
631.02        52.16338
631.45         51.6521
631.88           51.21
632.31        50.83881
632.74        50.41927
633.17        49.93366
633.60        49.40066
634.03        48.82168
634.46        48.20139
634.89        47.56306
635.32        46.94232
635.75        46.35786
636.18        45.81207
636.61        45.30857
637.04        44.84402
637.47        44.41068
637.89        44.00983
638.32        43.62189
638.75        43.24163
639.18        42.86757
639.61        42.50445
640.04        42.14625
640.47        41.78206
640.90        41.41508
641.33        41.05387
641.76        40.72557
642.18         40.4775
642.61        40.31372
643.04        40.22388
643.47         40.1864
643.90        40.16223
644.33        40.14084
644.76        40.13821
645.18        40.15863
645.61        40.21025
646.04        40.29951
646.47         40.4214
646.90        40.59765
647.33        40.86355
647.75        41.22084
648.18        41.65527
648.61        42.12526
649.04        42.54834
649.47         42.9115
649.89        43.27052
650.32        43.67139
650.75        44.12074
651.18        44.67216
651.61        45.42952
652.03        46.34889
652.46        47.27164
652.89        48.09171
653.32        48.78024
653.74        49.12406
654.17        49.87512
654.60        50.16307
655.03         51.8906
655.46         51.4752
655.88        53.65637
656.31        54.71655
656.74        62.87371
657.16        60.46561
657.59        56.45536
658.02        56.67541
658.45        56.33438
658.87         57.1556
659.30        58.17685
659.73        58.87234
660.15        59.88633
660.58        59.65256
661.01        59.57037
661.44        59.47359
661.86        59.76661
662.29        60.43636
662.72        61.28083
663.14        62.09552
663.57        62.20877
664.00        61.93898
664.42        62.01052
664.85        62.54589
665.27         62.9822
665.70        63.24563
666.13        63.52017
666.55        63.79484
666.98        64.01472
667.41        64.18941
667.83         64.3314
668.26        64.43845
668.69        64.52276
669.11        64.61076
669.54        64.72181
669.96        64.86587
670.39        65.08811
670.82        65.36234
671.24        65.51383
671.67        65.58868
672.09        65.85367
672.52         66.2475
672.94        66.49416
673.37        66.53454
673.80        66.34238
674.22        66.04573
674.65        65.95187
675.07        66.12426
675.50         66.3954
675.92        66.67237
676.35        66.82877
676.77        66.83049
677.20        66.72074
677.62        66.57525
678.05        66.52483
678.47        66.59747
678.90        66.75251
679.32        66.94907
679.75        67.12061
680.17        67.23922
680.60        67.35237
681.02        67.45998
681.45        67.47186
681.87        67.43678
682.30        67.51237
682.72        67.68485
683.15        67.75544
683.57        67.73843
684.00        67.71645
684.42        67.82691
684.85        67.94875
685.27        68.10795
685.70        68.32321
686.12        68.53646
686.54        68.66582
686.97        68.68887
687.39        68.63702
687.82        68.53999
688.24        68.48294
688.66        68.48291
689.09        68.50272
689.51        68.54103
689.94        68.59771
690.36        68.67431
690.78         68.6794
691.21        68.60999
691.63        68.68833
692.06        68.95088
692.48        68.78316
692.90        68.86317
693.33        69.32409
693.75        69.17132
694.17        69.40026
694.60        69.58723
695.02         69.4577
695.44        69.05056
695.87        68.92549
696.29         69.0862
696.71        68.92066
697.14        68.60429
697.56        68.90324
697.98        69.62798
698.41        70.33429
698.83        70.15987
699.25        69.83996
699.68        69.35689
700.10        69.14948
700.52        69.30222
700.94        69.59263
701.37        69.87768
701.79        70.06294
702.21        70.06982
702.64        69.93893
703.06        69.76636
703.48        69.72026
703.90        69.84618
704.33        70.06087
704.75        70.27919
705.17        70.40149
705.59        70.35817
706.01         70.0464
706.44        69.64561
706.86        69.57838
707.28        69.89285
707.70        70.40171
708.12        70.91618
708.55        71.17251
708.97        71.10553
709.39        70.82625
709.81        70.45783
710.23        70.19886
710.66        70.12853
711.08        70.20157
711.50        70.35902
711.92        70.51059
712.34        70.62469
712.76        70.75507
713.19        70.88654
713.61        70.95977
714.03        71.08673
714.45        71.14498
714.87         71.2009
715.29        71.30215
715.71        71.45483
716.13        71.63926
716.56        71.79911
716.98        71.92358
717.40        71.96541
717.82        71.94926
718.24        71.89662
718.66        71.80814
719.08        71.69235
719.50        71.68705
719.92        71.55717
720.34        71.50311
720.76        71.45721
721.19         71.4272
721.61        71.42564
722.03        71.43589
722.45        71.47775
722.87        71.53533
723.29        71.61403
723.71        71.70833
724.13        71.81779
724.55        71.95374
724.97        72.11282
725.39        72.26314
725.81        72.40933
726.23        72.60148
726.65        72.82294
727.07         72.9947
727.49        73.10484
727.91        73.19571
728.33        73.24537
728.75        73.19929
729.17        73.06374
729.59        72.87012
730.01        72.68132
730.43        72.59366
730.85         72.6306
731.27        72.75883
731.69        72.93666
732.10        73.11599
732.52        73.27289
732.94        73.36436
733.36        73.34194
733.78        73.36507
734.20        73.50773
734.62        72.97749
735.04        72.90243
735.46        73.12099
735.88        73.01791
736.30        72.77301
736.72         73.0513
737.13        73.27444
737.55        73.58461
737.97        73.96735
738.39        74.29287
738.81        74.06557
739.23        73.47224
739.65        73.44232
740.06        73.87627
740.48        74.10346
740.90        74.03033
741.32        73.33372
741.74        73.10976
742.16        72.92533
742.57        73.13152
742.99        73.45596
743.41        73.78474
743.83        73.99929
744.25        74.03191
744.67         73.9101
745.08        73.69371
745.50        73.48034
745.92        73.33198
746.34        73.17977
746.75        73.02314
747.17        73.07785
747.59        73.00376
748.01        73.10632
748.42        73.26746
748.84        73.43097
749.26        73.60268
749.68        73.72628
750.09        73.83901
750.51        74.14591
750.93        74.50227
751.35        74.45985
751.76        74.13042
752.18        73.60289
752.60        73.72466
753.01        73.72691
753.43        73.73664
753.85        73.43697
754.27        73.63474
754.68        74.12786
755.10        74.74711
755.52         73.9715
755.93        74.15713
756.35        73.82107
756.77        73.73981
757.18          73.745
757.60        73.91748
758.02        74.16421
758.43        74.30611
758.85        75.00862
759.26        74.98605
759.68        74.78596
760.10         74.7487
760.51        74.68162
760.93        74.70584
761.34         74.0047
761.76        73.92201
762.18        73.64576
762.59        73.64542
763.01         73.8203
763.42        74.17125
763.84        74.57696
764.26        74.91982
764.67        74.81757
765.09        74.47799
765.50        74.58244
765.92        75.07462
766.33         75.2975
766.75        75.08955
767.16        74.65277
767.58        74.11105
768.00        73.71761
768.41        73.65176
768.83        74.06795
769.24        74.77594
769.66        75.16671
770.07        75.15274
770.49        75.06311
770.90        75.00289
771.32        75.06665
771.73        75.24364
772.15        75.27988
772.56        75.17305
772.97        75.11089
773.39        75.04772
773.80        74.89701
774.22         74.5998
774.63        74.22913
775.05        73.90849
775.46        73.88445
775.88        74.17282
776.29         74.7419
776.70        75.33796
777.12        75.55658
777.53        75.31998
777.95        74.72595
778.36        74.05055
778.77        73.76211
779.19        73.97231
779.60        74.57977
780.02        75.27955
780.43        75.73609
780.84        75.84147
781.26        75.38779
781.67        74.71762
782.09        75.16045
782.50        76.41447
782.91        76.51216
783.33        75.53944
783.74        75.27436
784.15        75.75797
784.57        76.06543
784.98        76.06072
785.39        75.73392
785.81        75.19999
786.22        74.99969
786.63        75.12824
787.04        75.10152
787.46        74.92616
787.87        74.90536
788.28        75.06786
788.70         75.2737
789.11        75.49689
789.52        75.78761
789.93        76.07431
790.35        76.21685
790.76        76.21458
791.17        76.09093
791.58        75.90181
792.00         75.7868
792.41        75.70329
792.82         75.4651
793.23        75.10817
793.65        74.62733
794.06        74.29437
794.47        74.75373
794.88        75.91216
795.29        76.72285
795.71        76.59804
796.12        76.54707
796.53        76.46604
796.94        75.98349
797.35        75.28621
797.76        75.06384
798.18        75.30376
798.59        75.41129
799.00        75.34566
799.41        75.51678
799.82        75.87115
800.23        76.09723
800.64        76.14632
801.06        76.05584
801.47        75.94466
801.88        75.95034
802.29        76.09885
802.70        76.32005
803.11        76.50479
803.52        76.48262
803.93        76.23894
804.34        75.86445
804.75         75.4558
805.17         75.2468
805.58        75.33244
805.99        75.33509
806.40        75.31103
806.81        76.09615
807.22        77.30951
807.63        77.23766
808.04        76.09737
808.45        75.71548
808.86        76.26283
809.27        76.81938
809.68        77.19529
810.09        77.43511
810.50        77.45656
810.91         77.3043
811.32        77.05952
811.73        76.78928
812.14         76.5348
812.55        76.33644
812.96        76.18423
813.37        75.95927
813.78        75.71171
814.19        75.67439
814.60        75.81506
815.01        75.90244
815.42        75.91322
815.83        75.94826
816.24        76.02526
816.65        76.12407
817.05        76.24848
817.46          76.358
817.87        76.43116
818.28        76.39044
818.69        76.24472
819.10        76.02532
819.51        75.83099
819.92        75.90455
820.33        76.30018
820.74        76.72762
821.14        77.11376
821.55        77.79621
821.96        78.50059
822.37         78.1684
822.78        77.02255
823.19        76.44167
823.60        76.58753
824.00         76.7604
824.41        76.80779
824.82        76.90381
825.23        77.00195
825.64        77.07284
826.04        77.14719
826.45        77.21981
826.86        77.30038
827.27        77.37776
827.68        77.42573
828.08        77.43135
828.49        77.33611
828.90        77.18399
829.31        77.01675
829.72        76.90472
830.12        76.89038
830.53        76.92182
830.94        76.97628
831.35        76.98459
831.75        76.95028
832.16         76.8488
832.57        76.73134
832.97        76.66069
833.38        76.63528
833.79        76.63969
834.20        76.64735
834.60         76.6097
835.01        76.53513
835.42        76.45082
835.82        76.37851
836.23        76.29517
836.64        76.22653
837.04        76.16577
837.45        76.15316
837.86        76.30293
838.26         76.6376
838.67         77.0892
839.08        77.51849
839.48        77.65044
839.89        77.42207
840.29        76.94573
840.70        76.46352
841.11        76.25822
841.51        76.41354
841.92        76.78258
842.33        77.30673
842.73        77.88288
843.14        78.34423
843.54        78.78747
843.95        79.04049
844.35        78.91109
844.76        78.40485
845.17        77.60875
845.57        76.79939
845.98        76.43037
846.38        76.59481
846.79        77.16219
847.19         77.9605
847.60        78.51714
848.00        78.73014
848.41        78.66592
848.81        78.48969
849.22        78.37318
849.62        78.42458
850.03         78.5312
850.43        78.69415
850.84        78.81561
851.24        78.91862
851.65        78.97733
852.05        79.05963
852.46        79.14637
852.86        79.23609
853.27        79.33443
853.67         79.3501
854.07        79.29141
854.48        79.13124
854.88        78.91483
855.29        78.62392
855.69        78.38801
856.10        78.15687
856.50        77.99616
856.90        77.88531
857.31        77.81843
857.71        77.86668
858.12        77.97419
858.52        78.12036
858.92        78.15712
859.33         78.0401
859.73        77.83713
860.13        77.63661
860.54        77.62462
860.94        77.90837
861.34        78.37402
861.75        78.83331
862.15        79.08636
862.55        79.03192
862.96        78.76861
863.36        78.39443
863.76        78.04565
864.17         77.7844
864.57        77.58448
864.97        77.50502
865.38        77.61871
865.78        77.96419
866.18         78.4595
866.58        78.90197
866.99        78.92836
867.39        78.49945
867.79        77.70001
868.19        76.67709
868.60        75.65349
869.00        74.69872
869.40        73.80584
869.80         73.1493
870.21        72.99243
870.61        73.41894
871.01         74.3113
871.41        75.29687
871.81        75.76879
872.22        75.61392
872.62        75.01347
873.02        74.25474
873.42        74.00723
873.82        74.24847
874.22        74.35067
874.63        74.40933
875.03        74.69791
875.43         75.1657
875.83        76.55231
876.23        76.42661
876.63        75.87196
877.03         74.4677
877.44        72.26671
877.84        125.9834
878.24        72.01542
878.64        73.19966
879.04        76.66558
879.44         73.9943
879.84        72.38451
880.24        75.85239
880.64        75.72111
881.04         72.8773
881.44        71.05495
881.84         70.9056
882.24        71.81289
882.65        73.15838
883.05        73.77526
883.45        73.27505
883.85        72.29485
884.25         71.3789
884.65        71.08522
885.05        71.56346
885.45        72.60184
885.85        73.74243
886.25        74.24421
886.65        73.92319
887.05        73.04653
887.45        72.07441
887.85         71.6898
888.25        72.05704
888.65        72.95024
889.04        74.07145
889.44        74.81966
889.84        75.02296
890.24        74.85535
890.64        74.48532
891.04        74.16683
891.44        73.96105
891.84        73.72913
892.24        73.45375
892.64        73.13107
893.04        72.77609
893.44        72.49793
893.83        72.16102
894.23        71.57236
894.63         70.7234
895.03        69.66759
895.43        68.77598
895.83        68.67221
896.23        69.45158
896.63          70.904
897.02        72.47771
897.42        73.16833
897.82         72.7365
898.22        71.51391
898.62          70.011
899.01        69.01199
899.41        68.77811
899.81        69.04027
900.21        69.64151
900.61        70.35426
901.00        71.04733
901.40        71.76485
901.80        72.40914
902.20        72.77921
902.59        72.84103
902.99        72.62759
903.39        72.20284
903.79        71.70782
904.18        71.22443
904.58        70.77814
904.98        70.52764
905.38        70.71086
905.77        71.32091
906.17        72.27728
906.57        73.25674
906.96        73.76978
907.36          73.658
907.76         73.0451
908.15        72.23269
908.55        71.66288
908.95        71.48624
909.34        71.62134
909.74        71.80491
910.14        71.57864
910.53        70.84424
910.93        69.82587
911.33        68.94604
911.72        68.86169
912.12        69.64612
912.52         71.0036
912.91        72.43719
913.31        73.10346
913.70        72.86066
914.10        71.94588
914.49         70.6786
914.89        69.78578
915.29        69.54833
915.68        69.74644
916.08        70.26627
916.47        70.93529
916.87        71.62204
917.26        72.35694
917.66        72.97116
918.05        73.21889
918.45        73.02965
918.84        72.52102
919.24        71.75156
919.64        70.85435
920.03         69.9481
920.42        69.05096
920.82        68.47142
921.21         68.6188
921.61        69.46653
922.00        70.90851
922.40        72.38006
922.79        73.18472
923.19        73.11936
923.58        72.19424
923.98        70.69379
924.37        69.81682
924.77         70.0701
925.16        67.99657
925.55        69.38725
925.95        69.48367
926.34        69.97218
926.74        70.65879
927.13        71.47292
927.52           72.12
927.92        72.49341
928.31        72.72124
928.70        72.73528
929.10        72.48963
929.49        72.02598
929.89        71.35574
930.28        70.77034
930.67        70.72636
931.07        71.27048
931.46        72.32719
931.85        73.44036
932.24        73.92466
932.64        73.60871
933.03        72.57081
933.42        71.22607
933.82        70.45113
934.21        70.48375
934.60        71.09994
934.99        71.59557
935.39        71.25075
935.78        69.97276
936.17        67.44675
936.56        64.13625
936.96        64.85609
937.35        64.61279
937.74        67.17994
938.13        69.80401
938.53        71.37917
938.92        71.76623
939.31        71.33647
939.70        70.53514
940.09        70.06811
940.49        70.22724
940.88         70.7907
941.27        71.50716
941.66        72.06776
942.05        72.37446
942.44        72.51718
942.84        72.65223
943.23        73.03587
943.62        73.68416
944.01          74.519
944.40        75.17595
944.79         75.0973
945.18        74.17099
945.57        72.51788
945.97         70.7486
946.36        69.93651
946.75         70.4302
947.14        71.87112
947.53        73.46655
947.92        74.11741
948.31        73.62605
948.70        72.33506
949.09        70.80083
949.48        69.98994
949.87         70.1942
950.26        71.09403
950.65         72.2373
951.04        72.88889
951.43          72.813
951.82        72.25184
952.21         71.4777
952.60        70.90909
952.99        70.67873
953.38        70.63064
953.77        70.64453
954.16        70.55197
954.55        70.30734
954.94        70.01361
955.33        69.72601
955.72          69.499
956.11        69.37439
956.50        69.33654
956.89        69.41788
957.28        69.68252
957.66        70.11259
958.05        70.56579
958.44        70.98135
958.83        71.28801
959.22        71.45656
959.61        71.51686
960.00        71.33372
960.39        70.69952
960.78        69.63541
961.16        68.22533
961.55        66.89265
961.94        66.13907
962.33        66.07577
962.72        66.60457
963.11        67.35665
963.49        67.68974
963.88        67.34866
964.27        66.53979
964.66        65.67999
965.04        65.46898
965.43        66.05292
965.82        67.19851
966.21        68.45898
966.60        69.11882
966.98        69.01377
967.37        68.36553
967.76        67.58051
968.15          67.288
968.53        67.66226
968.92        68.39043
969.31        69.23047
969.69        69.78671
970.08        69.85365
970.47        69.61322
970.86        69.05227
971.24        68.10297
971.63        66.88718
972.02        65.45737
972.40        64.10609
972.79        63.36626
973.17        63.40815
973.56        64.02447
973.95        65.04906
974.33        66.12676
974.72        66.94548
975.11        67.56705
975.49        67.82944
975.88        67.49476
976.26        66.60432
976.65        65.30048
977.04        63.86051
977.42        62.80445
977.81        62.32696
978.19        62.25967
978.58        62.66264
978.96        63.61247
979.35        64.95208
979.74        66.76327
980.12        68.43804
980.51        68.65664
980.89        67.35091
981.28        64.91053
981.66        62.50311
982.05        61.75702
982.43        62.89106
982.82        65.39236
983.20         68.4061
983.59        70.04511
983.97        69.80479
984.35        68.16057
984.74        65.97718
985.12        64.52859
985.51        64.20772
985.89        64.59878
986.28        65.35332
986.66        65.87621
987.04        65.82663
987.43         65.5517
987.81        65.00703
988.20        64.04509
988.58         62.5714
988.96        60.36681
989.35        57.79965
989.73        56.26887
990.12        56.52944
990.50        58.34064
990.88        60.44937
991.27        61.37051
991.65        61.06154
992.03        59.83057
992.42        58.59637
992.80        59.06599
993.18        61.61291
993.56        65.38309
993.95        68.99734
994.33        71.00512
994.71        71.01108
995.10         69.5478
995.48        67.48511
995.86         66.0368
996.24        65.60812
996.63        66.00777
997.01        66.70977
997.39        66.60852
997.77        65.38096
998.15        63.50447
998.54        61.96816
998.92        61.85074
999.30        63.32892
999.68        66.41196
1000.06        70.07973
1000.45        70.81823
1000.83        67.41065
1001.21        61.76132
1001.59        56.64221
1001.97        54.10457
1002.35        53.98232
1002.73        55.58824
1003.12        58.22444
1003.50         60.2594
1003.88        60.68087
1004.26        59.98809
1004.64        58.67988
1005.02        57.46133
1005.40        56.59863
1005.78        55.78255
1006.16        55.13529
1006.54        55.06614
1006.92        55.51566
1007.30        56.20913
1007.69        56.82426
1008.07        57.17529
1008.45        57.13067
1008.83        56.84373
1009.21        55.74588
1009.59        52.67317
1009.97        47.52254
1010.35        41.12895
1010.73        36.57964
1011.11        36.98798
1011.49        41.89833
1011.86        49.97226
1012.24        57.51059
1012.62        60.89661
1013.00        59.85189
1013.38        55.78863
1013.76        50.53734
1014.14        47.30618
1014.52        47.12724
1014.90        48.96869
1015.28        51.63302
1015.66        53.13395
1016.04        52.72925
1016.41        51.07631
1016.79        48.49614
1017.17        45.96783
1017.55        44.33104
1017.93        43.30386
1018.31        42.91797
1018.69        43.27141
1019.06        44.16981
1019.44        45.38963
1019.82        46.56736
1020.20          46.631
1020.58        45.14059
1020.95        42.49791
1021.33        38.84706
1021.71        33.41818
1022.09        24.91173
1022.46        9.238202
1022.84       -14.06288
1023.22       -22.57169
1023.60       -2.728777
1023.97        21.24743
1024.35        35.26295
1024.73        40.33913
