SpectraSmart Spectrum 2.9.0.0
--------- Device Information -----------
Spectrum Name :  反射率_0
Saving Time :  2024/04/20 01:02:26
Spectro-Module Model Name : SE2030-DUVN
Spectro-Module Serial Number : OS361AC55029948
Wavelength Start : 200
Wavelength End : 1025
Wavelength Unit : Wavelength(nm)
Spectrum Unit : Reflectance(%)
-----------Spectrum Setting ------------
Integration Time : 30ms
Average : 10
Boxcar : 0
Background removal :  enabled
linearity correction :  enabled
SC :  disabled
Intensity correction :  disabled
DWT denoise :  enabled
savitzky-golay :  disabled
FFT :  disabled
Running average :  disabled
Kalman :  disabled
High pass :  disabled
---------------BEGIN--------------------
Wavelength(nm)             Reflectance(%)
200.29               0
200.75        66.11337
201.21        68.07058
201.67        72.12266
202.13        77.78272
202.58        84.53414
203.04         92.4201
203.50        99.42248
203.96          100.75
204.42        96.50961
204.88        89.98299
205.34         84.0591
205.80        79.90024
206.26        76.79109
206.72        73.71088
207.18        70.68158
207.64        69.51012
208.10        71.84354
208.55        77.10258
209.01        81.82043
209.47        83.94828
209.93        83.65737
210.39        81.60308
210.85        78.87825
211.31        76.60358
211.77        74.78724
212.23        73.07077
212.69        70.80724
213.14        67.66888
213.60        64.49876
214.06        62.74617
214.52        62.63064
214.98        64.18766
215.44        67.15829
215.90        71.23106
216.36        76.20023
216.81         80.7135
217.27        83.51688
217.73        85.13963
218.19        84.92872
218.65        82.00934
219.11        76.53305
219.57        68.30959
220.02        59.96248
220.48        58.35081
220.94        65.41495
221.40        79.53718
221.86        95.10497
222.32        103.5785
222.77        103.0804
223.23        96.68511
223.69        88.39262
224.15        84.10143
224.61        84.76828
225.06        87.72497
225.52        91.32127
225.98        94.23245
226.44        96.30424
226.90        98.13084
227.36        99.72461
227.81        100.6439
228.27         100.997
228.73        100.7172
229.19        99.85757
229.65        98.55157
230.10        96.97137
230.56        95.50943
231.02        94.43732
231.48        94.21375
231.93        94.70783
232.39         95.6822
232.85        96.79764
233.31         97.6121
233.77        97.93983
234.22        97.95004
234.68        97.36459
235.14        95.69107
235.60        93.03391
236.05        89.63756
236.51        86.37254
236.97        84.47162
237.43         84.2188
237.88        85.74974
238.34        88.24579
238.80        89.79853
239.26        89.01726
239.71        86.28151
240.17        82.45412
240.63        79.43114
241.08         77.7672
241.54        76.91278
242.00        76.19757
242.46        74.20807
242.91        70.16302
243.37        63.35565
243.83        54.23643
244.28        48.41895
244.74         51.5824
245.20        62.60516
245.66         74.0683
246.11        79.91625
246.57        79.72319
247.03        74.31564
247.48        64.53146
247.94        58.91418
248.40        60.61192
248.85        64.51949
249.31        67.70316
249.77        69.28896
250.22        69.61254
250.68        69.33895
251.14        68.79414
251.59        68.44521
252.05        68.77599
252.51        69.75892
252.96        70.83047
253.42        71.28722
253.88        71.11792
254.33        70.68555
254.79        71.40621
255.25        74.37926
255.70        79.17445
256.16        84.76031
256.62        89.81672
257.07        92.92959
257.53        94.17462
257.99         93.9611
258.44        92.32433
258.90        90.29987
259.35        88.00229
259.81        86.39419
260.27        85.09239
260.72        83.77142
261.18         82.7419
261.63        81.48352
262.09        80.82492
262.55        81.22805
263.00        82.37258
263.46        84.07902
263.91        85.13142
264.37        84.61074
264.83        82.53441
265.28        79.37589
265.74        76.41123
266.19        74.79583
266.65        74.81396
267.11        75.82457
267.56        77.03735
268.02        77.39387
268.47        76.64149
268.93        75.15995
269.38        73.36786
269.84         72.1576
270.30        71.72949
270.75        71.77248
271.21        71.87953
271.66        71.42194
272.12        70.27954
272.57         68.6802
273.03        66.98858
273.48        65.63366
273.94        64.81942
274.39        64.33495
274.85         64.0405
275.31        63.64122
275.76        63.00858
276.22        62.25591
276.67        61.42817
277.13        60.76503
277.58        60.21232
278.04        59.77913
278.49        59.19274
278.95        58.23088
279.40        56.83093
279.86        55.23203
280.31        53.67245
280.77        52.69994
281.22        52.27859
281.68        52.28194
282.13        52.34822
282.59        52.04002
283.04        51.23644
283.50        50.15591
283.95        48.98006
284.41        48.06318
284.86        47.43722
285.32        47.02103
285.77         46.6893
286.22        46.35559
286.68        45.99043
287.13        45.60481
287.59         45.2085
288.04        44.72598
288.50        44.18718
288.95        43.55609
289.41        42.92717
289.86         42.3627
290.32        41.93559
290.77        41.60783
291.22        41.35954
291.68        41.12008
292.13        40.86629
292.59        40.64641
293.04        40.50065
293.50        40.52389
293.95        40.71357
294.40        41.02853
294.86        41.40506
295.31        41.75197
295.77        42.04311
296.22        42.30111
296.68        42.54226
297.13        42.77708
297.58        43.02098
298.04        43.26929
298.49        43.53792
298.95        43.89936
299.40        44.33785
299.85        44.83445
300.31        45.32619
300.76        45.69788
301.21        45.93498
301.67        46.10583
302.12        46.22577
302.58        46.40013
303.03        46.61942
303.48         46.8701
303.94        47.18168
304.39        47.55105
304.84        47.97163
305.30        48.42493
305.75        48.80527
306.20        48.98562
306.66         48.9705
307.11        48.78701
307.57        48.54571
308.02        48.32578
308.47        48.18805
308.93        48.10483
309.38        48.07037
309.83        48.13333
310.29        48.27689
310.74        48.48368
311.19         48.6423
311.65        48.56983
312.10        48.23535
312.55        47.70177
313.00        47.12777
313.46        46.76056
313.91        46.63898
314.36        46.70195
314.82        46.82588
315.27         46.8344
315.72        46.66142
316.18        46.38024
316.63        46.04084
317.08          45.733
317.53        45.48203
317.99        45.24262
318.44        45.01114
318.89        44.77608
319.35        44.53226
319.80        44.29735
320.25        44.05349
320.70        43.76745
321.16        43.43204
321.61        43.06197
322.06        42.69376
322.51        42.39431
322.97        42.16988
323.42        42.00763
323.87        41.85505
324.32         41.6334
324.78        41.31549
325.23        40.94118
325.68         40.5371
326.13        40.15784
326.59        39.82767
327.04        39.55829
327.49         39.3478
327.94        39.19954
328.39        39.10512
328.85        39.03736
329.30         39.0243
329.75        39.04697
330.20        39.08509
330.66        39.10894
331.11        39.08961
331.56        38.92426
332.01        38.60195
332.46        38.15854
332.92        37.67056
333.37        37.29169
333.82         37.0743
334.27        36.99868
334.72        37.03497
335.17        37.12148
335.63        37.21001
336.08        37.31644
336.53        37.42268
336.98        37.51879
337.43        37.59372
337.88        37.64594
338.34        37.60572
338.79          37.416
339.24        37.06475
339.69         36.5813
340.14         36.1301
340.59        35.97982
341.05        36.17025
341.50        36.62498
341.95        37.13139
342.40        37.35711
342.85        37.22776
343.30        36.85179
343.75          36.383
344.20        36.07793
344.66        36.01007
345.11        36.07304
345.56        36.21035
346.01        36.33065
346.46         36.3865
346.91        36.42123
347.36        36.38065
347.81         36.1679
348.26        35.79435
348.72        35.31941
349.17         34.8461
349.62        34.62472
350.07        34.71011
350.52        35.01144
350.97        35.41761
351.42        35.75984
351.87        35.97041
352.32        36.08617
352.77        36.07747
353.22        35.90171
353.67        35.57795
354.13        35.14317
354.58        34.67407
355.03        34.33992
355.48         34.1852
355.93        34.17473
356.38        34.25622
356.83        34.33422
357.28        34.36781
357.73         34.3739
358.18        34.33989
358.63        34.24968
359.08        34.10183
359.53        33.89167
359.98        33.63917
360.43        33.38027
360.88        33.12809
361.33        32.88441
361.78        32.64723
362.23        32.41028
362.68        32.17536
363.13        31.94573
363.58        31.73129
364.03        31.54279
364.48        31.37402
364.93        31.21477
365.38         31.0345
365.83        30.78918
366.28        30.47379
366.73         30.1056
367.18        29.72714
367.63        29.40322
368.08        29.15145
368.53        28.95899
368.98        28.79325
369.43        28.59751
369.88        28.36018
370.33          28.103
370.78        27.85471
371.23        27.66584
371.68         27.5498
372.13        27.47984
372.58        27.44446
373.03        27.42734
373.48        27.41006
373.93        27.39221
374.38        27.33539
374.83        27.18053
375.28        26.92281
375.72        26.57356
376.17        26.21532
376.62        25.94208
377.07        25.78735
377.52        25.72847
377.97        25.72707
378.42        25.71984
378.87        25.68088
379.32        25.61865
379.77        25.54781
380.22        25.48909
380.67        25.44382
381.11        25.40753
381.56        25.33117
382.01         25.1606
382.46        24.89211
382.91        24.54538
383.36        24.20762
383.81        24.00533
384.26        23.96134
384.71        24.04909
385.15        24.15032
385.60        24.08933
386.05        23.83308
386.50        23.43475
386.95         23.0448
387.40         22.9011
387.85        23.04037
388.29        23.36675
388.74        23.70899
389.19        23.81137
389.64        23.62694
390.09        23.23478
390.54        22.78755
390.98        22.52123
391.43        22.51324
391.88        22.66893
392.33        22.85258
392.78        22.87125
393.23        22.69513
393.67        22.38648
394.12        22.08779
394.57        21.91559
395.02        21.89734
395.47        21.98853
395.91        22.11808
396.36        22.14273
396.81        22.03481
397.26        21.83222
397.71        21.62762
398.15        21.53898
398.60        21.60864
399.05        21.77771
399.50        21.93729
399.95         21.9326
400.39        21.73585
400.84        21.39051
401.29        21.01859
401.74         20.8429
402.18        20.93016
402.63        21.20485
403.08        21.51365
403.53        21.61197
403.97        21.44709
404.42        21.10756
404.87        20.73963
405.32        20.58235
405.76        20.68806
406.21        20.97062
406.66        21.29571
407.11        21.45719
407.55         21.4032
408.00        21.20532
408.45        20.94768
408.90        20.72246
409.34        20.60116
409.79        20.64917
410.24        20.78952
410.68        20.81884
411.13        20.71799
411.58        20.59086
412.03        20.47939
412.47        20.42373
412.92        20.43626
413.37        20.48889
413.81        20.57234
414.26        20.69125
414.71        20.82791
415.15        20.99112
415.60        21.10428
416.05        21.07207
416.49        20.88041
416.94        20.56589
417.39        20.23373
417.83        20.05423
418.28        20.07305
418.73        20.23228
419.17        20.43964
419.62        20.53877
420.07         20.4928
420.51        20.35183
420.96        20.17471
421.41        20.03061
421.85         19.9399
422.30        19.89281
422.74        19.87637
423.19        19.90645
423.64        19.96795
424.08        20.06859
424.53        20.16687
424.98        20.21268
425.42        20.19519
425.87        20.14885
426.31        20.08127
426.76        19.97068
427.21        19.83823
427.65        19.77086
428.10        19.79407
428.54        19.82783
428.99        19.87153
429.44        20.06441
429.88        20.28478
430.33        20.18204
430.77        19.82409
431.22        19.62478
431.66        19.64101
432.11        19.73285
432.56        19.87013
433.00          20.143
433.45        20.38185
433.89        20.28104
434.34        19.96659
434.78        19.77161
435.23        19.63921
435.67         20.2766
436.12        19.79232
436.57        19.53886
437.01        19.11176
437.46        18.95917
437.90        19.12507
438.35        19.40051
438.79        19.65116
439.24         19.7773
439.68        19.73581
440.13        19.40333
440.57        18.96935
441.02        19.03556
441.46        19.44799
441.91        19.56877
442.35        18.89332
442.80        18.67555
443.24        18.71571
443.69        18.62632
444.13        18.40726
444.58         18.2645
445.02        18.21926
445.47        18.25893
445.91          18.343
446.36        18.36496
446.80        18.30188
447.24        18.21193
447.69        18.12235
448.13        18.03448
448.58        17.96557
449.02        17.90718
449.47        17.86486
449.91        17.84146
450.36        17.84084
450.80        17.85959
451.25        17.89103
451.69        17.90445
452.13        17.89978
452.58        17.87664
453.02        17.85362
453.47        17.86292
453.91        17.90939
454.36        17.97999
454.80        18.04254
455.24        18.04207
455.69         17.9764
456.13        17.85059
456.58        17.72042
457.02        17.65703
457.46        17.67232
457.91        17.70123
458.35         17.7258
458.79        17.76549
459.24        17.80628
459.68        17.84662
460.13        17.92351
460.57        17.92201
461.01        17.82283
461.46        18.12166
461.90        18.12754
462.34        17.88595
462.79        18.00125
463.23        17.86047
463.68        17.75191
464.12        17.67187
464.56        17.76945
465.01        17.91417
465.45        18.04755
465.89        18.10211
466.34        18.07123
466.78        17.91795
467.22        17.72313
467.67        17.74449
468.11        17.95207
468.55        17.98057
468.99         17.8381
469.44        17.82929
469.88        17.95862
470.32        18.04704
470.77        18.06392
471.21        18.05336
471.65        18.01347
472.10        17.93351
472.54        17.84538
472.98        17.83948
473.42        17.92583
473.87        18.02652
474.31        18.11089
474.75        18.24165
475.20        18.36947
475.64        18.30995
476.08        18.13047
476.52        18.09255
476.97        18.21413
477.41        18.37924
477.85        18.52923
478.29        18.59826
478.74        18.61082
479.18        18.51742
479.62        18.40685
480.06        18.40272
480.50        18.50283
480.95        18.58352
481.39        18.60932
481.83        18.61295
482.27        18.59176
482.72        18.54399
483.16        18.49389
483.60        18.47187
484.04        18.47572
484.48        18.58119
484.93        18.83801
485.37        18.90655
485.81         19.0008
486.25        19.67891
486.69        20.35438
487.14        19.93299
487.58        19.33894
488.02        20.00067
488.46        19.71243
488.90        19.82056
489.34        19.53029
489.79         19.6076
490.23         19.9822
490.67        20.16154
491.11        20.13559
491.55         20.0902
491.99        20.05514
492.43        20.02019
492.88        20.00663
493.32        19.99414
493.76        20.01321
494.20        20.12962
494.64        20.34893
495.08        20.64355
495.52        20.95108
495.96        21.18964
496.41        21.33753
496.85        21.37572
497.29        21.35634
497.73        21.46616
498.17        21.69319
498.61        21.79536
499.05        21.78134
499.49        21.88744
499.93         22.1236
500.37         22.3039
500.82        22.42554
501.26        22.66597
501.70        22.96627
502.14        23.01995
502.58         22.8685
503.02        22.84035
503.46        22.96045
503.90        23.05775
504.34        23.10427
504.78        23.13194
505.22        23.13571
505.66        23.11492
506.10        23.09566
506.54        23.11483
506.98        23.18349
507.42        23.29571
507.86        23.42891
508.30        23.54539
508.74         23.6312
509.18        23.68809
509.62        23.74031
510.06        23.82691
510.50        23.95476
510.94        24.11633
511.38        24.25833
511.82        24.29552
512.26        24.21558
512.70        24.04506
513.14        23.87562
513.58        23.84785
514.02        23.98189
514.46        24.23535
514.90        24.50549
515.34        24.56405
515.78        24.41202
516.22        24.17213
516.66        23.96423
517.10        23.64066
517.54        23.24118
517.98        23.82761
518.42        23.76271
518.86        24.04592
519.30        24.16627
519.74        24.29045
520.18        24.39302
520.62        24.41129
521.06        24.35837
521.50        24.23378
521.93        24.07189
522.37        23.94146
522.81        23.86316
523.25        23.82654
523.69        23.81901
524.13        23.81678
524.57        23.80904
525.01        23.79991
525.45        23.79163
525.89        23.78572
526.32        23.77991
526.76        23.77359
527.20        23.74903
527.64        23.68495
528.08        23.57974
528.52        23.43841
528.96        23.29911
529.40        23.21835
529.83        23.20559
530.27          23.253
530.71        23.30333
531.15          23.267
531.59        23.13024
532.03        22.92216
532.46         22.7158
532.90        22.64363
533.34        22.72023
533.78         22.8976
534.22        23.09054
534.66        23.16895
535.09        23.09894
535.53        22.93219
535.97        22.72524
536.41        22.56441
536.85        22.48026
537.28        22.45822
537.72        22.48807
538.16        22.48412
538.60        22.54398
539.04        22.58036
539.47        22.61482
539.91        22.68752
540.35        22.81209
540.79        22.78139
541.22        22.88743
541.66        22.96634
542.10        23.12357
542.54        22.98785
542.97         23.1743
543.41        23.26435
543.85        23.42428
544.29        23.59005
544.72        23.72556
545.16        23.84396
545.60        23.93436
546.04        23.92439
546.47        23.89438
546.91        24.12143
547.35        24.54853
547.79        24.85309
548.22        24.98911
548.66        25.05581
549.10        25.09727
549.53        25.28489
549.97        25.62306
550.41        25.65149
550.84        25.84231
551.28         25.9445
551.72        26.12363
552.15        26.32747
552.59        26.55856
553.03        26.81666
553.46        27.05722
553.90        27.24052
554.34        27.35501
554.77        27.41319
555.21         27.4516
555.65        27.51627
556.08        27.61555
556.52        27.73202
556.96        27.85036
557.39        27.98202
557.83        28.11142
558.27        28.17317
558.70        28.17771
559.14        28.19769
559.57        28.23275
560.01        28.28122
560.45        28.33037
560.88          28.325
561.32        28.32223
561.75        28.39533
562.19        28.63476
562.63        28.77439
563.06        28.82966
563.50        28.88667
563.93        28.94793
564.37        29.07157
564.80        29.12638
565.24        29.22649
565.68        29.31362
566.11        29.39838
566.55         29.5021
566.98        29.57083
567.42        29.59603
567.85        29.94311
568.29        29.84163
568.72        30.18944
569.16        30.67304
569.60        31.03862
570.03        31.13476
570.47        31.28539
570.90        31.33394
571.34        31.60283
571.77        31.38993
572.21        31.78219
572.64        32.01078
573.08        32.21546
573.51         32.2912
573.95        32.79533
574.38        33.28628
574.82        33.39644
575.25        33.56266
575.69        33.27633
576.12        33.12835
576.56        33.03938
576.99        33.15179
577.42        33.42458
577.86        33.48714
578.29        33.45273
578.73        34.20296
579.16        33.72064
579.60         33.4853
580.03        32.97728
580.47        33.18121
580.90        32.99851
581.33        32.95513
581.77        32.95077
582.20        33.69668
582.64        33.33647
583.07        32.70193
583.51        32.46445
583.94        32.04927
584.37         31.9042
584.81        31.60576
585.24        31.61808
585.68        31.77202
586.11        31.75113
586.54        31.60946
586.98        31.43691
587.41        31.31674
587.85        31.24417
588.28         31.2031
588.71        31.13302
589.15        31.08735
589.58        30.60092
590.01        30.76864
590.45        30.98939
590.88        30.87742
591.31        30.75123
591.75         30.4266
592.18        30.58669
592.61         30.5527
593.05         30.8897
593.48        30.78823
593.91        31.58046
594.35        31.22922
594.78        31.07493
595.21        31.45862
595.65        31.64451
596.08        31.97012
596.51        31.97154
596.94        31.82817
597.38        31.87933
597.81        32.16966
598.24        32.50549
598.68        33.01105
599.11         33.0058
599.54        34.18679
599.97        34.06289
600.41         33.9324
600.84        34.75079
601.27        35.11197
601.70        35.56203
602.14        35.70699
602.57        36.19986
603.00        37.02102
603.43        37.56906
603.87        37.83522
604.30        38.28994
604.73        38.98628
605.16        39.06403
605.60        39.73408
606.03        40.20678
606.46        40.69476
606.89        41.42247
607.32        42.24834
607.76        42.17602
608.19        42.63691
608.62        43.57768
609.05        43.52618
609.48        43.66842
609.92        44.19026
610.35        44.07577
610.78        45.16753
611.21        46.01156
611.64        45.74678
612.07        46.20948
612.50        46.80987
612.94        46.68183
613.37        47.31533
613.80        47.75595
614.23        47.93513
614.66         48.5124
615.09         48.9087
615.52        49.40491
615.96         49.7461
616.39        50.14282
616.82        50.69757
617.25        50.14114
617.68        50.78154
618.11        51.23518
618.54        51.76525
618.97         51.9775
619.40        51.80381
619.84        51.87534
620.27        51.65125
620.70        52.09147
621.13        52.82312
621.56        53.20576
621.99        52.86839
622.42        52.95565
622.85         53.4053
623.28        53.65572
623.71        53.62049
624.14        54.08471
624.57        53.39893
625.00        53.52129
625.43        53.73503
625.86        52.93814
626.29        52.99825
626.72        52.98031
627.15        52.65133
627.58        52.59661
628.01        52.49312
628.44        52.53154
628.87        52.04978
629.30        51.62612
629.73        51.20263
630.16        50.72373
630.59        50.68282
631.02        50.26078
631.45        49.70879
631.88        49.23992
632.31        48.88512
632.74        48.45741
633.17        47.93307
633.60        47.37597
634.03        46.78765
634.46        46.15923
634.89        45.51284
635.32        44.88276
635.75        44.28658
636.18        43.73112
636.61        43.21251
637.04        42.71399
637.47        42.22616
637.89        41.75185
638.32        41.29298
638.75        40.87498
639.18        40.50262
639.61        40.18349
640.04        39.87794
640.47        39.49618
640.90         39.0426
641.33        38.59637
641.76        38.21193
642.18        37.93211
642.61        37.76973
643.04        37.72872
643.47        37.75754
643.90        37.75346
644.33        37.69262
644.76        37.61144
645.18         37.5369
645.61        37.51568
646.04        37.56454
646.47        37.66187
646.90         37.8225
647.33        38.07265
647.75        38.41209
648.18        38.83435
648.61        39.28378
649.04         39.6764
649.47        40.00433
649.89        40.25583
650.32        40.51223
650.75         41.0123
651.18        41.74088
651.61        42.37747
652.03        42.91474
652.46        43.69851
652.89        44.69602
653.32        45.31009
653.74        45.53889
654.17        46.43895
654.60        46.75007
655.03        47.69361
655.46        47.36396
655.88        49.80059
656.31        50.96415
656.74        60.51665
657.16        57.30789
657.59        52.20308
658.02        52.44986
658.45        52.65522
658.87        53.73759
659.30        54.31055
659.73        55.19055
660.15        55.95947
660.58        56.10064
661.01        56.04073
661.44        55.80389
661.86        56.08731
662.29        56.88136
662.72        57.83289
663.14        58.71769
663.57         59.0251
664.00        58.89657
664.42        59.10088
664.85        59.69823
665.27        60.22684
665.70        60.63577
666.13        60.71143
666.55        61.16265
666.98        61.35835
667.41        61.54465
667.83        61.75861
668.26        62.00942
668.69        62.28793
669.11        62.56923
669.54        62.82819
669.96        63.06204
670.39        63.27838
670.82        63.49251
671.24        63.72879
671.67         63.9872
672.09        64.22993
672.52        64.44927
672.94        64.67834
673.37         64.8937
673.80        64.96294
674.22        64.94324
674.65        65.02009
675.07        65.22572
675.50        65.46005
675.92        65.67727
676.35        65.80479
676.77        65.83456
677.20        65.79597
677.62         65.7578
678.05        65.83334
678.47        66.03825
678.90        66.34832
679.32        66.70318
679.75        66.96611
680.17        67.10957
680.60        67.27538
681.02        67.46838
681.45        67.47366
681.87        67.37836
682.30        67.57925
682.72        68.01969
683.15        68.16812
683.57        68.05988
684.00         68.1066
684.42          68.436
684.85         68.6742
685.27        68.84846
685.70        69.11835
686.12        69.39353
686.54        69.58721
686.97        69.69978
687.39        69.53197
687.82        69.17111
688.24        69.69675
688.66        70.07836
689.09        70.24474
689.51        69.96815
689.94        70.01009
690.36        70.31294
690.78        70.55263
691.21        70.67593
691.63        70.72884
692.06        71.14603
692.48        71.02364
692.90        71.12171
693.33        71.60448
693.75         71.4383
694.17        71.61532
694.60        71.75456
695.02         71.7534
695.44         71.6099
695.87        71.69302
696.29        71.96301
696.71        71.78027
697.14        71.45558
697.56        71.88071
697.98        72.70696
698.41        74.37444
698.83        73.41416
699.25        73.30939
699.68        73.22407
700.10        73.17733
700.52        73.21969
700.94         73.4015
701.37        73.66331
701.79        73.88168
702.21         73.9984
702.64        74.02586
703.06        74.05775
703.48        74.17771
703.90        74.41895
704.33        74.74076
704.75        75.04337
705.17        75.12492
705.59        74.95119
706.01        74.61684
706.44        74.27003
706.86        74.24389
707.28        74.57384
707.70        75.19115
708.12        75.88922
708.55        76.25488
708.97        76.25053
709.39        76.17986
709.81        76.11469
710.23        76.03625
710.66        75.92826
711.08        75.93237
711.50        76.01471
711.92        76.11872
712.34        76.23694
712.76        76.40457
713.19        76.59176
713.61        76.78323
714.03          76.967
714.45        77.11339
714.87        77.24483
715.29        77.39783
715.71        77.58398
716.13        77.76937
716.56         77.9066
716.98         78.0703
717.40        78.23833
717.82        78.14847
718.24        78.31821
718.66        78.28114
719.08          78.347
719.50        78.37601
719.92        78.41232
720.34        78.42577
720.76        78.41585
721.19        78.41785
721.61        78.44359
722.03         78.4327
722.45        78.40668
722.87        78.41031
723.29        78.48624
723.71        78.48982
724.13        78.73724
724.55        78.97003
724.97        79.25845
725.39        79.53532
725.81         79.7579
726.23        80.00031
726.65        80.28363
727.07         80.3473
727.49        80.34015
727.91        80.89339
728.33        80.68592
728.75        80.78433
729.17        80.78705
729.59        80.75018
730.01        80.70164
730.43        80.71285
730.85        80.81024
731.27        80.95704
731.69        81.13872
732.10        81.32867
732.52        81.49246
732.94        81.66565
733.36        81.78777
733.78        81.77113
734.20        81.71573
734.62        81.67678
735.04         81.5291
735.46        82.20723
735.88        81.64039
736.30        81.35788
736.72        81.22353
737.13        81.50791
737.55        82.12431
737.97        82.68329
738.39        82.99416
738.81        82.64426
739.23        81.92549
739.65        81.97187
740.06        82.61688
740.48        83.00529
740.90        83.06394
741.32        82.00124
741.74        81.91223
742.16        81.99683
742.57        82.13329
742.99        82.63971
743.41        83.13512
743.83        83.44447
744.25        83.47382
744.67        83.29878
745.08        83.02192
745.50         82.7657
745.92        82.60555
746.34        82.48991
746.75        82.44882
747.17        82.50359
747.59        82.64857
748.01        83.00029
748.42        83.44698
748.84        83.55315
749.26        83.40878
749.68        83.43893
750.09        83.69202
750.51        84.12158
750.93        84.51497
751.35        84.38774
751.76        83.86843
752.18         83.5107
752.60        83.30241
753.01         83.8965
753.43         83.3669
753.85        83.50679
754.27        83.74504
754.68        84.09161
755.10        84.42628
755.52        84.53857
755.93        84.44989
756.35        84.36148
756.77        84.35077
757.18        84.37357
757.60        84.48836
758.02        84.72957
758.43         84.9678
758.85        85.11813
759.26        85.52583
759.68          85.003
760.10        84.59348
760.51        85.10753
760.93        85.33531
761.34        84.08604
761.76        84.95574
762.18        84.38105
762.59        83.92284
763.01        83.39826
763.42        84.73257
763.84        85.43451
764.26        85.79739
764.67        85.54057
765.09        85.05007
765.50        85.45499
765.92        86.56881
766.33        87.16608
766.75        86.95976
767.16        86.21935
767.58        85.21806
768.00        84.67812
768.41        84.84142
768.83        85.39648
769.24        86.08931
769.66        86.70251
770.07        87.02238
770.49        86.65126
770.90        86.05502
771.32        86.02799
771.73        86.58031
772.15        86.85854
772.56        86.75828
772.97        86.37926
773.39        85.82357
773.80        85.72724
774.22        85.95792
774.63        85.65717
775.05        84.97098
775.46        84.89616
775.88        85.47014
776.29        86.25578
776.70        86.93047
777.12        87.18018
777.53        86.91457
777.95        86.19143
778.36         85.3787
778.77        85.09505
779.19        85.48663
779.60        86.43043
780.02        87.47173
780.43        88.09875
780.84        88.16986
781.26        87.31958
781.67        86.10745
782.09        86.75535
782.50        88.75827
782.91        88.83105
783.33        87.13244
783.74        86.62466
784.15        87.39436
784.57        87.90318
784.98        87.90385
785.39        87.35323
785.81        86.44489
786.22        86.09218
786.63        86.31765
787.04         86.3889
787.46        86.32477
787.87        86.50979
788.28        86.86739
788.70         87.5577
789.11        87.56561
789.52         87.8018
789.93        87.98459
790.35        88.01694
790.76        87.94669
791.17        87.99624
791.58        88.14987
792.00        88.04639
792.41        87.70559
792.82        87.58041
793.23        87.53898
793.65        87.10482
794.06        86.74181
794.47        86.98704
794.88        87.28059
795.29        90.46201
795.71        88.79882
796.12         88.1338
796.53        88.90147
796.94        88.23171
797.35        87.24471
797.76        86.77889
798.18        87.77709
798.59        88.32488
799.00        88.53366
799.41        88.21246
799.82        88.46672
800.23        88.49016
800.64        88.60399
801.06        88.59545
801.47        88.53815
801.88        88.56596
802.29         88.6597
802.70        88.79035
803.11        88.92126
803.52         88.7003
803.93        88.56868
804.34        88.35627
804.75        88.16263
805.17        87.81904
805.58        87.51681
805.99        87.30334
806.40        87.33209
806.81         88.4875
807.22        90.18386
807.63        90.21757
808.04        88.57307
808.45        88.12004
808.86        89.02354
809.27        90.01955
809.68        90.77306
810.09        91.22517
810.50        91.23752
810.91        90.83829
811.32        90.26582
811.73        89.95305
812.14        89.89112
812.55        89.77876
812.96        89.53968
813.37        88.96183
813.78         88.2916
814.19          88.469
814.60        89.29697
815.01        89.62359
815.42        89.36773
815.83        89.14878
816.24         89.1015
816.65        89.15423
817.05        89.35245
817.46        89.66081
817.87        89.96745
818.28        90.04382
818.69         89.8682
819.10        89.51729
819.51        89.14807
819.92         89.1303
820.33        89.56264
820.74        90.05913
821.14        90.53796
821.55        91.44279
821.96        92.42568
822.37        92.16788
822.78        90.89644
823.19        90.23838
823.60        90.36423
824.00        90.41061
824.41        90.23492
824.82        90.14365
825.23        90.12911
825.64        90.16686
826.04        90.22861
826.45        90.25325
826.86        90.25405
827.27        90.07259
827.68        89.84895
828.08        90.26722
828.49        91.11823
828.90        91.40682
829.31        91.09122
829.72        91.01324
830.12        91.21848
830.53        91.13719
830.94        90.80674
831.35        90.51817
831.75        90.33327
832.16        90.14188
832.57        90.00787
832.97        90.01276
833.38        90.13177
833.79        90.33859
834.20        90.57742
834.60         90.7404
835.01        90.81445
835.42        90.85084
835.82        90.81093
836.23        90.57024
836.64        90.16617
837.04        89.62881
837.45        89.18495
837.86        89.25553
838.26        89.92628
838.67        91.03719
839.08         92.2187
839.48        92.76798
839.89        92.49281
840.29        91.64398
840.70        90.67085
841.11        90.14721
841.51        90.24198
841.92        90.70563
842.33        91.42418
842.73        92.20791
843.14        92.81844
843.54        93.38802
843.95        93.70589
844.35        93.51824
844.76        92.83338
845.17        91.77247
845.57        90.64584
845.98        89.96897
846.38        89.86676
846.79        90.19878
847.19        90.87735
847.60        91.54457
848.00        92.11149
848.41        92.57912
848.81         92.9637
849.22        93.20815
849.62        93.36284
850.03        93.34743
850.43        93.25318
850.84        93.12572
851.24        93.07982
851.65        93.05299
852.05         93.1078
852.46        93.24058
852.86        93.44812
853.27        93.61588
853.67        93.67101
854.07        93.97165
854.48        94.32752
854.88        94.05633
855.29        93.22539
855.69        92.80834
856.10        92.82069
856.50        92.88644
856.90        92.85552
857.31        92.73402
857.71         92.5759
858.12        92.33902
858.52        92.13468
858.92        92.00731
859.33        91.95023
859.73        91.99557
860.13        92.13779
860.54        92.37685
860.94        92.76199
861.34        93.20497
861.75        93.55415
862.15        93.68727
862.55        93.52494
862.96        93.13495
863.36        92.61424
863.76        92.08533
864.17        91.62968
864.57        91.26908
864.97        91.08215
865.38        91.15155
865.78        91.53173
866.18        92.12827
866.58        92.78853
866.99        93.22757
867.39        93.39562
867.79        93.29874
868.19        92.92033
868.60        92.23624
869.00        91.26649
869.40        90.07214
869.80        88.93588
870.21        88.32846
870.61        88.43114
871.01        89.06784
871.41        89.89289
871.81        90.32629
872.22        90.22249
872.62        89.78328
873.02        89.18836
873.42        88.82082
873.82        88.72487
874.22         88.5769
874.63        88.47859
875.03        88.74512
875.43        89.35098
875.83        90.52508
876.23        91.09151
876.63        91.27601
877.03        90.84279
877.44        89.78611
877.84        109.9813
878.24         88.9059
878.64        89.22305
879.04        90.59484
879.44        89.46543
879.84        88.49015
880.24        89.42607
880.64        88.74464
881.04        86.83085
881.44        85.68971
881.84        85.76666
882.24        86.69375
882.65        87.87268
883.05        88.39649
883.45        87.93214
883.85        86.89731
884.25        85.86355
884.65        85.56624
885.05        86.17726
885.45        87.44492
885.85        88.88511
886.25        89.69504
886.65        89.63943
887.05        88.97421
887.45        88.13081
887.85        87.74986
888.25        88.00219
888.65        88.70083
889.04        89.55109
889.44        89.95699
889.84        89.78951
890.24        89.21954
890.64        88.56142
891.04        88.27444
891.44         88.4248
891.84        88.81709
892.24        89.14803
892.64        88.91975
893.04        88.06596
893.44        86.89231
893.83        85.62346
894.23        84.60239
894.63        83.92294
895.03        83.47591
895.43        83.41253
895.83        83.99213
896.23        85.17761
896.63        86.84737
897.02        88.54172
897.42        89.39485
897.82        89.20486
898.22        88.21339
898.62        86.84164
899.01        85.76203
899.41        85.24088
899.81        85.08225
900.21        85.22993
900.61        85.58907
901.00        86.07353
901.40        86.70139
901.80        87.34122
902.20        87.73042
902.59        87.81594
902.99        87.64288
903.39        87.28204
903.79        86.88058
904.18        86.50442
904.58         86.1449
904.98        85.94989
905.38        86.15289
905.77        86.74465
906.17        87.67592
906.57        88.58204
906.96        88.91111
907.36        88.51961
907.76        87.55033
908.15        86.44126
908.55        85.84682
908.95        85.94676
909.34        86.60247
909.74        87.33945
910.14        87.34605
910.53        86.43961
910.93        84.97473
911.33         83.5712
911.72        83.19287
912.12        83.99951
912.52        85.56623
912.91        87.32651
913.31         88.3566
913.70        88.46687
914.10         87.9183
914.49        86.93002
914.89         85.9828
915.29        85.33881
915.68        84.86296
916.08        84.68279
916.47        84.93345
916.87          85.558
917.26        86.50327
917.66        87.46693
918.05        87.97649
918.45        87.87571
918.84        87.33089
919.24        86.48006
919.64        85.59013
920.03        84.80833
920.42        84.11044
920.82        83.68975
921.21        83.77509
921.61        84.33365
922.00        85.34084
922.40        86.42326
922.79        87.19683
923.19        87.46897
923.58        87.21883
923.98        86.57195
924.37        86.04616
924.77        85.91945
925.16        84.59602
925.55        84.82042
925.95        84.25393
926.34        83.79122
926.74        83.38418
927.13        83.26508
927.52        83.63341
927.92        84.45454
928.31        85.70367
928.70        86.98602
929.10        87.61595
929.49         87.4175
929.89        86.56147
930.28        85.51836
930.67        85.06153
931.07        85.36391
931.46        86.22653
931.85        87.25817
932.24        87.88713
932.64        87.93844
933.03        87.54564
933.42        86.89153
933.82        86.37356
934.21        86.11703
934.60        86.03145
934.99         85.8462
935.39        85.29297
935.78        84.33762
936.17        82.81404
936.56        80.94407
936.96        81.24724
937.35        81.07277
937.74        82.43208
938.13        83.88898
938.53        84.89433
938.92        85.38943
939.31        85.55345
939.70        85.51878
940.09        85.45803
940.49        85.46846
940.88        85.51015
941.27        85.61443
941.66        85.87659
942.05        86.29144
942.44        86.81507
942.84        87.39075
943.23        87.94798
943.62        88.40764
944.01        88.80589
944.40        88.99136
944.79        88.73405
945.18        88.01282
945.57        86.85862
945.97        85.66718
946.36        85.15286
946.75        85.52271
947.14        86.53562
947.53        87.63309
947.92        88.02334
948.31         87.5768
948.70         86.5682
949.09        85.36305
949.48        84.60912
949.87        84.51981
950.26        84.85246
950.65        85.45462
951.04        86.08441
951.43        86.59221
951.82        87.05063
952.21        87.28442
952.60        87.00301
952.99        86.21247
953.38        85.02744
953.77        83.77502
954.16        82.99044
954.55        82.81364
954.94        83.10972
955.33        83.69347
955.72         84.2263
956.11        84.59328
956.50        84.91208
956.89        85.16679
957.28        85.32805
957.66        85.40483
958.05        85.28238
958.44        85.13798
958.83        85.24647
959.22         85.6238
959.61        86.21609
960.00        86.69731
960.39        86.47311
960.78        85.44286
961.16        83.82504
961.55        82.17384
961.94        81.18859
962.33        81.05103
962.72        81.57396
963.11        82.42905
963.49        83.06089
963.88        83.17422
964.27         82.9501
964.66        82.60732
965.04        82.51363
965.43        82.75492
965.82        83.22085
966.21        83.67636
966.60        83.76607
966.98        83.44347
967.37        82.81686
967.76        82.24655
968.15        82.27729
968.53        83.01114
968.92        84.15138
969.31        85.31475
969.69        85.86056
970.08        85.55296
970.47        84.66848
970.86        83.39597
971.24         82.0147
971.63        80.75344
972.02        79.58041
972.40         78.7401
972.79        78.64145
973.17        79.37786
973.56        80.72688
973.95        82.39703
974.33        83.81136
974.72        84.59837
975.11        84.88466
975.49        84.63312
975.88        83.82691
976.26        82.59637
976.65        81.04139
977.04        79.49844
977.42        78.56467
977.81        78.42598
978.19        78.93514
978.58        79.97157
978.96        81.33596
979.35        82.75636
979.74        84.32532
980.12        85.63634
980.51        85.73528
980.89        84.62716
981.28        82.57689
981.66        80.43329
982.05        79.42379
982.43        79.71573
982.82        80.97741
983.20        82.66402
983.59        83.45531
983.97         83.0621
984.35         81.7569
984.74        80.21062
985.12        79.38676
985.51        79.53945
985.89        80.42548
986.28        81.50785
986.66        81.91589
987.04        81.27651
987.43         80.0603
987.81        78.71321
988.20        77.77122
988.58        77.29543
988.96        77.11648
989.35        77.13737
989.73         77.3171
990.12        77.50313
990.50        77.87187
990.88        78.26468
991.27        78.52738
991.65        78.74061
992.03        78.87061
992.42        79.11921
992.80        79.88152
993.18        81.14231
993.56        82.64371
993.95        83.88634
994.33        84.51112
994.71        84.33219
995.10        83.50568
995.48        82.34506
995.86        81.24763
996.24        80.37439
996.63        79.70199
997.01        79.10184
997.39        78.30907
997.77        77.36921
998.15        76.44215
998.54         76.0185
998.92        76.62698
999.30        78.41714
999.68        81.55835
1000.06        85.24876
1000.45        86.48952
1000.83        84.15295
1001.21        79.60902
1001.59        75.29358
1001.97        73.11903
1002.35        72.98894
1002.73        74.33875
1003.12        76.42868
1003.50        77.76208
1003.88        77.43216
1004.26        75.96267
1004.64        74.13782
1005.02        73.02486
1005.40        72.92802
1005.78        73.52359
1006.16        74.48294
1006.54        75.17326
1006.92        75.30286
1007.30        75.06765
1007.69        74.78486
1008.07        74.93179
1008.45        75.58549
1008.83        76.82777
1009.21        78.31205
1009.59        78.49254
1009.97        76.15874
1010.35        71.63261
1010.73        67.15363
1011.11         65.4068
1011.49        66.55331
1011.86        69.91881
1012.24        73.24503
1012.62        74.47807
1013.00        73.45467
1013.38        70.95492
1013.76        68.25763
1014.14        67.59771
1014.52        69.49938
1014.90        73.05235
1015.28        76.95354
1015.66        79.13866
1016.04        78.84025
1016.41        76.60065
1016.79        72.50656
1017.17        67.81364
1017.55        63.94278
1017.93        61.05064
1018.31        59.57355
1018.69        59.77791
1019.06        61.39322
1019.44         64.2142
1019.82        67.67581
1020.20        69.95922
1020.58        70.09752
1020.95        68.38202
1021.33        65.38518
1021.71         61.4499
1022.09        56.04116
1022.46        46.51131
1022.84        32.20943
1023.22        26.17487
1023.60        37.02338
1023.97        50.91327
1024.35        59.18608
1024.73        62.04365
