SpectraSmart Spectrum 2.9.0.0
--------- Device Information -----------
Spectrum Name :  反射率_0
Saving Time :  2024/04/20 00:43:34
Spectro-Module Model Name : SE2030-DUVN
Spectro-Module Serial Number : OS361AC55029948
Wavelength Start : 200
Wavelength End : 1025
Wavelength Unit : Wavelength(nm)
Spectrum Unit : Reflectance(%)
-----------Spectrum Setting ------------
Integration Time : 30ms
Average : 10
Boxcar : 0
Background removal :  enabled
linearity correction :  enabled
SC :  disabled
Intensity correction :  disabled
DWT denoise :  enabled
savitzky-golay :  disabled
FFT :  disabled
Running average :  disabled
Kalman :  disabled
High pass :  disabled
---------------BEGIN--------------------
Wavelength(nm)             Reflectance(%)
200.29               0
200.75        58.43597
201.21        59.45374
201.67        62.72554
202.13        68.28903
202.58        75.83642
203.04        85.85718
203.50        94.78308
203.96        94.51414
204.42        85.74885
204.88        74.16402
205.34        64.68245
205.80        59.48447
206.26        57.61633
206.72        58.16052
207.18        61.19053
207.64        65.14919
208.10        67.67816
208.55        69.06491
209.01        69.15096
209.47        69.23626
209.93        69.49961
210.39        69.27193
210.85        68.61185
211.31        67.67775
211.77        66.35067
212.23        64.67216
212.69        62.26664
213.14        59.35979
213.60        56.82052
214.06        55.55086
214.52        55.54778
214.98        56.73265
215.44        58.89961
215.90        61.88607
216.36         65.5156
216.81        68.72717
217.27        70.60899
217.73        71.54462
218.19        71.14694
218.65        68.92316
219.11        64.94151
219.57         58.9185
220.02        52.54964
220.48        50.73296
220.94        54.76206
221.40        63.77724
221.86        73.59207
222.32        77.77399
222.77        75.11528
223.23        67.99747
223.69        60.44878
224.15        58.24644
224.61        61.51597
225.06        67.15442
225.52        72.49372
225.98        75.34206
226.44        75.70822
226.90        74.68578
227.36        73.00252
227.81        71.72186
228.27        71.57112
228.73        71.95457
229.19        72.68996
229.65        73.64526
230.10        74.59293
230.56        75.61275
231.02        76.50176
231.48        77.06829
231.93        77.22052
232.39        77.05571
232.85        76.51414
233.31        75.57803
233.77        74.30177
234.22        72.75984
234.68        71.08879
235.14         69.4662
235.60        68.06811
236.05        66.96844
236.51        66.28482
236.97        66.10821
237.43        66.46884
237.88        67.59711
238.34        69.21181
238.80        70.90429
239.26        72.04131
239.71        72.30472
240.17        71.68346
240.63        70.93939
241.08        70.35914
241.54        69.85894
242.00        68.67985
242.46        65.13334
242.91        58.20963
243.37        46.37433
243.83        30.42232
244.28        20.36598
244.74        26.38135
245.20        46.66648
245.66        67.42248
246.11         76.9399
246.57        74.55128
247.03        61.46904
247.48        40.40502
247.94        30.48351
248.40         37.2175
248.85        48.08277
249.31        56.59743
249.77        61.20423
250.22        62.98025
250.68         63.5668
251.14        63.41162
251.59        62.83052
252.05        62.36474
252.51        61.91117
252.96        61.40759
253.42        61.24906
253.88        61.59555
254.33        62.30197
254.79        64.37717
255.25        68.51773
255.70        74.17335
256.16        80.47926
256.62        85.72967
257.07        88.03334
257.53        87.68861
257.99        85.48412
258.44        82.33434
258.90        80.27292
259.35        79.07703
259.81        78.80791
260.27        78.53022
260.72         77.4826
261.18        76.03694
261.63        74.01526
262.09        72.37225
262.55        71.78381
263.00        72.10379
263.46        73.10996
263.91        73.73023
264.37        73.13908
264.83        71.30929
265.28        68.60747
265.74        66.13375
266.19        64.86069
266.65        64.99401
267.11        65.96352
267.56        66.99131
268.02        67.00735
268.47        65.79787
268.93        63.75259
269.38        61.38995
269.84        59.78338
270.30        59.20008
270.75        59.30743
271.21        59.62018
271.66        59.39096
272.12        58.43925
272.57        56.99865
273.03        55.44679
273.48        54.25144
273.94        53.59887
274.39        53.26801
274.85        53.02703
275.31        52.47951
275.76        51.52273
276.22        50.33244
276.67        49.11996
277.13         48.3369
277.58        47.96791
278.04        47.90525
278.49        47.77176
278.95        47.15478
279.40        45.96111
279.86        44.48616
280.31        42.98093
280.77        41.97771
281.22        41.47942
281.68        41.34016
282.13        41.32411
282.59          41.161
283.04        40.74723
283.50        40.22852
283.95         39.6152
284.41        38.98279
284.86         38.3381
285.32        37.69408
285.77        37.10938
286.22        36.76698
286.68        36.68375
287.13        36.76941
287.59        36.89801
288.04        36.82864
288.50        36.53828
288.95         36.0545
289.41        35.50645
289.86        35.01057
290.32        34.66349
290.77        34.41969
291.22        34.26056
291.68        34.12354
292.13         33.9961
292.59        33.92519
293.04        33.97476
293.50         34.2627
293.95        34.77998
294.40        35.46426
294.86        36.19628
295.31        36.80148
295.77        37.23871
296.22         37.5612
296.68        37.83332
297.13        38.14555
297.58        38.54195
298.04        38.99467
298.49        39.51411
298.95        40.16005
299.40         40.9047
299.85        41.73062
300.31        42.54309
300.76        43.17936
301.21        43.61616
301.67        43.93375
302.12        44.18725
302.58        44.53971
303.03        45.00048
303.48         45.5452
303.94        46.17488
304.39        46.84167
304.84        47.52678
305.30        48.21916
305.75        48.84556
306.20        49.32839
306.66        49.67046
307.11        49.87059
307.57        49.97764
308.02        49.98067
308.47        49.92978
308.93        49.83455
309.38        49.75359
309.83        49.83502
310.29         50.0882
310.74        50.46524
311.19        50.81739
311.65        50.90144
312.10        50.66404
312.55        50.18437
313.00        49.63532
313.46        49.28462
313.91        49.17817
314.36        49.24914
314.82        49.36064
315.27        49.31934
315.72        49.06141
316.18        48.67408
316.63        48.24014
317.08        47.89585
317.53        47.67494
317.99        47.51927
318.44        47.38791
318.89        47.20689
319.35        46.95209
319.80        46.65297
320.25        46.32607
320.70         45.9966
321.16        45.66843
321.61        45.33643
322.06        44.99377
322.51         44.6386
322.97        44.26351
323.42        43.88339
323.87        43.49446
324.32        43.09514
324.78        42.68154
325.23        42.27404
325.68        41.86848
326.13         41.4663
326.59        41.07354
327.04        40.71846
327.49        40.41384
327.94        40.18592
328.39        40.03157
328.85        39.91017
329.30        39.84114
329.75        39.79358
330.20        39.74559
330.66        39.67714
331.11        39.56268
331.56        39.30193
332.01        38.88438
332.46        38.33946
332.92        37.75599
333.37        37.30901
333.82        37.05391
334.27        36.97091
334.72        36.99327
335.17        36.99489
335.63        36.91867
336.08        36.80162
336.53        36.69399
336.98         36.6991
337.43        36.82955
337.88        37.04369
338.34        37.19708
338.79        37.11235
339.24        36.73783
339.69        36.13176
340.14        35.49585
340.59        35.16632
341.05        35.21317
341.50        35.54787
341.95        35.94735
342.40        36.06063
342.85        35.81253
343.30        35.32692
343.75        34.78019
344.20        34.46058
344.66        34.44036
345.11        34.58805
345.56        34.81578
346.01        34.98446
346.46        35.03268
346.91        35.02424
347.36        34.90167
347.81        34.56466
348.26        34.03432
348.72        33.36823
349.17         32.7279
349.62        32.46214
350.07        32.63705
350.52         33.1283
350.97        33.72535
351.42        34.10688
351.87        34.17857
352.32        34.02914
352.77        33.71964
353.22        33.35485
353.67        32.99476
354.13        32.62889
354.58         32.2807
355.03        32.03432
355.48        31.90648
355.93        31.89059
356.38        31.94957
356.83        32.00954
357.28        32.03598
357.73        32.02879
358.18        31.97585
358.63        31.86803
359.08        31.70503
359.53        31.48874
359.98         31.2263
360.43        30.92943
360.88        30.61255
361.33        30.28802
361.78        29.98625
362.23        29.75334
362.68        29.59715
363.13        29.49638
363.58        29.42326
364.03        29.33215
364.48        29.20055
364.93        29.03497
365.38        28.81454
365.83        28.51395
366.28        28.14054
366.73        27.70688
367.18        27.27389
367.63        26.93503
368.08        26.71136
368.53        26.58495
368.98        26.49618
369.43        26.34321
369.88        26.10582
370.33        25.81882
370.78        25.53555
371.23        25.34981
371.68        25.28541
372.13        25.29746
372.58        25.35471
373.03        25.40874
373.48        25.42791
373.93        25.42179
374.38        25.35249
374.83        25.16139
375.28        24.84961
375.72        24.43033
376.17        24.00336
376.62        23.69224
377.07        23.53639
377.52        23.50461
377.97         23.5445
378.42        23.56722
378.87         23.5416
379.32        23.48928
379.77        23.42445
380.22        23.36772
380.67        23.32354
381.11        23.28123
381.56         23.2174
382.01        23.11961
382.46        22.98484
382.91        22.81659
383.36        22.64361
383.81         22.5048
384.26        22.40814
384.71        22.35336
385.15        22.29016
385.60        22.14713
386.05        21.91642
386.50        21.62319
386.95        21.35656
387.40        21.25647
387.85        21.34041
388.29        21.54864
388.74        21.77093
389.19        21.84037
389.64        21.72289
390.09        21.46388
390.54         21.1564
390.98        20.94326
391.43        20.88317
391.88        20.92215
392.33         20.9777
392.78         20.9314
393.23        20.76904
393.67        20.52401
394.12        20.31061
394.57        20.21561
395.02        20.25599
395.47        20.39754
395.91        20.56735
396.36        20.61671
396.81        20.51723
397.26        20.30819
397.71        20.08759
398.15        19.98482
398.60        20.04592
399.05        20.21187
399.50        20.38049
399.95        20.40638
400.39        20.26067
400.84        19.98274
401.29        19.67897
401.74        19.54345
402.18        19.63192
402.63        19.87433
403.08        20.13031
403.53        20.17636
403.97        19.96901
404.42        19.59698
404.87        19.20236
405.32        19.01602
405.76        19.09206
406.21        19.34939
406.66        19.67126
407.11        19.87725
407.55        19.91775
408.00        19.85385
408.45        19.73778
408.90        19.60891
409.34        19.51701
409.79        19.53037
410.24         19.6052
410.68        19.59579
411.13        19.49499
411.58        19.39204
412.03        19.29722
412.47        19.19817
412.92        19.10285
413.37        19.01096
413.81        18.96228
414.26         19.0322
414.71        19.21742
415.15        19.49986
415.60        19.76681
416.05        19.86086
416.49        19.74164
416.94        19.45943
417.39        19.12242
417.83        18.90871
418.28        18.87332
418.73        18.95827
419.17        19.08901
419.62        19.13746
420.07        19.07584
420.51        18.95156
420.96         18.8149
421.41        18.71897
421.85         18.6756
422.30        18.67307
422.74        18.69804
423.19        18.76629
423.64        18.86349
424.08        18.99648
424.53        19.11455
424.98        19.15836
425.42         19.1177
425.87        19.01302
426.31        18.87873
426.76         18.7786
427.21        18.71967
427.65         18.6751
428.10        18.66294
428.54        18.68544
428.99        18.73981
429.44        18.90776
429.88        19.07651
430.33        18.94266
430.77        18.57553
431.22        18.35668
431.66        18.34291
432.11        18.42117
432.56        18.56984
433.00        18.83734
433.45        19.04784
433.89        19.02641
434.34        18.85995
434.78        18.56977
435.23        18.15792
435.67        18.98002
436.12         18.3902
436.57        18.30243
437.01        18.02613
437.46        17.95391
437.90        18.10444
438.35        18.31363
438.79        18.49747
439.24         18.5968
439.68        18.58521
440.13         18.3329
440.57        17.99068
441.02        18.08737
441.46        18.46849
441.91        18.54464
442.35        17.86226
442.80        17.63962
443.24        17.69127
443.69          17.639
444.13        17.47015
444.58        17.36078
445.02        17.32589
445.47        17.36394
445.91        17.43612
446.36        17.44114
446.80        17.35845
447.24        17.23707
447.69        17.12145
448.13         17.0418
448.58         17.0165
449.02        17.03239
449.47        17.05167
449.91        17.00742
450.36        16.89495
450.80        16.73512
451.25        16.58941
451.69        16.53355
452.13        16.58694
452.58        16.71469
453.02        16.86496
453.47        16.95981
453.91        16.97871
454.36        16.94266
454.80        16.87628
455.24        16.82043
455.69        16.79785
456.13        16.77841
456.58        16.77105
457.02        16.78252
457.46        16.80878
457.91        16.80964
458.35        16.79126
458.79        16.80318
459.24        16.84208
459.68        16.89692
460.13        16.98999
460.57        16.99381
461.01        16.88686
461.46        17.14458
461.90        17.13093
462.34        16.91536
462.79         17.0729
463.23        17.01422
463.68        16.98395
464.12        16.93056
464.56        16.98816
465.01        17.05046
465.45        17.09587
465.89        17.10612
466.34        17.08396
466.78        16.98083
467.22        16.85296
467.67        16.91243
468.11        17.12167
468.55        17.14324
468.99        16.99876
469.44        17.00047
469.88        17.15718
470.32        17.28633
470.77        17.34729
471.21        17.36794
471.65        17.34096
472.10         17.2617
472.54        17.16105
472.98        17.12596
473.42        17.17072
473.87        17.22453
474.31        17.26793
474.75         17.3743
475.20        17.49945
475.64          17.463
476.08        17.32421
476.52         17.3272
476.97        17.48587
477.41        17.68573
477.85        17.86093
478.29        17.95836
478.74        17.96013
479.18        17.85195
479.62        17.72227
480.06        17.71375
480.50        17.82973
480.95        17.94728
481.39        18.01587
481.83        18.04281
482.27        18.01917
482.72        17.94321
483.16        17.86197
483.60        17.85183
484.04        17.92815
484.48        18.12099
484.93        18.44278
485.37        18.56556
485.81        18.65188
486.25        18.99792
486.69        19.71585
487.14        19.04315
487.58        18.83684
488.02        19.69299
488.46        19.19865
488.90        19.32626
489.34         19.1793
489.79         19.3254
490.23         19.6769
490.67         19.8526
491.11        19.85396
491.55        19.84489
491.99        19.85811
492.43        19.87651
492.88        19.91638
493.32         19.9642
493.76        20.04222
494.20        20.19455
494.64        20.42344
495.08        20.71846
495.52        21.02394
495.96        21.24448
496.41        21.37664
496.85         21.4559
497.29        21.52283
497.73        21.69766
498.17        21.96105
498.61        22.10203
499.05        22.13164
499.49         22.2774
499.93        22.54932
500.37         22.7613
500.82        22.90276
501.26        23.14464
501.70        23.42822
502.14        23.44529
502.58        23.25916
503.02        23.23595
503.46        23.40549
503.90        23.58247
504.34        23.71391
504.78        23.79211
505.22        23.80125
505.66        23.75359
506.10        23.69035
506.54        23.67427
506.98        23.72563
507.42        23.82911
507.86        23.96476
508.30        24.09852
508.74        24.21533
509.18         24.3208
509.62         24.4215
510.06        24.52673
510.50        24.63883
510.94        24.75555
511.38        24.85532
511.82        24.90662
512.26        24.90577
512.70          24.861
513.14        24.81923
513.58        24.84981
514.02         24.9581
514.46         25.1264
514.90        25.29358
515.34        25.29763
515.78        25.16046
516.22        24.97989
516.66        24.85061
517.10        24.58828
517.54        24.21714
517.98        24.79539
518.42        24.71241
518.86        24.96263
519.30        25.04728
519.74        25.13204
520.18        25.18951
520.62        25.15573
521.06        25.04719
521.50        24.86624
521.93        24.66876
522.37        24.55541
522.81        24.54818
523.25        24.62304
523.69        24.72758
524.13        24.77695
524.57        24.74737
525.01        24.66017
525.45        24.55355
525.89        24.48877
526.32        24.47923
526.76        24.50551
527.20        24.52435
527.64        24.47352
528.08         24.3403
528.52        24.14564
528.96         23.9432
529.40        23.81099
529.83        23.76574
530.27        23.79273
530.71        23.82928
531.15        23.77858
531.59         23.6249
532.03        23.40118
532.46        23.18454
532.90         23.1127
533.34        23.20027
533.78        23.39549
534.22         23.6073
534.66        23.69752
535.09        23.63004
535.53        23.45897
535.97        23.24411
536.41        23.07736
536.85        22.99092
537.28        22.96832
537.72        22.99889
538.16         22.9946
538.60        23.05524
539.04        23.09307
539.47        23.12848
539.91        23.19956
540.35        23.32073
540.79        23.28172
541.22        23.38672
541.66        23.47699
542.10        23.66175
542.54          23.558
542.97        23.78819
543.41        23.91148
543.85        24.09481
544.29        24.27415
544.72         24.4188
545.16        24.55323
545.60        24.66842
546.04        24.68597
546.47        24.68007
546.91        24.92526
547.35        25.36121
547.79        25.65501
548.22        25.77105
548.66        25.84148
549.10        25.91005
549.53        26.12188
549.97        26.48189
550.41        26.54076
550.84          26.785
551.28        26.93423
551.72        27.16074
552.15        27.41976
552.59        27.71049
553.03        28.02738
553.46        28.30959
553.90        28.49544
554.34        28.57286
554.77        28.56707
555.21        28.53903
555.65        28.56949
556.08        28.67559
556.52         28.8416
556.96         29.0135
557.39        29.19966
557.83        29.36814
558.27        29.45744
558.70        29.47566
559.14        29.49586
559.57        29.51915
560.01        29.54275
560.45        29.56445
560.88        29.54515
561.32        29.54807
561.75        29.64661
562.19         29.9232
562.63        30.07905
563.06        30.12725
563.50        30.16679
563.93        30.21412
564.37        30.34926
564.80         30.4386
565.24        30.59723
565.68        30.75267
566.11        30.88522
566.55        31.01602
566.98         31.1228
567.42        31.18636
567.85        31.53968
568.29        31.37108
568.72        31.67019
569.16        32.11896
569.60        32.39375
570.03        32.45124
570.47        32.54094
570.90        32.55983
571.34        32.82105
571.77        32.77654
572.21        33.13032
572.64        33.45465
573.08        33.50615
573.51        33.60688
573.95        34.33619
574.38        34.53101
574.82        34.74555
575.25        34.62968
575.69        34.59562
576.12        34.57257
576.56        34.53345
576.99        34.48625
577.42        34.64952
577.86        34.78853
578.29        34.71961
578.73        35.09209
579.16        34.91972
579.60         34.5651
580.03        34.32406
580.47        34.67418
580.90        34.16973
581.33        34.04446
581.77        33.99854
582.20        34.65845
582.64         34.1327
583.07        33.61538
583.51        33.69296
583.94        33.11278
584.37         33.3187
584.81        32.76305
585.24        32.75137
585.68        32.84454
586.11        32.82357
586.54        32.63612
586.98        32.31351
587.41        32.45442
587.85        32.43143
588.28        32.36826
588.71        32.22027
589.15        32.06288
589.58        31.73966
590.01        31.69811
590.45        32.26115
590.88         32.1047
591.31        31.97517
591.75        31.51049
592.18         31.6075
592.61        31.54562
593.05        32.09064
593.48        31.86121
593.91        32.78355
594.35        32.12761
594.78        32.46766
595.21        32.81074
595.65        33.02786
596.08        33.02007
596.51         32.9869
596.94        33.04863
597.38        33.13446
597.81        33.33756
598.24        33.70215
598.68        34.22162
599.11        34.32615
599.54        35.36126
599.97        35.35283
600.41        35.39296
600.84        35.88408
601.27        36.52008
601.70        37.01245
602.14        37.19243
602.57        37.58425
603.00        38.18116
603.43        38.63972
603.87        38.98078
604.30        39.47128
604.73        40.07978
605.16        40.52895
605.60         40.8133
606.03        41.35567
606.46        41.99395
606.89        42.81582
607.32         43.1468
607.76        43.40335
608.19        43.83088
608.62        44.37155
609.05        44.66687
609.48        44.84944
609.92        45.02068
610.35        45.32167
610.78        46.17007
611.21        47.02562
611.64        46.72717
612.07        47.33788
612.50         47.8013
612.94        47.64975
613.37        48.27615
613.80        48.55672
614.23        48.98669
614.66        49.09728
615.09        49.46312
615.52        49.87555
615.96        50.37356
616.39        50.77132
616.82        51.11336
617.25        50.85203
617.68        51.35748
618.11        51.61592
618.54        51.87431
618.97        51.99152
619.40        51.95226
619.84        52.09619
620.27         51.8179
620.70        52.29264
621.13        53.14502
621.56        53.37028
621.99        53.07549
622.42        53.10963
622.85        53.56725
623.28        53.65525
623.71        53.32667
624.14        53.85912
624.57        53.69396
625.00         53.4459
625.43        53.60207
625.86        53.09981
626.29         52.9582
626.72         52.7253
627.15        52.67442
627.58        52.65163
628.01        52.57013
628.44        52.52712
628.87        52.53404
629.30        51.67633
629.73        51.68976
630.16         51.1324
630.59        50.84541
631.02        50.40151
631.45        50.05557
631.88        49.69276
632.31        49.20871
632.74        48.73428
633.17        48.24142
633.60        47.76034
634.03        47.30112
634.46        46.84048
634.89        46.35884
635.32        45.88221
635.75        45.42384
636.18        44.75325
636.61        44.31685
637.04        43.78367
637.47        43.28462
637.89        42.81266
638.32        42.38134
638.75        41.99979
639.18         41.6615
639.61        41.49146
640.04        41.22084
640.47        40.93489
640.90        40.55596
641.33        40.12051
641.76        39.69675
642.18        39.40563
642.61         39.2728
643.04        39.26039
643.47        39.31909
643.90        39.36538
644.33        39.37139
644.76        39.36628
645.18        39.36041
645.61        39.37054
646.04        39.40952
646.47         39.4703
646.90        39.57756
647.33        39.77457
647.75        40.06484
648.18        40.43203
648.61        40.84407
649.04         41.2252
649.47        41.56372
649.89        41.93325
650.32        42.34919
650.75        42.74651
651.18         43.2053
651.61         43.8637
652.03        44.68374
652.46        45.67032
652.89        46.68774
653.32        47.06181
653.74        46.93502
654.17        47.68637
654.60        48.38746
655.03        49.46564
655.46        49.12865
655.88        51.31809
656.31        52.64019
656.74        59.72554
657.16         56.5161
657.59        52.35244
658.02        53.19149
658.45        53.88991
658.87        54.67785
659.30        55.35535
659.73        55.68993
660.15         57.2733
660.58         56.8181
661.01        56.82761
661.44        56.59099
661.86        56.77297
662.29        57.39456
662.72        58.33365
663.14        59.33579
663.57        59.49827
664.00        59.01552
664.42        59.05552
664.85        59.69902
665.27        60.29084
665.70        60.55951
666.13        60.85691
666.55        61.11875
666.98        61.28218
667.41        61.39532
667.83        61.53584
668.26        61.71372
668.69        61.93038
669.11        62.16354
669.54        62.32899
669.96        62.41413
670.39        62.59142
670.82        62.69419
671.24        62.81353
671.67        62.94875
672.09        63.28987
672.52        63.74683
672.94        64.04512
673.37        64.12253
673.80        63.95157
674.22        63.67553
674.65         63.6168
675.07          63.842
675.50        64.18553
675.92        64.52842
676.35        64.69814
676.77        64.65553
677.20        64.46336
677.62        64.23985
678.05        64.17881
678.47        64.32271
678.90        64.61959
679.32        65.00613
679.75         65.3027
680.17        65.44551
680.60        65.62948
681.02        65.92911
681.45        65.59587
681.87        65.99689
682.30        66.05981
682.72         66.1597
683.15        66.15371
683.57        66.08942
684.00        66.04445
684.42        66.16177
684.85        66.31539
685.27        66.50414
685.70        66.83979
686.12        67.18913
686.54        67.33696
686.97        67.27387
687.39         67.0326
687.82        66.75011
688.24         66.8838
688.66         67.3451
689.09        67.46658
689.51        67.24968
689.94        67.22823
690.36        67.43119
690.78        67.47583
691.21        67.36826
691.63        67.45876
692.06        67.79338
692.48         67.7572
692.90        67.96087
693.33        68.45102
693.75         68.2389
694.17         68.2803
694.60          68.257
695.02        68.21405
695.44        68.14715
695.87        68.18906
696.29        68.30362
696.71        68.22325
697.14        68.10883
697.56        68.38466
697.98        68.85065
698.41        69.81665
698.83        69.31799
699.25        69.27695
699.68        69.20575
700.10        69.22736
700.52        69.18364
700.94        69.25874
701.37        69.37007
701.79        69.49199
702.21        69.58421
702.64        69.64465
703.06        69.69829
703.48        69.81429
703.90        69.99048
704.33        70.15459
704.75        70.24993
705.17        70.20553
705.59        70.01206
706.01        69.67912
706.44        69.36901
706.86        69.34554
707.28        69.64285
707.70        70.19407
708.12        70.80524
708.55        71.09896
708.97        71.03306
709.39        70.86327
709.81        70.68079
710.23        70.50713
710.66        70.40595
711.08        70.42402
711.50        70.53483
711.92        70.67231
712.34        70.81918
712.76        71.00435
713.19        71.19109
713.61        71.37038
714.03        71.50407
714.45        71.58649
714.87        71.63115
715.29         71.7123
715.71        71.84798
716.13        71.94153
716.56        71.93499
716.98        72.24597
717.40        72.16284
717.82        72.23277
718.24        72.25632
718.66        72.25404
719.08        72.22526
719.50        72.18053
719.92        72.12448
720.34        72.04256
720.76        71.94271
721.19        71.83228
721.61        71.75175
722.03        71.72704
722.45        71.78729
722.87        71.90794
723.29         72.0701
723.71        72.22961
724.13        72.37053
724.55        72.50703
724.97        72.66408
725.39        72.80903
725.81        72.92609
726.23        73.14359
726.65        73.48937
727.07        73.26187
727.49        73.65551
727.91        73.70433
728.33        73.75191
728.75        73.74338
729.17        73.69491
729.59        73.61735
730.01        73.52414
730.43        73.49249
730.85        73.54002
731.27        73.57283
731.69        73.61322
732.10        73.87653
732.52        74.26046
732.94        74.36224
733.36        74.18896
733.78        74.10474
734.20        74.15681
734.62        74.15065
735.04        74.07569
735.46        74.06792
735.88        74.13976
736.30        73.93982
736.72        74.09915
737.13        74.17396
737.55        74.28268
737.97        74.61523
738.39        75.00755
738.81        74.80388
739.23        74.20121
739.65        74.11211
740.06        74.42574
740.48        74.99476
740.90        75.01794
741.32        74.22643
741.74        74.30921
742.16         74.2728
742.57        74.49399
742.99        74.83651
743.41        75.13396
743.83        75.35268
744.25        75.44643
744.67        75.08306
745.08        74.99059
745.50        74.77137
745.92        74.67841
746.34        74.66022
746.75        74.68802
747.17        74.69597
747.59         74.6648
748.01        74.66608
748.42        74.72176
748.84        74.77711
749.26        74.88328
749.68         75.0913
750.09        75.36101
750.51        75.68285
750.93        75.91425
751.35         75.7414
751.76          75.284
752.18        74.98212
752.60        74.85288
753.01         75.2001
753.43        74.97567
753.85        75.14569
754.27        75.38641
754.68         75.7328
755.10        76.07428
755.52        76.14413
755.93        75.96471
756.35        75.84245
756.77        75.83665
757.18        75.69764
757.60         75.9389
758.02        76.11511
758.43        76.11967
758.85        76.99696
759.26        76.76289
759.68         76.0284
760.10        76.06271
760.51        75.87422
760.93        75.87981
761.34        75.53447
761.76        76.06005
762.18        75.84734
762.59        75.46346
763.01        75.37154
763.42        76.02519
763.84        76.55804
764.26         76.9082
764.67        76.70393
765.09        76.23354
765.50        76.42693
765.92        77.19723
766.33        77.64708
766.75        77.55335
767.16        77.11556
767.58        76.45998
768.00        75.99007
768.41        75.90302
768.83        76.11757
769.24        76.54548
769.66        77.04681
770.07        77.43067
770.49        77.48486
770.90        77.29118
771.32        77.21099
771.73        77.29874
772.15        77.38384
772.56        77.42471
772.97        77.29565
773.39        77.00217
773.80        76.88094
774.22        76.89051
774.63        76.66933
775.05        76.31537
775.46        76.28873
775.88        76.60114
776.29        77.09512
776.70        77.55405
777.12        77.70551
777.53        77.49448
777.95        76.98264
778.36        76.40401
778.77        76.15889
779.19        76.34396
779.60        76.88614
780.02        77.50681
780.43         77.9217
780.84        78.03749
781.26        77.59944
781.67        76.94659
782.09        77.46564
782.50        78.81954
782.91        78.91213
783.33        77.83627
783.74        77.51859
784.15        78.01611
784.57        78.27324
784.98        78.17648
785.39        77.90913
785.81        77.53582
786.22        77.31003
786.63        77.26427
787.04        77.19667
787.46        77.11832
787.87        77.17793
788.28         77.3756
788.70        77.56847
789.11        77.71882
789.52        77.95077
789.93         78.2123
790.35        78.20621
790.76        77.97572
791.17        78.01392
791.58        78.33089
792.00        78.21142
792.41        77.60608
792.82        78.04314
793.23        77.80399
793.65        77.30388
794.06         76.4788
794.47        76.62205
794.88        77.41241
795.29        79.10729
795.71        78.44923
796.12        78.17817
796.53        78.82178
796.94        78.23504
797.35        77.13613
797.76        77.03661
798.18        77.89534
798.59        78.27321
799.00        78.07071
799.41        78.15002
799.82        78.49748
800.23        78.68815
800.64        78.69865
801.06        78.51136
801.47        78.41333
801.88        78.37943
802.29        78.48459
802.70        78.64559
803.11        78.79151
803.52        78.81329
803.93        78.70242
804.34        78.53616
804.75        78.31052
805.17        78.11644
805.58        78.02283
805.99        77.64031
806.40        77.18515
806.81        77.85548
807.22        79.25945
807.63        79.44085
808.04        78.51244
808.45        78.07095
808.86        78.40177
809.27        79.23518
809.68        80.28556
810.09        80.77706
810.50        80.54445
810.91        80.09648
811.32        79.65137
811.73        79.24113
812.14        78.94282
812.55        78.92188
812.96        79.04922
813.37        78.71658
813.78         78.0538
814.19        77.96772
814.60        78.39462
815.01        78.54193
815.42        78.37828
815.83        78.32938
816.24        78.45744
816.65        78.65401
817.05        78.91718
817.46         79.2076
817.87        79.46645
818.28        79.56134
818.69        79.48875
819.10        79.29957
819.51        79.05644
819.92        78.97826
820.33        79.14091
820.74        79.19051
821.14        79.20014
821.55         79.9359
821.96        81.06265
822.37        80.99899
822.78        79.89288
823.19        79.40359
823.60        79.66197
824.00        79.74655
824.41         79.5223
824.82        79.34837
825.23        79.22689
825.64        79.09041
826.04        79.00314
826.45         79.0088
826.86        79.12426
827.27        79.33823
827.68        79.59335
828.08        79.80923
828.49        79.89403
828.90         79.8941
829.31        79.83998
829.72        79.79306
830.12        79.79292
830.53        79.78194
830.94        79.75057
831.35        79.65485
831.75        79.51055
832.16        79.29611
832.57         79.0728
832.97        78.91529
833.38        78.82802
833.79        78.80069
834.20        78.80076
834.60        78.76421
835.01        78.69658
835.42        78.63026
835.82        78.58959
836.23        78.55681
836.64        78.55474
837.04        78.56086
837.45        78.61659
837.86        78.84549
838.26        79.26389
838.67        79.79629
839.08        80.26527
839.48         80.3298
839.89        79.92845
840.29        79.22028
840.70        78.51354
841.11         78.1776
841.51        78.32099
841.92        78.76953
842.33        79.46231
842.73        80.28643
843.14        81.04141
843.54        81.80781
843.95        82.33804
844.35        82.32536
844.76        81.75317
845.17        80.74583
845.57        79.64923
845.98        79.02584
846.38        79.00818
846.79        79.44796
847.19        80.18309
847.60        80.74712
848.00        81.03238
848.41        81.10015
848.81        81.08061
849.22        81.08858
849.62        81.20877
850.03        81.32045
850.43        81.42386
850.84        81.42709
851.24        81.36624
851.65        81.22318
852.05        81.07903
852.46         80.9347
852.86        80.81512
853.27        80.73569
853.67        80.63677
854.07        80.59263
854.48        80.56035
854.88        80.49971
855.29        80.37349
855.69        80.33398
856.10        80.30743
856.50        80.33168
856.90         80.3309
857.31        80.23297
857.71        80.10909
858.12        79.92818
858.52        79.78899
858.92        79.72803
859.33        79.73998
859.73        79.84898
860.13        80.03764
860.54        80.28114
860.94         80.6054
861.34        80.94103
861.75        81.16732
862.15        81.20307
862.55        80.99649
862.96        80.62632
863.36        80.17205
863.76        79.73684
864.17        79.38773
864.57        79.12854
864.97        79.07111
865.38        79.36371
865.78        80.04514
866.18        80.98213
866.58        81.89141
866.99        82.26276
867.39        81.99574
867.79        81.21052
868.19        80.05499
868.60        78.76365
869.00        77.44553
869.40        76.10372
869.80        75.04286
870.21         74.7449
870.61        75.33938
871.01        76.64413
871.41        78.12315
871.81        78.90236
872.22        78.78753
872.62        78.02725
873.02        76.99992
873.42          76.509
873.82        76.60025
874.22        76.64397
874.63        76.68076
875.03         76.8958
875.43        77.22571
875.83        78.40269
876.23         78.2309
876.63        77.74965
877.03        76.59232
877.44        74.80755
877.84        123.3487
878.24        75.09164
878.64        76.30979
879.04        79.46802
879.44        77.17858
879.84        75.80556
880.24        78.85996
880.64        78.73058
881.04        76.20152
881.44        74.55151
881.84        74.36189
882.24        75.11469
882.65         76.2339
883.05        76.66128
883.45         76.0502
883.85        74.98925
884.25        74.06106
884.65        73.90205
885.05        74.65311
885.45        76.06061
885.85        77.58031
886.25        78.32077
886.65         78.0392
887.05        77.03467
887.45        75.80317
887.85         75.0834
888.25        75.08015
888.65        75.58334
889.04        76.33202
889.44        76.78954
889.84        76.82101
890.24        76.59199
890.64        76.29976
891.04          76.229
891.44        76.41899
891.84        76.70631
892.24        76.92964
892.64        76.84282
893.04        76.40567
893.44        75.79897
893.83        75.06303
894.23         74.2711
894.63        73.47192
895.03        72.65169
895.43        72.06579
895.83         72.1395
896.23        72.91794
896.63        74.26204
897.02        75.72018
897.42        76.45011
897.82        76.24592
898.22          75.349
898.62        74.18336
899.01        73.41381
899.41        73.26542
899.81        73.51969
900.21        74.01494
900.61        74.50908
901.00        74.89952
901.40        75.24828
901.80        75.56193
902.20        75.81428
902.59        76.00719
902.99        76.11701
903.39        76.09495
903.79        75.88349
904.18         75.4903
904.58         74.9869
904.98        74.56812
905.38        74.53358
905.77        74.91523
906.17        75.63244
906.57         76.3876
906.96        76.73743
907.36        76.53914
907.76        75.90657
908.15         75.1522
908.55        74.72663
908.95        74.76404
909.34        75.17368
909.74        75.61001
910.14        75.47524
910.53        74.65248
910.93        73.42881
911.33        72.32116
911.72         72.1413
912.12        72.99492
912.52        74.49929
912.91        76.15361
913.31        77.12101
913.70        77.22802
914.10        76.71692
914.49        75.71692
914.89        74.59032
915.29        73.58654
915.68        72.65886
916.08        72.06264
916.47        72.11239
916.87        72.76332
917.26        73.89995
917.66        75.14466
918.05        75.89265
918.45        75.94376
918.84        75.51256
919.24        74.72269
919.64        73.81695
920.03        72.95815
920.42        72.11221
920.82        71.58248
921.21        71.79018
921.61        72.71267
922.00        74.25533
922.40        75.86732
922.79        76.85928
923.19        77.00528
923.58        76.32656
923.98        75.06837
924.37        74.25687
924.77         74.3474
925.16        72.36738
925.55          73.336
925.95        73.19399
926.34        73.43566
926.74        73.90455
927.13        74.54017
927.52         75.0677
927.92        75.38326
928.31        75.59909
928.70        75.67668
929.10        75.60748
929.49         75.4282
929.89         75.1373
930.28        74.89869
930.67         74.9772
931.07        75.38404
931.46        76.07438
931.85        76.80254
932.24        77.21312
932.64          77.207
933.03        76.81724
933.42         76.1696
933.82        75.57874
934.21         75.1517
934.60        74.86575
934.99        74.48048
935.39        73.84632
935.78         72.9571
936.17        71.40646
936.56        69.33869
936.96         70.2563
937.35        69.72226
937.74        71.16838
938.13        72.61378
938.53        73.52598
938.92         73.8587
939.31        73.81345
939.70        73.58718
940.09        73.43193
940.49        73.47726
940.88         73.6393
941.27        73.93221
941.66        74.42767
942.05        75.08623
942.44        75.85418
942.84        76.58857
943.23        77.06235
943.62        77.18505
944.01        77.06602
944.40        76.67542
944.79        75.97276
945.18        75.01319
945.57         73.7997
945.97        72.76088
946.36        72.59947
946.75        73.47324
947.14        75.08198
947.53        76.73167
947.92        77.47334
948.31        77.14719
948.70        76.05279
949.09         74.6051
949.48        73.55437
949.87        73.17258
950.26        73.22814
950.65        73.58116
951.04        73.99521
951.43        74.34245
951.82         74.7202
952.21        75.00998
952.60        74.99375
952.99        74.65279
953.38        74.02802
953.77        73.31881
954.16         72.8718
954.55        72.77386
954.94        72.94399
955.33        73.24131
955.72        73.41056
956.11        73.38468
956.50        73.25993
956.89        73.11193
957.28        73.08326
957.66        73.22334
958.05        73.36618
958.44        73.52673
958.83        73.74011
959.22        73.98077
959.61         74.2691
960.00        74.37233
960.39        73.88126
960.78        72.77074
961.16         71.1937
961.55        69.68451
961.94        68.92762
962.33        69.06593
962.72        69.90273
963.11        71.02622
963.49        71.71966
963.88        71.67165
964.27        71.13735
964.66         70.3968
965.04        69.92645
965.43        69.87797
965.82        70.09944
966.21        70.49263
966.60        70.91409
966.98        71.30309
967.37        71.68595
967.76        72.08128
968.15        72.47942
968.53        72.87897
968.92         73.1688
969.31        73.31544
969.69        73.28162
970.08        73.01198
970.47        72.57615
970.86        71.99575
971.24        71.26845
971.63        70.49105
972.02        69.71899
972.40        69.07048
972.79        68.74487
973.17        68.81634
973.56        69.12052
973.95        69.64689
974.33        70.34911
974.72        71.01392
975.11        71.62025
975.49        71.90817
975.88        71.47885
976.26        70.33659
976.65        68.70803
977.04        66.93158
977.42        65.60903
977.81        64.98267
978.19        64.87569
978.58        65.35874
978.96        66.53415
979.35        68.23548
979.74        70.52123
980.12         72.7477
980.51        73.51221
980.89        72.66193
981.28        70.54477
981.66        68.27727
982.05        67.45739
982.43        68.31184
982.82        70.36044
983.20        72.78253
983.59        73.77414
983.97        72.90057
984.35        70.63796
984.74        67.92878
985.12         66.1264
985.51        65.63024
985.89        66.05518
986.28         66.9262
986.66         67.3831
987.04        67.03949
987.43         66.3455
987.81        65.48891
988.20        64.63804
988.58        63.77745
988.96        62.67253
989.35        61.54564
989.73        61.19379
990.12        61.89347
990.50        63.48612
990.88        65.06129
991.27        65.57598
991.65        65.08118
992.03        63.82363
992.42        62.53991
992.80        62.65269
993.18        64.50871
993.56        67.37727
993.95        70.30537
994.33        72.39621
994.71         73.2607
995.10        73.22263
995.48         72.5173
995.86        71.39009
996.24        70.01142
996.63        68.34866
997.01        66.49941
997.39        64.96813
997.77        64.12155
998.15         63.8814
998.54        64.30479
998.92        65.45228
999.30        67.33186
999.68        70.19604
1000.06        73.14569
1000.45        73.20768
1000.83        69.58043
1001.21        63.94946
1001.59        58.83419
1001.97        56.03268
1002.35        55.31618
1002.73        56.04976
1003.12        57.72369
1003.50        59.19133
1003.88        59.70355
1004.26        59.67177
1004.64         59.1457
1005.02        58.17652
1005.40         56.8946
1005.78         55.1152
1006.16        53.50237
1006.54        53.53107
1006.92        55.29221
1007.30        57.95572
1007.69        60.45604
1008.07        61.93138
1008.45        62.22919
1008.83        61.59186
1009.21        59.73106
1009.59        56.62624
1009.97        52.94944
1010.35        49.16161
1010.73        46.86284
1011.11        47.38867
1011.49        50.34694
1011.86        55.29796
1012.24        59.84535
1012.62        61.85685
1013.00        61.15126
1013.38        58.44921
1013.76        54.98277
1014.14        52.95057
1014.52        52.99775
1014.90        54.48526
1015.28        56.23868
1015.66        56.24725
1016.04        53.86312
1016.41        49.60503
1016.79        44.59653
1017.17        41.74115
1017.55        42.19496
1017.93        44.55954
1018.31        47.45016
1018.69        49.71864
1019.06        51.16029
1019.44         52.0601
1019.82        52.00647
1020.20         49.9936
1020.58        45.93576
1020.95        40.31649
1021.33        34.09763
1021.71        27.46498
1022.09        19.47656
1022.46        7.011216
1022.84       -8.923338
1023.22        -10.8577
1023.60        7.804642
1023.97        27.25785
1024.35        37.92624
1024.73        41.69589
