SpectraSmart Spectrum 2.9.0.0
--------- Device Information -----------
Spectrum Name :  反射率_0
Saving Time :  2024/04/20 00:48:31
Spectro-Module Model Name : SE2030-DUVN
Spectro-Module Serial Number : OS361AC55029948
Wavelength Start : 200
Wavelength End : 1025
Wavelength Unit : Wavelength(nm)
Spectrum Unit : Reflectance(%)
-----------Spectrum Setting ------------
Integration Time : 30ms
Average : 10
Boxcar : 0
Background removal :  enabled
linearity correction :  enabled
SC :  disabled
Intensity correction :  disabled
DWT denoise :  enabled
savitzky-golay :  disabled
FFT :  disabled
Running average :  disabled
Kalman :  disabled
High pass :  disabled
---------------BEGIN--------------------
Wavelength(nm)             Reflectance(%)
200.29               0
200.75        59.05783
201.21        58.45284
201.67        59.28364
202.13        62.27991
202.58        67.66222
203.04        75.71567
203.50        83.91405
203.96        85.70871
204.42        80.73878
204.88        73.11797
205.34        66.25609
205.80        61.53944
206.26        58.12701
206.72         54.7416
207.18        51.12579
207.64        48.71814
208.10        49.36412
208.55        53.18214
209.01        57.15463
209.47        59.31902
209.93        59.69063
210.39        58.83351
210.85        57.48434
211.31        56.50215
211.77        55.95405
212.23        55.56021
212.69        55.00323
213.14        53.98191
213.60        52.53371
214.06        51.75412
214.52        51.67448
214.98        52.22933
215.44         53.3086
215.90        54.61264
216.36        56.48777
216.81        59.29233
217.27        62.49427
217.73        65.81179
218.19        67.58439
218.65        65.59764
219.11        59.54297
219.57        49.54677
220.02        37.81866
220.48        30.81329
220.94        30.95799
221.40        37.40039
221.86        46.25249
222.32        51.20898
222.77        50.73975
223.23        46.86397
223.69        42.81891
224.15        43.11364
224.61        47.50011
225.06        53.28697
225.52         58.0125
225.98        59.78244
226.44        58.68385
226.90        55.70184
227.36        51.90105
227.81        49.11222
228.27        48.32449
228.73        48.79039
229.19        49.81256
229.65        50.57339
230.10        50.84663
230.56        50.90973
231.02        50.96471
231.48        51.25122
231.93         51.7272
232.39        52.29148
232.85        52.58428
233.31        52.11497
233.77        50.84697
234.22         48.9705
234.68        47.02854
235.14        45.87266
235.60        45.77511
236.05        46.52378
236.51        47.70337
236.97        48.66033
237.43        49.24393
237.88        49.76996
238.34         50.2725
238.80         51.1934
239.26         52.5477
239.71        53.84745
240.17        54.84231
240.63        55.85614
241.08        57.01725
241.54        58.35264
242.00         59.0626
242.46        57.45194
242.91        52.58487
243.37        43.15865
243.83        29.86099
244.28        21.38267
244.74        26.45544
245.20        43.54288
245.66        60.58162
246.11        67.01371
246.57        61.94352
247.03        46.12825
247.48        23.16497
247.94        14.69763
248.40        25.11664
248.85        39.55141
249.31        50.42883
249.77        56.18687
250.22        58.31477
250.68        58.62339
251.14        57.86987
251.59        57.07244
252.05        57.08063
252.51        57.64364
252.96         57.9146
253.42        56.96898
253.88        54.90764
254.33         52.3786
254.79        51.58501
255.25        54.35624
255.70        59.98492
256.16        66.92143
256.62        72.57771
257.07        74.08477
257.53        71.74113
257.99        66.89644
258.44        61.36146
258.90        58.14696
259.35        57.02945
259.81        57.26844
260.27         57.4024
260.72        56.22017
261.18        54.04617
261.63        51.04174
262.09        48.42402
262.55        47.35187
263.00        47.76326
263.46        49.14615
263.91        50.24507
264.37        49.85793
264.83        47.99587
265.28        45.18928
265.74        42.64761
266.19        41.61372
266.65        42.24086
267.11        43.84137
267.56        45.53164
268.02        46.06265
268.47        45.20478
268.93        43.40168
269.38        41.15879
269.84        39.52077
270.30         38.7818
270.75        38.64384
271.21        38.74485
271.66        38.54206
272.12        37.88287
272.57        36.96324
273.03         36.0365
273.48        35.38396
273.94        35.11129
274.39         35.0513
274.85        35.02258
275.31        34.74854
275.76        34.15709
276.22        33.36913
276.67        32.53539
277.13        31.98117
277.58        31.70544
278.04        31.63671
278.49        31.52853
278.95        31.10212
279.40        30.29464
279.86         29.3035
280.31        28.29605
280.77        27.63996
281.22        27.33227
281.68         27.2772
282.13        27.29803
282.59        27.17482
283.04        26.84674
283.50        26.42416
283.95        25.96048
284.41        25.56707
284.86        25.25315
285.32        24.99457
285.77        24.78591
286.22        24.68957
286.68        24.69223
287.13        24.75778
287.59        24.80163
288.04        24.67345
288.50        24.37116
288.95        23.91273
289.41        23.42387
289.86        23.02665
290.32        22.80394
290.77        22.71188
291.22        22.71208
291.68        22.70839
292.13        22.68465
292.59        22.68482
293.04        22.76857
293.50         23.0411
293.95        23.49792
294.40        24.07047
294.86        24.66709
295.31        25.16162
295.77        25.51752
296.22        25.77749
296.68        25.96036
297.13        26.07693
297.58        26.16739
298.04        26.24489
298.49        26.38716
298.95        26.74863
299.40        27.33022
299.85        28.07583
300.31        28.86007
300.76        29.48613
301.21        29.90001
301.67         30.1788
302.12        30.35164
302.58        30.51906
303.03        30.69583
303.48        30.86482
303.94        31.07899
304.39        31.38727
304.84        31.79369
305.30         32.2746
305.75        32.72317
306.20        32.98728
306.66        33.06126
307.11        32.98921
307.57        32.87369
308.02        32.80508
308.47        32.83677
308.93        32.92661
309.38        33.07614
309.83         33.3324
310.29        33.67109
310.74        34.07629
311.19        34.41698
311.65        34.48287
312.10        34.24504
312.55        33.77649
313.00        33.25827
313.46         32.9738
313.91        32.97495
314.36        33.19113
314.82        33.49091
315.27        33.67554
315.72         33.6701
316.18        33.54789
316.63        33.35965
317.08           33.19
317.53        33.06515
317.99        32.93961
318.44        32.81392
318.89        32.68773
319.35        32.55731
319.80        32.43561
320.25        32.29704
320.70        32.09465
321.16        31.81931
321.61        31.48736
322.06        31.14471
322.51        30.87161
322.97        30.68155
323.42        30.55916
323.87        30.44611
324.32        30.25152
324.78        29.94826
325.23        29.57218
325.68        29.17014
326.13        28.82613
326.59        28.56987
327.04        28.40119
327.49        28.28325
327.94        28.15933
328.39        28.00946
328.85        27.82731
329.30        27.68248
329.75        27.65022
330.20        27.73567
330.66        27.88445
331.11        28.00795
331.56        27.91521
332.01        27.56622
332.46        27.01556
332.92        26.38681
333.37        25.89964
333.82        25.63371
334.27        25.55392
334.72        25.58242
335.17        25.57512
335.63        25.47488
336.08        25.32656
336.53        25.19697
336.98        25.20463
337.43        25.36588
337.88        25.63058
338.34        25.84885
338.79        25.83127
339.24        25.52276
339.69        24.98556
340.14        24.41241
340.59        24.12507
341.05        24.18932
341.50        24.51582
341.95        24.90624
342.40        25.04908
342.85        24.87363
343.30        24.49386
343.75        24.04507
344.20        23.74666
344.66        23.66024
345.11        23.68084
345.56        23.77459
346.01        23.88904
346.46        23.98175
346.91        24.08392
347.36        24.09944
347.81        23.86859
348.26        23.39718
348.72        22.77201
349.17        22.15604
349.62        21.90114
350.07        22.08631
350.52        22.58628
350.97        23.22933
351.42        23.75711
351.87        24.07681
352.32        24.24651
352.77        24.26566
353.22        24.14032
353.67         23.8975
354.13         23.5482
354.58        23.14707
355.03        22.82596
355.48        22.62655
355.93        22.54085
356.38        22.53374
356.83        22.53241
357.28        22.50882
357.73        22.47157
358.18        22.43617
358.63        22.42923
359.08        22.44832
359.53        22.47525
359.98        22.46001
360.43        22.33232
360.88        22.09073
361.33        21.76973
361.78        21.44892
362.23        21.25683
362.68        21.22092
363.13        21.29132
363.58        21.40458
364.03        21.46216
364.48        21.42824
364.93        21.33013
365.38        21.16368
365.83        20.92666
366.28        20.63664
366.73        20.29982
367.18        19.97276
367.63        19.74492
368.08        19.63407
368.53        19.61962
368.98        19.64991
369.43        19.63584
369.88         19.5567
370.33        19.44354
370.78        19.32196
371.23        19.23836
371.68         19.2083
372.13        19.20288
372.58        19.23067
373.03        19.31131
373.48         19.4286
373.93        19.56549
374.38        19.65486
374.83        19.59428
375.28        19.37138
375.72        19.01727
376.17        18.62712
376.62        18.31563
377.07        18.12827
377.52        18.03588
377.97        18.02205
378.42        18.05577
378.87         18.1116
379.32        18.19038
379.77        18.26055
380.22        18.27193
380.67        18.21507
381.11        18.10381
381.56        17.94675
382.01        17.78441
382.46        17.63268
382.91        17.47653
383.36        17.34021
383.81        17.25574
384.26        17.22343
384.71        17.24735
385.15        17.25801
385.60        17.14777
386.05        16.90794
386.50        16.57613
386.95        16.27071
387.40        16.18056
387.85        16.32984
388.29        16.63692
388.74        16.96709
389.19        17.12999
389.64        17.08299
390.09          16.884
390.54        16.60985
390.98        16.37892
391.43        16.25122
391.88        16.18396
392.33        16.14319
392.78        16.08131
393.23        15.98818
393.67         15.8719
394.12        15.78383
394.57        15.73671
395.02        15.73267
395.47        15.76018
395.91        15.78546
396.36          15.737
396.81        15.61056
397.26        15.42416
397.71        15.24269
398.15        15.14901
398.60        15.17384
399.05        15.27951
399.50        15.38852
399.95        15.38808
400.39        15.25536
400.84        15.02014
401.29        14.76696
401.74        14.65261
402.18        14.72384
402.63        14.92434
403.08        15.14148
403.53        15.19491
403.97        15.04745
404.42        14.76686
404.87          14.468
405.32        14.33891
405.76        14.42052
406.21         14.6442
406.66        14.90363
407.11        15.03486
407.55        14.99559
408.00        14.84123
408.45        14.63405
408.90        14.44578
409.34         14.3309
409.79        14.33255
410.24         14.4013
410.68        14.40227
411.13         14.3222
411.58        14.23383
412.03        14.15743
412.47        14.10518
412.92        14.08319
413.37        14.07565
413.81        14.08994
414.26        14.15271
414.71         14.2543
415.15        14.39427
415.60        14.49917
416.05        14.47403
416.49        14.30141
416.94        14.02066
417.39        13.72086
417.83        13.54654
418.28        13.53946
418.73        13.64915
419.17        13.80707
419.62        13.89212
420.07        13.87441
420.51        13.79025
420.96        13.67412
421.41        13.56287
421.85        13.46905
422.30        13.38966
422.74        13.32574
423.19        13.30465
423.64        13.32046
424.08        13.37682
424.53        13.43593
424.98        13.45378
425.42         13.4208
425.87        13.35138
426.31        13.26371
426.76        13.19598
427.21        13.14977
427.65        13.10695
428.10        13.08352
428.54        13.08478
428.99        13.11281
429.44        13.22637
429.88        13.34882
430.33        13.26815
430.77        13.02992
431.22        12.89456
431.66        12.90483
432.11        12.97904
432.56        13.09876
433.00        13.32385
433.45        13.50255
433.89        13.41252
434.34        13.14081
434.78        12.83507
435.23        12.52252
435.67        13.08396
436.12        12.69577
436.57        12.70756
437.01        12.60223
437.46        12.57307
437.90        12.61655
438.35        12.63468
438.79        12.61942
439.24        12.61679
439.68         12.6263
440.13        12.52982
440.57        12.38177
441.02        12.47205
441.46        12.67805
441.91        12.62438
442.35        12.04627
442.80        11.82506
443.24         11.8393
443.69         11.8174
444.13        11.73485
444.58        11.68977
445.02        11.68113
445.47        11.71539
445.91        11.76218
446.36         11.7457
446.80        11.65336
447.24        11.52155
447.69        11.39156
448.13        11.29988
448.58        11.26505
449.02        11.27434
449.47        11.30064
449.91        11.29434
450.36        11.24866
450.80         11.1768
451.25        11.11445
451.69        11.10247
452.13        11.15224
452.58        11.23954
453.02        11.33673
453.47        11.39921
453.91         11.4176
454.36        11.40515
454.80        11.37307
455.24        11.34171
455.69        11.32393
456.13         11.2987
456.58        11.28253
457.02        11.29434
457.46         11.3332
457.91        11.36871
458.35        11.38503
458.79         11.3816
459.24         11.3547
459.68        11.30581
460.13        11.28841
460.57        11.27384
461.01        11.25876
461.46        11.53986
461.90        11.64744
462.34        11.54823
462.79        11.62015
463.23        11.48345
463.68        11.35256
464.12        11.27052
464.56        11.34752
465.01        11.48109
465.45         11.6171
465.89          11.688
466.34        11.68399
466.78        11.59196
467.22        11.46803
467.67        11.48431
468.11         11.6236
468.55        11.64548
468.99          11.559
469.44        11.56852
469.88        11.67804
470.32        11.77023
470.77        11.81323
471.21        11.81943
471.65        11.78372
472.10        11.70589
472.54         11.6197
472.98         11.6098
473.42        11.68808
473.87        11.79415
474.31        11.89392
474.75        12.00433
475.20        12.08822
475.64        12.03228
476.08        11.89278
476.52        11.86093
476.97        11.95405
477.41        12.08957
477.85        12.21967
478.29        12.30306
478.74        12.32433
479.18        12.27284
479.62        12.21044
480.06         12.2374
480.50        12.35419
480.95        12.47269
481.39         12.5461
481.83         12.5646
482.27        12.52177
482.72        12.42195
483.16        12.31868
483.60        12.30541
484.04        12.39802
484.48         12.6096
484.93        12.92431
485.37        13.10268
485.81         13.1733
486.25        13.54332
486.69        13.58064
487.14        13.30186
487.58        13.23009
488.02        14.14467
488.46        13.63642
488.90        13.72068
489.34        13.65482
489.79        13.84289
490.23        14.20948
490.67        14.43237
491.11        14.47757
491.55        14.39372
491.99        14.24143
492.43         14.1616
492.88        14.19045
493.32        14.23036
493.76        14.28709
494.20        14.41794
494.64        14.61945
495.08        14.86662
495.52        15.12203
495.96         15.3405
496.41        15.50809
496.85         15.6058
497.29         15.6593
497.73         15.7891
498.17        15.98443
498.61        16.07327
499.05        16.07589
499.49        16.18882
499.93        16.42479
500.37        16.63819
500.82        16.81087
501.26        17.05482
501.70        17.31965
502.14        17.37866
502.58        17.27245
503.02        17.26526
503.46        17.37956
503.90        17.48079
504.34        17.53805
504.78        17.55928
505.22        17.54065
505.66        17.49395
506.10        17.45027
506.54        17.45486
506.98        17.52081
507.42        17.63277
507.86        17.77928
508.30        17.94058
508.74        18.10006
509.18        18.25517
509.62        18.38629
510.06        18.46325
510.50        18.48448
510.94        18.46453
511.38        18.41979
511.82        18.38057
512.26        18.36058
512.70        18.35017
513.14        18.37074
513.58        18.44954
514.02        18.57735
514.46        18.74801
514.90        18.90391
515.34         18.8965
515.78        18.73444
516.22        18.53207
516.66        18.39107
517.10        18.12265
517.54        17.75363
517.98        18.43207
518.42        18.39448
518.86        18.69175
519.30        18.77854
519.74        18.84182
520.18        18.87382
520.62        18.84093
521.06        18.76775
521.50         18.6443
521.93        18.50723
522.37        18.42695
522.81        18.41689
523.25        18.46319
523.69        18.52828
524.13        18.54956
524.57        18.51067
525.01        18.42801
525.45        18.33166
525.89        18.27001
526.32        18.25398
526.76        18.26889
527.20        18.28254
527.64         18.2487
528.08         18.1563
528.52        18.01873
528.96        17.87307
529.40        17.77366
529.83        17.73181
530.27        17.73705
530.71        17.74291
531.15        17.67707
531.59        17.53099
532.03        17.33359
532.46        17.14647
532.90        17.08004
533.34        17.14607
533.78        17.30178
534.22        17.48185
534.66        17.58707
535.09        17.58696
535.53        17.51881
535.97        17.40961
536.41        17.30014
536.85        17.21125
537.28        17.14088
537.72        17.10549
538.16        17.07855
538.60        17.14366
539.04        17.22271
539.47        17.31435
539.91        17.42043
540.35        17.54335
540.79        17.53305
541.22        17.62084
541.66        17.68997
542.10        17.82578
542.54         17.7374
542.97        17.89991
543.41        17.99324
543.85        18.14555
544.29        18.30829
544.72        18.44936
545.16        18.57197
545.60        18.66656
546.04        18.67707
546.47        18.67114
546.91        18.87489
547.35        19.24386
547.79        19.52037
548.22        19.65918
548.66         19.7241
549.10        19.74964
549.53        19.87787
549.97        20.11996
550.41        20.12531
550.84        20.26961
551.28        20.35313
551.72        20.50994
552.15        20.70636
552.59        20.94021
553.03         21.2054
553.46        21.45098
553.90        21.62023
554.34        21.70085
554.77        21.71166
555.21        21.69426
555.65        21.70494
556.08        21.75877
556.52        21.83898
556.96        21.93508
557.39        22.05825
557.83        22.19368
558.27        22.28738
558.70        22.33842
559.14        22.38846
559.57        22.43195
560.01        22.46938
560.45        22.49393
560.88        22.46782
561.32        22.44176
561.75        22.47649
562.19        22.64464
562.63        22.73465
563.06        22.76224
563.50        22.79998
563.93        22.85695
564.37        22.98866
564.80        23.09519
565.24        23.24391
565.68        23.36619
566.11        23.49151
566.55        23.63999
566.98        23.55261
567.42        23.61646
567.85        23.84168
568.29         23.7343
568.72        24.00562
569.16        24.39235
569.60        24.63888
570.03        24.70303
570.47        24.75112
570.90        24.70818
571.34        25.01913
571.77        24.87403
572.21        25.26457
572.64        25.47948
573.08        25.55537
573.51        25.74776
573.95        26.29362
574.38        26.42958
574.82        26.58331
575.25        26.53099
575.69        26.36063
576.12        26.33686
576.56        26.24753
576.99        26.55154
577.42        26.58861
577.86        26.68146
578.29        26.73796
578.73        26.92425
579.16        26.50823
579.60        26.59422
580.03        26.38264
580.47        26.63917
580.90        26.19645
581.33        25.98035
581.77        26.21091
582.20        26.69428
582.64        26.05717
583.07        25.70219
583.51        25.90633
583.94        25.45826
584.37        25.30605
584.81        25.22003
585.24        25.17192
585.68        25.18939
586.11        24.98413
586.54        24.86249
586.98         24.7298
587.41        24.75826
587.85        24.79436
588.28        24.80515
588.71        24.64873
589.15        24.39245
589.58        24.23377
590.01        24.34773
590.45        24.68232
590.88         24.4603
591.31        24.34348
591.75        24.13218
592.18        24.26895
592.61        24.16701
593.05        24.54866
593.48        24.40804
593.91        24.88275
594.35        24.43839
594.78        24.74099
595.21         25.1096
595.65        25.28655
596.08        25.06758
596.51        25.05802
596.94        25.25877
597.38         25.4297
597.81        25.59891
598.24        25.72353
598.68        26.09896
599.11        26.37176
599.54        27.02394
599.97        26.96223
600.41        27.16742
600.84        27.61429
601.27        28.04731
601.70        28.37212
602.14        28.48935
602.57        28.85145
603.00         29.4048
603.43        30.03722
603.87        30.24643
604.30        30.54547
604.73        30.82719
605.16         31.2117
605.60        31.54168
606.03        32.03511
606.46        32.48589
606.89        33.24232
607.32        33.37868
607.76        33.65103
608.19        34.05861
608.62        34.38491
609.05        34.54204
609.48        34.81249
609.92        35.19147
610.35        35.41177
610.78        36.12764
611.21        36.87284
611.64        36.61192
612.07        37.06171
612.50        37.34331
612.94        37.22694
613.37        37.82294
613.80        38.09998
614.23        38.40553
614.66        38.88506
615.09         39.1497
615.52        39.49153
615.96        39.72642
616.39        40.00286
616.82        40.39444
617.25        40.06093
617.68        40.60259
618.11        40.90591
618.54        41.04007
618.97        41.26236
619.40        41.45188
619.84        41.43209
620.27        41.17949
620.70        41.53063
621.13        42.33139
621.56        42.69238
621.99        42.63903
622.42         42.6733
622.85        42.90043
623.28        42.94493
623.71         42.7797
624.14        43.30387
624.57        43.05916
625.00        42.88044
625.43        43.25723
625.86        42.58778
626.29        42.75506
626.72        42.54304
627.15        42.46083
627.58        42.41817
628.01        42.38274
628.44        42.26818
628.87         42.0359
629.30        41.76914
629.73        41.49417
630.16        41.05513
630.59        40.90443
631.02        40.52213
631.45        40.14019
631.88        40.01197
632.31        39.49675
632.74        39.13876
633.17        38.73629
633.60        38.31412
634.03        37.87045
634.46        37.41409
634.89        36.95815
635.32         36.5034
635.75        36.05787
636.18        35.62947
636.61        35.21331
637.04        34.79678
637.47        34.37572
637.89        33.95242
638.32        33.54058
638.75        33.18308
639.18        32.88947
639.61        32.65286
640.04        32.43145
640.47        32.15491
640.90        31.81168
641.33         31.4259
641.76        31.05584
642.18        30.79996
642.61        30.67571
643.04         30.6525
643.47         30.6794
643.90        30.67123
644.33         30.6054
644.76        30.51479
645.18        30.42397
645.61          30.376
646.04        30.38688
646.47        30.43864
646.90        30.54834
647.33        30.74489
647.75        31.02914
648.18         31.3931
648.61        31.78254
649.04        32.11441
649.47        32.37572
649.89        32.56015
650.32        32.74522
650.75        33.12859
651.18        33.70942
651.61        34.26776
652.03        34.78714
652.46        35.41126
652.89        36.07335
653.32        36.48662
653.74        36.77447
654.17         37.0067
654.60        37.84508
655.03        38.74966
655.46        38.20053
655.88        39.90748
656.31        40.82045
656.74        46.41619
657.16        43.51443
657.59        40.33278
658.02        41.31756
658.45        42.20478
658.87        42.94586
659.30        43.19434
659.73        44.01151
660.15        44.85537
660.58        44.77524
661.01        44.86163
661.44          44.883
661.86        45.21518
662.29         45.8254
662.72        46.45538
663.14        46.99329
663.57          47.213
664.00        47.20938
664.42        47.39732
664.85        47.82781
665.27        48.22626
665.70        48.53888
666.13        48.82273
666.55        49.06546
666.98        49.33182
667.41        49.49125
667.83        49.68573
668.26        49.87161
668.69         50.0582
669.11        50.24064
669.54        50.39198
669.96         50.5105
670.39        50.65186
670.82        50.83418
671.24        50.92926
671.67        50.99645
672.09        51.37396
672.52        51.94044
672.94          52.123
673.37        51.95632
673.80        51.88562
674.22        52.05299
674.65        52.14931
675.07        52.21982
675.50        52.40977
675.92        52.67782
676.35        52.82618
676.77        52.82307
677.20        52.82365
677.62        52.77821
678.05         52.7731
678.47        52.76366
678.90        53.15059
679.32        53.32228
679.75        53.30883
680.17        53.58138
680.60        53.67875
681.02         53.7972
681.45         53.8015
681.87        53.77087
682.30        53.93502
682.72        54.25041
683.15        54.43167
683.57        54.46733
684.00        54.43497
684.42        54.52631
684.85         54.6269
685.27        54.79618
685.70        54.99584
686.12        55.17484
686.54        55.36572
686.97        55.56841
687.39        55.40898
687.82         55.5791
688.24        55.56637
688.66         55.5812
689.09        55.59473
689.51        55.62989
689.94        55.68544
690.36        55.76805
690.78        55.87738
691.21        55.98415
691.63        56.10741
692.06        56.24862
692.48         56.2358
692.90        56.16239
693.33        56.53522
693.75         56.4182
694.17         56.6339
694.60        56.82447
695.02        56.77954
695.44        56.51492
695.87         56.4109
696.29        56.50201
696.71        56.44056
697.14        56.38794
697.56        56.84659
697.98        57.55154
698.41        58.43176
698.83        57.98064
699.25        57.62707
699.68        57.40585
700.10         57.2396
700.52        57.28577
700.94        57.51102
701.37        57.82508
701.79        58.08662
702.21        58.22062
702.64         58.2764
703.06        58.29602
703.48         58.3531
703.90        58.47014
704.33        58.61084
704.75         58.7368
705.17        58.76638
705.59        58.68903
706.01        58.54511
706.44        58.41832
706.86        58.42795
707.28        58.59731
707.70        58.89677
708.12        59.24292
708.55        59.48182
708.97        59.57494
709.39        59.58244
709.81        59.53273
710.23        59.46431
710.66        59.40319
711.08        59.35846
711.50        59.35518
711.92        59.34793
712.34        59.50209
712.76        59.68997
713.19        59.89029
713.61        60.02862
714.03        60.06187
714.45         60.0117
714.87        59.95497
715.29        60.01865
715.71        60.22479
716.13        60.53146
716.56        60.83656
716.98        61.03868
717.40        61.07537
717.82        60.98276
718.24        60.83215
718.66        60.75151
719.08        60.76996
719.50        60.82503
719.92        60.88428
720.34        60.91737
720.76        60.91086
721.19        60.87561
721.61        60.83707
722.03        60.80645
722.45        60.81191
722.87        60.83335
723.29        60.88885
723.71        61.00101
724.13           61.17
724.55        61.38856
724.97         61.6328
725.39        61.83889
725.81        61.98128
726.23        62.10623
726.65        62.24052
727.07        62.19898
727.49        62.36373
727.91        62.42971
728.33        62.48435
728.75        62.47922
729.17         62.4161
729.59        62.31156
730.01        62.20904
730.43         62.1987
730.85        62.29813
731.27        62.45078
731.69         62.6003
732.10        62.81849
732.52        62.83282
732.94        62.84714
733.36         62.8077
733.78        62.78638
734.20        62.81187
734.62        62.78345
735.04        62.82114
735.46        62.89935
735.88         62.8737
736.30        62.85035
736.72        62.84129
737.13        63.04025
737.55        63.36423
737.97        63.66928
738.39         63.8616
738.81        63.79563
739.23        63.56562
739.65        63.51431
740.06        63.59299
740.48        63.67155
740.90        63.68336
741.32        63.12141
741.74        63.23881
742.16        63.18648
742.57        63.35361
742.99         63.6102
743.41         63.8957
743.83        64.10117
744.25        64.17563
744.67        64.14336
745.08        64.05064
745.50        63.95889
745.92        63.91614
746.34        63.87008
746.75        63.79257
747.17         63.7468
747.59        63.75898
748.01         63.4172
748.42        63.56325
748.84        63.53748
749.26        63.62255
749.68        63.83443
750.09        64.13992
750.51        64.47082
750.93        64.72055
751.35        64.74902
751.76         64.5862
752.18        64.41042
752.60        64.22379
753.01        64.26775
753.43        63.92971
753.85        63.94757
754.27        64.14433
754.68        64.52757
755.10        64.94058
755.52        65.06808
755.93        64.90992
756.35        64.72171
756.77        64.60934
757.18        64.59655
757.60        64.75523
758.02        65.02278
758.43        65.24403
758.85        65.54546
759.26        65.77045
759.68        65.08754
760.10        65.05494
760.51        64.95141
760.93        65.05897
761.34        64.44364
761.76        65.07374
762.18        64.88755
762.59        64.63535
763.01        64.46101
763.42        65.09216
763.84        65.41186
764.26        65.54021
764.67        65.49296
765.09        65.41738
765.50         65.6507
765.92        66.12119
766.33        66.33124
766.75        66.15444
767.16         65.8392
767.58        65.45639
768.00         65.0586
768.41        64.82743
768.83        65.04814
769.24        65.60119
769.66        66.02449
770.07        66.18092
770.49        66.08685
770.90        65.86571
771.32        65.93622
771.73        66.26037
772.15        66.33784
772.56        66.18233
772.97        66.04194
773.39        65.93373
773.80        66.02727
774.22        66.18188
774.63        65.76556
775.05        65.04352
775.46        64.86586
775.88        65.31255
776.29        65.95784
776.70        66.53112
777.12        66.78692
777.53        66.64087
777.95        66.15107
778.36        65.56692
778.77        65.31303
779.19        65.49107
779.60        66.01133
780.02        66.61562
780.43        67.01241
780.84        67.10397
781.26        66.74271
781.67        66.20918
782.09        66.54298
782.50        67.51762
782.91        67.62116
783.33        66.89298
783.74        66.65667
784.15        66.93619
784.57          67.045
784.98        66.92009
785.39        66.60706
785.81        66.21471
786.22        66.15993
786.63        66.39051
787.04        66.44913
787.46         66.3194
787.87        66.25901
788.28        66.32669
788.70        66.43973
789.11        66.58707
789.52        66.87731
789.93        67.20764
790.35        67.20826
790.76        66.93382
791.17        66.85755
791.58        67.02299
792.00         66.9929
792.41        66.77949
792.82        66.92421
793.23        67.25324
793.65        66.88942
794.06        66.17998
794.47        66.28896
794.88        66.94182
795.29        68.43078
795.71        67.71609
796.12        67.37328
796.53        68.01913
796.94        67.54517
797.35        66.59346
797.76        66.34699
798.18        66.84137
798.59        67.08385
799.00        67.01035
799.41        67.23676
799.82        67.68779
800.23        67.93146
800.64        67.91164
801.06        67.70596
801.47        67.46421
801.88        67.37855
802.29        67.49416
802.70        67.72633
803.11        67.94995
803.52        67.96853
803.93        67.74818
804.34        67.37917
804.75        66.96472
805.17        66.72115
805.58         66.7224
805.99        66.71485
806.40        66.74624
806.81        67.30715
807.22        68.04512
807.63        68.36458
808.04        67.08913
808.45        66.92895
808.86         67.5899
809.27        68.20818
809.68        68.59302
810.09        68.87115
810.50        68.97958
810.91        68.87115
811.32        68.61672
811.73        68.32907
812.14        68.05569
812.55        67.78771
812.96        67.54702
813.37           67.36
813.78        67.24722
814.19        67.23402
814.60        67.29378
815.01        67.37075
815.42        67.44479
815.83        67.50425
816.24        67.57909
816.65        67.72866
817.05        67.95852
817.46        68.20548
817.87         68.3945
818.28        68.37227
818.69        68.13324
819.10        67.73475
819.51        67.33965
819.92        67.28369
820.33        67.65186
820.74        68.19393
821.14        68.77721
821.55        69.47144
821.96        70.05058
822.37        69.86848
822.78        69.07375
823.19        68.56825
823.60        68.47633
824.00          68.346
824.41        68.12368
824.82        68.03048
825.23        68.06554
825.64        68.18964
826.04        68.37733
826.45        68.52771
826.86        68.62041
827.27        68.67441
827.68        68.67645
828.08        68.63337
828.49        68.50619
828.90        68.31672
829.31        68.12663
829.72        68.04904
830.12        68.12592
830.53        68.29163
830.94        68.47603
831.35        68.53489
831.75        68.46102
832.16        68.26843
832.57        68.03912
832.97        67.89174
833.38        67.85233
833.79        67.87585
834.20        67.96466
834.60        68.11726
835.01         68.3293
835.42        68.60809
835.82        68.85772
836.23        68.86409
836.64        68.61122
837.04        68.14856
837.45        67.66221
837.86        67.50119
838.26        67.75566
838.67         68.3109
839.08        68.93335
839.48        69.17534
839.89        68.92189
840.29        68.34331
840.70        67.74314
841.11         67.4996
841.51        67.71581
841.92         68.2088
842.33        68.86476
842.73        69.49408
843.14        69.90716
843.54        70.21425
843.95        70.30328
844.35        70.06909
844.76        69.54287
845.17         68.7971
845.57        68.03941
845.98         67.6106
846.38        67.58748
846.79        67.87264
847.19        68.40141
847.60        68.90833
848.00        69.33167
848.41        69.67503
848.81        69.93792
849.22        70.04482
849.62        70.03454
850.03         69.8526
850.43        69.63088
850.84        69.53642
851.24        69.66284
851.65        69.92073
852.05        70.22182
852.46         70.3001
852.86        70.10913
853.27        69.75831
853.67        69.32595
854.07         69.0435
854.48        68.93999
854.88        68.98779
855.29        69.06391
855.69        69.09843
856.10        68.98216
856.50        68.81702
856.90        68.66681
857.31        68.66774
857.71        68.91752
858.12        69.29868
858.52        69.69961
858.92        69.84908
859.33        69.67664
859.73        69.28034
860.13        68.81795
860.54        68.60363
860.94         68.7823
861.34         69.2205
861.75        69.68295
862.15        69.87804
862.55        69.69023
862.96        69.26926
863.36        68.75253
863.76        68.34547
864.17        68.12745
864.57        68.03211
864.97        68.11544
865.38        68.45565
865.78        69.07466
866.18        69.89114
866.58        70.61859
866.99        70.74694
867.39        70.19099
867.79        69.07002
868.19        67.67374
868.60        66.46202
869.00        65.56303
869.40        64.92745
869.80         64.5844
870.21        64.53734
870.61        64.80608
871.01        65.36545
871.41        66.02296
871.81        66.44957
872.22        66.59401
872.62        66.52409
873.02        66.33872
873.42        66.47421
873.82        66.78395
874.22          66.586
874.63        66.15234
875.03        66.11771
875.43        66.55441
875.83        68.36442
876.23        68.19949
876.63        67.41774
877.03         65.4191
877.44        62.36031
877.84        135.3214
878.24        61.88474
878.64        63.42994
879.04        68.08569
879.44        64.46262
879.84        62.62164
880.24         67.8878
880.64         68.4444
881.04        65.49528
881.44        63.60292
881.84        63.43947
882.24        64.26836
882.65        65.57047
883.05        66.24192
883.45        65.92149
883.85        65.31821
884.25        64.80724
884.65        64.63507
885.05        64.90316
885.45        65.47398
885.85        66.10735
886.25        66.43754
886.65        66.35854
887.05         66.0097
887.45        65.57198
887.85        65.30329
888.25        65.28874
888.65        65.45412
889.04        65.75504
889.44        66.04564
889.84        66.28724
890.24        66.48927
890.64         66.6516
891.04        66.78394
891.44        66.86154
891.84        66.83189
892.24        66.64436
892.64        66.23321
893.04        65.63585
893.44        64.97679
893.83        64.27874
894.23        63.57743
894.63        62.90026
895.03        62.23639
895.43         61.8041
895.83           61.96
896.23        62.72738
896.63         63.9782
897.02        65.27201
897.42        65.80878
897.82         65.4143
898.22        64.34808
898.62        63.06619
899.01        62.28041
899.41        62.20842
899.81        62.59845
900.21        63.28011
900.61        63.99947
901.00        64.62373
901.40        65.20525
901.80        65.65504
902.20        65.79185
902.59        65.60554
902.99        65.14919
903.39        64.53235
903.79         63.9665
904.18        63.54292
904.58         63.2514
904.98         63.2098
905.38        63.58838
905.77        64.35675
906.17        65.45641
906.57        66.52753
906.96        67.02665
907.36        66.80027
907.76        65.98335
908.15        64.99895
908.55         64.4864
908.95        64.62829
909.34        65.28768
909.74        66.03016
910.14        66.07888
910.53        65.25462
910.93        63.88696
911.33        62.57447
911.72        62.25339
912.12        63.06335
912.52        64.60889
912.91        66.30457
913.31        67.17806
913.70         67.0346
914.10        66.15131
914.49        64.82523
914.89        63.75965
915.29        63.24941
915.68        63.10815
916.08        63.27013
916.47        63.62946
916.87        64.07616
917.26        64.64957
917.66        65.21031
918.05        65.55023
918.45        65.59434
918.84        65.42475
919.24        65.04988
919.64        64.51878
920.03        63.90344
920.42        63.22221
920.82        62.75407
921.21        62.88146
921.61        63.59224
922.00        64.80167
922.40        66.01524
922.79        66.65782
923.19        66.58309
923.58        65.72002
923.98        64.31002
924.37        63.62459
924.77        64.15417
925.16        61.79285
925.55        63.43242
925.95        63.35315
926.34        63.58749
926.74        63.95189
927.13        64.41468
927.52        64.69624
927.92        64.70486
928.31         64.5837
928.70         64.3535
929.10        64.12276
929.49        63.95019
929.89        63.79269
930.28        63.78328
930.67        64.13247
931.07        64.80823
931.46        65.78214
931.85        66.69325
932.24        67.01366
932.64        66.63452
933.03        65.60433
933.42        64.28929
933.82        63.47454
934.21        63.38066
934.60        63.81964
934.99        64.19183
935.39        63.97924
935.78        63.11935
936.17        61.14441
936.56        58.31001
936.96        59.50172
937.35        58.73811
937.74        60.66613
938.13         62.6114
938.53        63.89485
938.92        64.44099
939.31        64.52156
939.70        64.39671
940.09         64.3672
940.49        64.57208
940.88        64.89137
941.27        65.28372
941.66        65.74973
942.05        66.25115
942.44        66.77468
942.84        67.26416
943.23        67.62591
943.62        67.80556
944.01        67.85955
944.40        67.69163
944.79        67.15305
945.18        66.25686
945.57        65.04096
945.97        63.91718
946.36        63.54356
946.75        64.12139
947.14        65.38915
947.53        66.75673
947.92        67.41531
948.31        67.20963
948.70        66.37663
949.09        65.26351
949.48        64.48962
949.87        64.27091
950.26        64.42513
950.65        64.75828
951.04        64.95448
951.43        64.90324
951.82        64.72106
952.21        64.50546
952.60        64.38554
952.99        64.39077
953.38        64.44999
953.77        64.47414
954.16        64.34521
954.55        64.04165
954.94        63.62068
955.33        63.17926
955.72        62.85894
956.11        62.71998
956.50        62.75325
956.89        62.90939
957.28        63.08621
957.66        63.25047
958.05        63.33601
958.44        63.43085
958.83         63.6593
959.22          64.024
959.61        64.49516
960.00        64.82815
960.39        64.60579
960.78        63.76089
961.16        62.41883
961.55        61.07852
961.94        60.37124
962.33        60.44303
962.72        61.15172
963.11        62.05499
963.49        62.39496
963.88        61.89045
964.27        60.78455
964.66        59.59966
965.04        59.19206
965.43        59.75658
965.82        61.03919
966.21        62.46727
966.60         63.1167
966.98        62.78385
967.37        61.74613
967.76        60.60401
968.15         60.3002
968.53         61.0557
968.92        62.44444
969.31         63.9589
969.69        64.76833
970.08         64.5658
970.47        63.68114
970.86        62.33984
971.24        60.86084
971.63        59.49588
972.02        58.18547
972.40         57.1175
972.79        56.65508
973.17        56.87509
973.56        57.61961
973.95        58.70765
974.33        59.75294
974.72        60.45096
975.11        60.87091
975.49        60.85751
975.88         60.1976
976.26        58.95833
976.65        57.28874
977.04        55.57721
977.42        54.51256
977.81        54.33605
978.19        54.85514
978.58        55.93684
978.96        57.30796
979.35        58.72115
979.74         60.2992
980.12        61.68771
980.51        62.04395
980.89        61.36662
981.28         59.8358
981.66        58.25427
982.05        57.76306
982.43        58.52783
982.82        60.20777
983.20         62.2228
983.59        63.21096
983.97        62.84076
984.35        61.42288
984.74        59.62779
985.12        58.40719
985.51        58.04688
985.89        58.24203
986.28         58.6417
986.66         58.6308
987.04        57.98141
987.43        57.06739
987.81        56.03942
988.20        54.96554
988.58        53.77662
988.96        52.25247
989.35        50.67091
989.73        49.90128
990.12        50.37395
990.50        51.91617
990.88         53.5493
991.27        54.10931
991.65        53.64406
992.03        52.41331
992.42        51.21477
992.80        51.52467
993.18        53.69837
993.56        56.94413
993.95        60.23604
994.33        62.61806
994.71        63.69413
995.10        63.82288
995.48        63.25688
995.86        62.28055
996.24        61.04686
996.63        59.43666
997.01        57.56704
997.39        56.05836
997.77        55.28413
998.15        55.22075
998.54        55.54698
998.92        55.77135
999.30        55.74777
999.68        55.59301
1000.06        55.12319
1000.45         54.1467
1000.83        52.94465
1001.21        51.64086
1001.59        50.67327
1001.97        50.35616
1002.35        50.55227
1002.73        51.16715
1003.12        51.76643
1003.50         51.4469
1003.88        49.89502
1004.26        47.59269
1004.64          45.169
1005.02        43.39575
1005.40         42.4829
1005.78          42.168
1006.16        42.75392
1006.54        44.62304
1006.92        47.26205
1007.30        50.05806
1007.69        52.08651
1008.07         52.6396
1008.45        51.50807
1008.83        48.56541
1009.21        43.38114
1009.59        36.94584
1009.97         31.4156
1010.35         27.7684
1010.73        27.23833
1011.11        29.89411
1011.49        34.73985
1011.86        41.46571
1012.24        47.23487
1012.62        49.47017
1013.00        48.09103
1013.38        44.03302
1013.76        38.95491
1014.14        35.89462
1014.52        35.78925
1014.90        37.75514
1015.28        40.52171
1015.66        41.90575
1016.04        41.10967
1016.41        38.71475
1016.79         35.3018
1017.17        32.40449
1017.55        31.05261
1017.93        30.75908
1018.31        31.08286
1018.69        31.65929
1019.06        32.25317
1019.44        32.69141
1019.82        32.92601
1020.20        32.64191
1020.58        31.68663
1020.95        30.27587
1021.33        27.82429
1021.71        22.44628
1022.09          12.247
1022.46       -7.980701
1022.84        -39.4109
1023.22       -52.81641
1023.60       -28.52692
1023.97        2.287119
1024.35        20.57155
1024.73        27.15373
