SpectraSmart Spectrum 2.9.0.0
--------- Device Information -----------
Spectrum Name :  反射率_0
Saving Time :  2024/04/20 00:56:13
Spectro-Module Model Name : SE2030-DUVN
Spectro-Module Serial Number : OS361AC55029948
Wavelength Start : 200
Wavelength End : 1025
Wavelength Unit : Wavelength(nm)
Spectrum Unit : Reflectance(%)
-----------Spectrum Setting ------------
Integration Time : 30ms
Average : 10
Boxcar : 0
Background removal :  enabled
linearity correction :  enabled
SC :  disabled
Intensity correction :  disabled
DWT denoise :  enabled
savitzky-golay :  disabled
FFT :  disabled
Running average :  disabled
Kalman :  disabled
High pass :  disabled
---------------BEGIN--------------------
Wavelength(nm)             Reflectance(%)
200.29               0
200.75        71.56921
201.21        69.97883
201.67        69.05312
202.13        71.63396
202.58        79.10571
203.04         91.4546
203.50        104.3023
203.96        106.7672
204.42        98.31665
204.88        85.99675
205.34        75.51709
205.80        69.38874
206.26        66.53492
206.72        65.45586
207.18        66.00504
207.64        67.60437
208.10        69.27529
208.55        71.50108
209.01        72.76221
209.47        72.62697
209.93         71.4668
210.39        69.51123
210.85         67.5267
211.31        66.48752
211.77        66.46017
212.23        67.21625
212.69        68.75839
213.14        70.44083
213.60        71.10555
214.06        71.52136
214.52        71.65622
214.98        71.56763
215.44        71.28727
215.90        70.41805
216.36         69.7487
216.81        70.99837
217.27        74.29902
217.73        79.13622
218.19        82.89797
218.65        82.02825
219.11        76.00359
219.57        65.25154
220.02        52.83938
220.48        46.93938
220.94        50.36298
221.40        61.24098
221.86        74.16663
222.32        80.76396
222.77        79.11766
223.23        72.38103
223.69         64.3531
224.15        60.49642
224.61        61.48363
225.06        64.58758
225.52         68.0079
225.98        70.45952
226.44         71.7964
226.90        72.68961
227.36        73.11335
227.81        72.69004
228.27        71.77869
228.73        70.45352
229.19        69.15039
229.65        68.42768
230.10        68.26624
230.56        68.52548
231.02        69.04842
231.48        69.71074
231.93         70.3703
232.39         71.0898
232.85        71.60612
233.31        71.55678
233.77        70.89517
234.22        69.72345
234.68        68.34454
235.14        67.24075
235.60        66.62591
236.05        66.44326
236.51        66.57083
236.97        66.77597
237.43        67.00844
237.88        67.52772
238.34        68.25422
238.80        69.46882
239.26        71.03322
239.71        72.60136
240.17        73.68197
240.63         74.2962
241.08        74.57241
241.54        74.52929
242.00        73.91547
242.46        72.03979
242.91        68.49372
243.37        62.35815
243.83        54.40038
244.28        50.73909
244.74         56.7022
245.20        70.54724
245.66         83.5717
246.11        88.99152
246.57        86.43758
247.03        76.40125
247.48        60.57203
247.94        52.68222
248.40        56.95827
248.85        64.52719
249.31        70.64011
249.77        73.97313
250.22        75.24253
250.68        75.61237
251.14        75.33289
251.59        74.54014
252.05        73.61476
252.51        72.57454
252.96         71.4785
253.42        70.82367
253.88        70.89345
254.33        71.59838
254.79        73.72909
255.25        77.72182
255.70        82.95963
256.16        88.53659
256.62        93.17303
257.07        95.48724
257.53        95.67311
257.99         94.2766
258.44        91.44606
258.90        88.41602
259.35        85.44679
259.81         83.4372
260.27        81.99791
260.72        80.80345
261.18        80.05367
261.63        79.14137
262.09        78.77078
262.55        79.24654
263.00        80.23134
263.46        81.62984
263.91        82.26815
264.37        81.24214
264.83        78.62069
265.28        74.90821
265.74        71.45135
266.19        69.53885
266.65        69.43139
267.11        70.40533
267.56        71.61281
268.02        71.89319
268.47        70.97191
268.93         69.2894
269.38        67.18826
269.84        65.44511
270.30        64.30135
270.75        63.51049
271.21        62.95084
271.66        62.41877
272.12        61.81665
272.57        61.20284
273.03        60.56629
273.48        59.75086
273.94        58.81929
274.39        57.77063
274.85        56.71916
275.31         55.7488
275.76        54.85242
276.22         54.0317
276.67        53.27388
277.13        52.72121
277.58        52.28397
278.04         51.9793
278.49        51.56219
278.95        50.81161
279.40         49.6561
279.86        48.30368
280.31        46.90675
280.77        45.88034
281.22        45.20684
281.68        44.81631
282.13        44.51972
282.59        44.11562
283.04        43.53263
283.50        42.90335
283.95        42.26253
284.41        41.72959
284.86        41.29621
285.32        40.94864
285.77        40.67468
286.22        40.55082
286.68        40.56673
287.13        40.65665
287.59        40.73248
288.04        40.60426
288.50        40.27447
288.95        39.75818
289.41        39.19451
289.86        38.71192
290.32        38.40898
290.77        38.23669
291.22        38.16763
291.68        38.12138
292.13        38.07624
292.59         38.0862
293.04        38.20604
293.50        38.54502
293.95        39.09663
294.40        39.80608
294.86        40.57809
295.31        41.27548
295.77        41.86417
296.22        42.38298
296.68        42.87461
297.13        43.39318
297.58        43.96586
298.04        44.57146
298.49        45.21656
298.95         45.9612
299.40        46.78048
299.85        47.65876
300.31        48.51937
300.76        49.22208
301.21        49.75175
301.67        50.18785
302.12        50.56911
302.58          51.044
303.03        51.61292
303.48        52.25909
303.94        52.99413
304.39        53.78035
304.84        54.60103
305.30        55.43877
305.75        56.20345
306.20        56.79908
306.66        57.22782
307.11        57.49373
307.57        57.66116
308.02        57.73178
308.47        57.76303
308.93        57.75938
309.38        57.77596
309.83        57.96426
310.29        58.33183
310.74        58.82709
311.19        59.28613
311.65        59.44072
312.10        59.22931
312.55        58.73569
313.00        58.15883
313.46        57.80695
313.91        57.73521
314.36        57.87261
314.82         58.0457
315.27        58.00346
315.72        57.67099
316.18        57.15493
316.63        56.59397
317.08        56.21536
317.53        56.06459
317.99        56.05058
318.44        56.05767
318.89        55.88743
319.35        55.48814
319.80        54.93457
320.25        54.31654
320.70        53.77718
321.16        53.35539
321.61        53.01324
322.06        52.70701
322.51        52.37377
322.97        51.98119
323.42        51.56549
323.87        51.12682
324.32        50.66887
324.78        50.18935
325.23        49.70378
325.68        49.20981
326.13        48.72071
326.59        48.24628
327.04        47.81908
327.49        47.44968
327.94        47.15915
328.39        46.94227
328.85        46.75677
329.30         46.6289
329.75        46.52767
330.20        46.43084
330.66          46.314
331.11         46.1491
331.56        45.82831
332.01        45.33739
332.46         44.7054
332.92        44.01805
333.37        43.45512
333.82        43.07268
334.27        42.85497
334.72        42.74004
335.17        42.60932
335.63        42.41043
336.08        42.18623
336.53        41.99403
336.98        41.94807
337.43        42.06113
337.88        42.28767
338.34        42.46503
338.79        42.38834
339.24        41.99738
339.69        41.35518
340.14        40.67797
340.59        40.32944
341.05        40.38662
341.50        40.74923
341.95        41.17958
342.40        41.30647
342.85        41.04722
343.30        40.52984
343.75        39.93836
344.20        39.57175
344.66        39.51001
345.11        39.62752
345.56        39.82682
346.01        39.95365
346.46        39.94712
346.91        39.87211
347.36        39.70762
347.81        39.40929
348.26        38.99834
348.72        38.50822
349.17        38.02974
349.62        37.79276
350.07        37.84304
350.52        38.10561
350.97         38.4472
351.42        38.66206
351.87         38.6859
352.32        38.56819
352.77        38.34601
353.22        38.08433
353.67        37.81979
354.13          37.555
354.58        37.28291
355.03        37.03913
355.48        36.83983
355.93        36.69462
356.38        36.61636
356.83        36.61639
357.28        36.67698
357.73        36.76515
358.18        36.83838
358.63        36.83258
359.08        36.72466
359.53        36.53921
359.98         36.2615
360.43        35.86969
360.88         35.3852
361.33        34.82912
361.78        34.31123
362.23        34.00832
362.68        33.95066
363.13        34.07765
363.58        34.25641
364.03        34.27728
364.48        34.07921
364.93        33.71216
365.38        33.24859
365.83        32.82159
366.28        32.48491
366.73        32.20766
367.18        31.96206
367.63        31.70427
368.08        31.42516
368.53         31.1507
368.98        30.91304
369.43        30.74802
369.88        30.65884
370.33         30.6306
370.78        30.61154
371.23         30.5225
371.68        30.34302
372.13        30.08508
372.58        29.82093
373.03        29.67593
373.48        29.67191
373.93        29.76462
374.38        29.84957
374.83        29.76653
375.28        29.48468
375.72        29.05141
376.17        28.58757
376.62         28.2459
377.07        28.07911
377.52        28.04288
377.97        28.07856
378.42        28.09551
378.87        28.05876
379.32        27.98613
379.77        27.90411
380.22        27.84884
380.67        27.82427
381.11        27.82049
381.56        27.77228
382.01        27.60051
382.46        27.29941
382.91        26.90117
383.36        26.51526
383.81        26.30281
384.26        26.29037
384.71         26.4317
385.15        26.59437
385.60        26.58226
386.05        26.35304
386.50        25.97208
386.95        25.57066
387.40        25.35691
387.85        25.37505
388.29        25.54289
388.74        25.74798
389.19        25.81512
389.64        25.70196
390.09        25.45306
390.54        25.15818
390.98        24.94887
391.43        24.88224
391.88        24.90917
392.33           24.93
392.78        24.80374
393.23        24.52322
393.67        24.13156
394.12        23.79336
394.57         23.6545
395.02        23.73627
395.47        23.98296
395.91        24.27064
396.36        24.35397
396.81        24.18319
397.26        23.83544
397.71        23.45658
398.15        23.24504
398.60        23.26748
399.05        23.43358
399.50        23.63349
399.95        23.71239
400.39        23.63293
400.84        23.44301
401.29        23.21405
401.74        23.07584
402.18        23.07379
402.63        23.15404
403.08        23.24558
403.53        23.23229
403.97        23.08877
404.42         22.8709
404.87        22.64735
405.32        22.52984
405.76        22.54284
406.21        22.64353
406.66        22.77595
407.11         22.8537
407.55        22.85172
408.00        22.80154
408.45        22.71704
408.90        22.56429
409.34        22.38149
409.79        22.28826
410.24        22.26268
410.68        22.17326
411.13        22.02396
411.58        21.89673
412.03        21.81215
412.47        21.77529
412.92        21.78516
413.37        21.82714
413.81        21.90014
414.26        22.01819
414.71        22.16562
415.15        22.34527
415.60        22.47028
416.05        22.43303
416.49        22.21675
416.94        21.86102
417.39        21.48613
417.83        21.28576
418.28        21.30957
418.73        21.49253
419.17        21.72221
419.62        21.81101
420.07        21.71744
420.51        21.50461
420.96        21.25353
421.41        21.06693
421.85        20.97286
422.30        20.94973
422.74        20.97144
423.19        21.03616
423.64        21.12383
424.08        21.24954
424.53        21.36919
424.98        21.43566
425.42         21.4383
425.87        21.38582
426.31        21.29825
426.76         21.2205
427.21        21.15438
427.65        21.08077
428.10        21.02307
428.54        20.99232
428.99        20.99628
429.44        21.12658
429.88        21.27659
430.33          21.138
430.77        20.78415
431.22        20.62619
431.66         20.7002
432.11        20.83248
432.56        20.98596
433.00         21.2283
433.45         21.3849
433.89         21.2805
434.34        21.01476
434.78        20.64566
435.23        20.22552
435.67        20.92891
436.12        20.55594
436.57        20.56372
437.01        20.34464
437.46        20.25819
437.90         20.3123
438.35        20.32738
438.79        20.27881
439.24        20.23864
439.68        20.20898
440.13        20.01251
440.57        19.76182
441.02        19.95721
441.46        20.40619
441.91        20.48185
442.35        19.70896
442.80          19.466
443.24        19.55648
443.69        19.54675
444.13        19.40717
444.58        19.31196
445.02        19.27208
445.47        19.29294
445.91        19.34598
446.36        19.33914
446.80        19.25595
447.24        19.14761
447.69         19.0457
448.13        18.95775
448.58         18.8999
449.02        18.86442
449.47        18.83813
449.91        18.79231
450.36        18.72779
450.80        18.65174
451.25         18.5893
451.69        18.55849
452.13        18.56929
452.58        18.60687
453.02        18.65761
453.47        18.70432
453.91        18.73939
454.36        18.76262
454.80        18.76913
455.24        18.74953
455.69         18.7121
456.13        18.64379
456.58        18.57058
457.02        18.52167
457.46        18.50134
457.91        18.45853
458.35        18.40332
458.79        18.39777
459.24         18.4372
459.68        18.50844
460.13        18.62664
460.57        18.63689
461.01        18.51133
461.46        18.77618
461.90        18.73921
462.34        18.48734
462.79        18.65238
463.23        18.58782
463.68        18.56052
464.12         18.5145
464.56        18.59356
465.01         18.6795
465.45        18.74594
465.89        18.77029
466.34        18.75421
466.78        18.64445
467.22        18.49886
467.67        18.54443
468.11        18.73965
468.55        18.71747
468.99        18.51284
469.44        18.48223
469.88        18.63895
470.32        18.78273
470.77        18.86109
471.21        18.88809
471.65        18.85374
472.10        18.75913
472.54        18.64701
472.98        18.62579
473.42        18.71151
473.87        18.81559
474.31           18.91
474.75         19.0686
475.20        19.23733
475.64        19.21888
476.08        19.06595
476.52        19.02818
476.97         19.1227
477.41        19.23495
477.85        19.31912
478.29        19.35996
478.74        19.35153
479.18        19.26763
479.62        19.19004
480.06        19.25076
480.50        19.44191
480.95        19.63177
481.39          19.759
481.83        19.82063
482.27        19.80868
482.72        19.73048
483.16        19.63388
483.60        19.59874
484.04         19.6496
484.48         19.7953
484.93        20.06622
485.37        20.22074
485.81        20.49516
486.25        20.84308
486.69        21.92359
487.14        21.26022
487.58        20.59797
488.02        21.47452
488.46        21.24643
488.90        21.56139
489.34         21.3302
489.79        21.45391
490.23         21.8525
490.67        22.05695
491.11        22.07237
491.55        22.05463
491.99        22.04139
492.43         22.0517
492.88        22.10603
493.32        22.16889
493.76        22.26595
494.20        22.44966
494.64        22.71925
495.08        23.07966
495.52        23.45351
495.96        23.66771
496.41        23.73634
496.85        23.80195
497.29        23.90998
497.73        24.10919
498.17        24.37826
498.61        24.54097
499.05        24.60428
499.49        24.78369
499.93        25.08754
500.37        25.31571
500.82        25.47705
501.26        25.79414
501.70        26.20439
502.14        26.34882
502.58        26.25488
503.02         26.2716
503.46        26.42239
503.90        26.51986
504.34        26.54812
504.78        26.56941
505.22        26.58444
505.66        26.59053
506.10        26.60974
506.54        26.65379
506.98        26.72552
507.42        26.89575
507.86        27.01582
508.30        27.15327
508.74        27.25701
509.18        27.33284
509.62        27.39819
510.06        27.48461
510.50        27.60063
510.94        27.74021
511.38        27.86782
511.82        27.92623
512.26        27.90722
512.70        27.82833
513.14        27.75507
513.58         27.7856
514.02        27.93092
514.46        28.16221
514.90         28.4009
515.34        28.45441
515.78        28.34355
516.22        28.16152
516.66        28.01196
517.10         27.7339
517.54         27.3577
517.98        27.89568
518.42        27.80079
518.86        28.02199
519.30        28.08144
519.74        28.14109
520.18        28.18526
520.62        28.16732
521.06        28.10358
521.50        27.98963
521.93        27.85853
522.37        27.77486
522.81         27.7517
523.25         27.7736
523.69        27.81107
524.13        27.81613
524.57        27.77401
525.01        27.69647
525.45        27.60169
525.89         27.5183
526.32        27.45417
526.76        27.40416
527.20         27.3483
527.64        27.25984
528.08         27.1345
528.52         26.9801
528.96        26.83087
529.40        26.73631
529.83        26.70255
530.27        26.72082
530.71        26.73723
531.15        26.66932
531.59        26.50659
532.03        26.28068
532.46        26.05643
532.90        25.95491
533.34        25.98976
533.78        26.11475
534.22        26.26773
534.66        26.35354
535.09        26.34048
535.53        26.26956
535.97        26.15553
536.41        26.01826
536.85        25.87675
537.28        25.73972
537.72        25.64788
538.16         25.5881
538.60        25.69143
539.04        25.83029
539.47         25.9852
539.91         26.1354
540.35        26.27977
540.79        26.20332
541.22        26.27057
541.66        26.33583
542.10         26.5326
542.54        26.41997
542.97        26.68879
543.41        26.83456
543.85        27.04209
544.29        27.24625
544.72        27.41598
545.16        27.58182
545.60        27.73387
546.04        27.78073
546.47        27.80432
546.91        28.10981
547.35        28.62756
547.79        28.98869
548.22        29.14782
548.66        29.23437
549.10        29.30396
549.53        29.55303
549.97        29.98582
550.41        30.06284
550.84        30.33335
551.28        30.50017
551.72        30.75129
552.15        31.01431
552.59        31.29003
553.03         31.5815
553.46        31.83912
553.90          32.023
554.34        32.12292
554.77        32.15416
555.21        32.16698
555.65        32.22663
556.08        32.34638
556.52        32.50541
556.96        32.67469
557.39        32.84948
557.83        33.00684
558.27        33.07082
558.70        33.06931
559.14        33.11445
559.57        33.20714
560.01        33.33493
560.45        33.45305
560.88        33.45103
561.32        33.39073
561.75        33.37811
562.19        33.55544
562.63        33.66441
563.06        33.73552
563.50        33.85593
563.93        34.00599
564.37        34.18896
564.80        34.28709
565.24        34.41319
565.68        34.51563
566.11        34.62304
566.55        34.76519
566.98        34.83303
567.42        34.83671
567.85         35.3159
568.29        35.32472
568.72         35.7551
569.16        36.24267
569.60        36.59489
570.03         36.6901
570.47        36.78813
570.90        36.77634
571.34        37.03379
571.77        36.83329
572.21        37.57178
572.64         37.6281
573.08        37.92196
573.51        38.02477
573.95        38.50266
574.38        38.89664
574.82        39.25423
575.25        39.51803
575.69        39.31987
576.12        39.17175
576.56        39.02345
576.99        39.06377
577.42        39.32032
577.86        39.58475
578.29        39.29955
578.73        40.32702
579.16        39.71566
579.60        39.35628
580.03        38.90538
580.47        39.00174
580.90        38.70405
581.33        38.55511
581.77        38.68845
582.20        39.49438
582.64        38.96534
583.07        38.23081
583.51        38.29436
583.94        37.71107
584.37        37.36683
584.81        37.03201
585.24         37.0459
585.68        37.30689
586.11         37.2531
586.54        36.90716
586.98        36.58871
587.41        36.40979
587.85        36.44351
588.28        36.60593
588.71        36.51986
589.15        36.24828
589.58         35.8169
590.01        35.96211
590.45        36.30099
590.88         36.1577
591.31         36.0419
591.75        35.71558
592.18          35.905
592.61        35.79927
593.05        36.13783
593.48        36.23412
593.91         36.8866
594.35        36.42042
594.78        36.69442
595.21        36.82741
595.65        37.31318
596.08        37.30046
596.51         37.3881
596.94        37.46545
597.38        37.50286
597.81        37.61592
598.24        37.90231
598.68        38.83121
599.11        38.75788
599.54        40.04916
599.97        39.63319
600.41        39.89006
600.84        40.74145
601.27        41.22314
601.70        41.60398
602.14        41.92039
602.57        42.31016
603.00        42.87278
603.43        43.59811
603.87        43.76696
604.30        44.31781
604.73        45.04323
605.16        45.19017
605.60        45.58321
606.03        46.09831
606.46        46.83392
606.89         47.4309
607.32        47.77119
607.76        47.95233
608.19        48.54308
608.62        48.99928
609.05        49.41312
609.48        49.69772
609.92        49.93903
610.35         49.9537
610.78        51.03088
611.21        51.89807
611.64        51.32399
612.07        51.83558
612.50        52.04816
612.94        51.92164
613.37        52.56578
613.80        52.93146
614.23        53.35732
614.66        53.84914
615.09        53.93623
615.52        54.37607
615.96        54.86867
616.39        55.25829
616.82        55.63657
617.25        54.88632
617.68        55.54354
618.11        55.79805
618.54        56.27542
618.97        56.34661
619.40        56.02868
619.84         56.2289
620.27         55.9466
620.70        56.34507
621.13        56.99167
621.56         57.2901
621.99        57.31797
622.42        57.46284
622.85        57.81085
623.28        57.79959
623.71        57.77995
624.14        57.92307
624.57        57.99976
625.00        57.47747
625.43        57.85064
625.86        57.30515
626.29        57.27121
626.72        57.12098
627.15        57.00369
627.58        56.92828
628.01        56.76391
628.44        56.73877
628.87        56.55415
629.30        55.98896
629.73        55.70214
630.16        55.50768
630.59         55.1144
631.02        54.83331
631.45        54.50428
631.88         54.1534
632.31        53.76104
632.74        53.32135
633.17        52.83915
633.60        52.32058
634.03        51.77518
634.46        51.20862
634.89        50.63363
635.32        50.06772
635.75        49.52328
636.18        49.00813
636.61        48.52361
637.04        48.06342
637.47        47.62049
637.89        47.19633
638.32         46.7835
638.75        46.39512
639.18        46.03271
639.61        45.71853
640.04        45.38771
640.47        45.02648
640.90        44.62088
641.33        44.19241
641.76        43.79225
642.18        43.50777
642.61        43.35275
643.04        43.30327
643.47         43.3192
643.90        43.33083
644.33        43.31776
644.76        43.30603
645.18        43.30561
645.61        43.33422
646.04        43.40189
646.47        43.49464
646.90        43.64054
647.33        43.88974
647.75        44.24395
648.18        44.68256
648.61        45.14456
649.04        45.52822
649.47        45.82622
649.89        46.07191
650.32        46.33231
650.75        46.76555
651.18        47.38007
651.61         47.9922
652.03        48.65826
652.46        49.59359
652.89        50.59105
653.32        51.59381
653.74        51.56138
654.17        51.78684
654.60        52.57186
655.03        53.71515
655.46        52.89254
655.88        55.42149
656.31         56.8531
656.74        66.41855
657.16        62.82786
657.59        57.72842
658.02        57.82341
658.45        57.96463
658.87        58.95967
659.30        59.29168
659.73        59.64035
660.15        61.01931
660.58         60.3661
661.01        60.24877
661.44         59.9488
661.86        60.26416
662.29         61.0974
662.72        61.92135
663.14        62.52769
663.57        62.53456
664.00        62.16438
664.42         62.1937
664.85         62.6993
665.27        63.23551
665.70        63.71251
666.13        63.82748
666.55        64.27003
666.98        64.42026
667.41        64.52657
667.83        64.62748
668.26        64.74249
668.69         64.8666
669.11        64.99025
669.54        65.11832
669.96        65.25684
670.39        65.39214
670.82        65.54931
671.24         65.7866
671.67        66.10097
672.09        66.35058
672.52        66.69129
672.94        66.80451
673.37        66.76025
673.80        66.61559
674.22        66.47079
674.65        66.43819
675.07        66.56354
675.50        66.81438
675.92         67.1094
676.35        67.26154
676.77        67.22176
677.20        67.10444
677.62        67.00632
678.05        66.90883
678.47          66.808
678.90        67.38902
679.32        67.35244
679.75        67.61684
680.17        67.77661
680.60        67.88078
681.02        67.95554
681.45        68.01405
681.87        68.09113
682.30        68.26084
682.72        68.46883
683.15        68.39848
683.57        68.14663
684.00        68.13107
684.42        68.46712
684.85        68.74271
685.27        68.86103
685.70        69.16018
686.12        69.51073
686.54        69.70145
686.97         69.7114
687.39        69.50259
687.82        69.20087
688.24        69.32687
688.66        69.80244
689.09        69.89262
689.51        69.62617
689.94        69.69109
690.36        70.06927
690.78        70.12063
691.21        69.86091
691.63        69.88077
692.06        70.23555
692.48        70.14771
692.90        70.26585
693.33        70.71805
693.75        70.48369
694.17        70.56409
694.60        70.59303
695.02        70.45557
695.44        70.17207
695.87        70.14252
696.29        70.34219
696.71        70.17609
697.14        69.84306
697.56        70.23175
697.98        71.10575
698.41        71.86398
698.83        71.47936
699.25        71.25035
699.68        71.02819
700.10          71.038
700.52        70.98442
700.94        71.16023
701.37         71.3705
701.79        71.51496
702.21        71.53069
702.64        71.45907
703.06        71.37844
703.48        71.41169
703.90        71.58748
704.33        71.85762
704.75        72.12233
705.17        72.18774
705.59         72.0183
706.01        71.68097
706.44        71.34486
706.86        71.27156
707.28        71.50734
707.70         71.9748
708.12        72.51207
708.55        72.81559
708.97        72.83875
709.39        72.77394
709.81        72.67746
710.23        72.55345
710.66         72.4484
711.08        72.40051
711.50        72.42244
711.92        72.49139
712.34        72.59767
712.76         72.8169
713.19        73.11311
713.61        73.12023
714.03        73.35391
714.45        73.37395
714.87        73.37637
715.29        73.39868
715.71         73.4604
716.13        73.53228
716.56        73.58382
716.98         73.6867
717.40        73.81368
717.82        73.88631
718.24        74.01727
718.66        74.06499
719.08        74.06366
719.50         74.0216
719.92        73.96216
720.34        73.92055
720.76        73.90665
721.19        73.90586
721.61        73.92897
722.03        73.95364
722.45        73.99596
722.87        74.05106
723.29        74.10978
723.71        74.14363
724.13        74.15487
724.55        74.15386
724.97        74.18102
725.39         74.3049
725.81         74.5318
726.23        74.82478
726.65        75.13397
727.07        75.38732
727.49         75.5557
727.91         75.6511
728.33        75.67576
728.75        75.63875
729.17        75.56435
729.59        75.46639
730.01        75.36697
730.43        75.34094
730.85          75.411
731.27         75.4353
731.69         75.4453
732.10        75.79521
732.52        76.32703
732.94        76.33735
733.36        75.86024
733.78        75.68156
734.20        75.90869
734.62        75.89989
735.04         75.5475
735.46        76.00064
735.88        76.00185
736.30        75.31364
736.72        75.64328
737.13        75.80102
737.55        76.25713
737.97        76.52615
738.39         76.6902
738.81        76.47051
739.23        76.12471
739.65         75.9907
740.06        75.96146
740.48        76.92988
740.90        76.78409
741.32        76.28951
741.74        76.16068
742.16        76.01775
742.57         76.2678
742.99         76.5193
743.41        76.72044
743.83        76.85577
744.25        76.88122
744.67        76.80312
745.08        76.65469
745.50        76.46384
745.92        76.26946
746.34        76.05952
746.75        75.88264
747.17        75.80032
747.59          75.832
748.01        76.02985
748.42        76.30949
748.84        76.44401
749.26        76.47141
749.68        76.43746
750.09        76.43906
750.51         76.9213
750.93        77.64793
751.35        77.57396
751.76         76.8112
752.18        76.47178
752.60        76.60405
753.01        76.59991
753.43        76.44657
753.85        76.42469
754.27        76.53141
754.68        76.94358
755.10        77.12258
755.52        77.27678
755.93        77.24673
756.35        77.08203
756.77        76.87649
757.18        76.90702
757.60        77.26604
758.02        77.60486
758.43        77.66859
758.85        78.47745
759.26        78.30581
759.68        77.71458
760.10        77.06809
760.51        77.45444
760.93        77.70349
761.34         76.5704
761.76        77.41324
762.18        76.95948
762.59        76.57416
763.01        76.48515
763.42        77.41988
763.84        77.92224
764.26        78.04037
764.67        77.63804
765.09        77.10567
765.50        77.59341
765.92         78.8405
766.33        79.30766
766.75        78.79317
767.16        78.09121
767.58        77.44249
768.00        77.02518
768.41        76.99653
768.83        77.37804
769.24        77.97779
769.66        78.27971
770.07        78.22971
770.49        78.24177
770.90          78.353
771.32        78.37527
771.73        78.32005
772.15        78.21227
772.56        78.08511
772.97        78.01027
773.39          77.939
773.80        77.83462
774.22        77.65394
774.63        77.32578
775.05        76.98817
775.46        77.07951
775.88        77.42708
776.29         78.0981
776.70        78.74496
777.12        78.93644
777.53        78.58992
777.95        77.81808
778.36        76.96687
778.77        76.60703
779.19        76.87673
779.60         77.6516
780.02        78.55597
780.43        79.15806
780.84          79.318
781.26        78.78262
781.67        77.96805
782.09        78.48394
782.50        79.97587
782.91        80.08977
783.33        78.90618
783.74        78.52079
784.15        78.99278
784.57        79.19641
784.98        79.04108
785.39        78.71603
785.81        78.33111
786.22        78.30415
786.63        78.58842
787.04         78.6795
787.46        78.59296
787.87        78.69397
788.28        78.97291
788.70        79.26112
789.11        79.28442
789.52        79.43997
789.93        79.62136
790.35        79.50865
790.76        79.19409
791.17        79.19915
791.58        79.47151
792.00        79.36527
792.41        78.87438
792.82        78.60276
793.23        78.56436
793.65         78.1256
794.06        77.59532
794.47        78.06906
794.88        79.24684
795.29        80.26762
795.71        80.16924
796.12        79.69918
796.53        80.13843
796.94        79.28594
797.35        77.96929
797.76        77.86985
798.18        78.87477
798.59        79.28713
799.00        78.97186
799.41        78.95551
799.82        79.26116
800.23        79.42738
800.64        79.43195
801.06        79.34937
801.47        79.27016
801.88        79.28612
802.29        79.40969
802.70        79.57491
803.11        79.69527
803.52        79.64377
803.93        79.41866
804.34        79.09718
804.75        78.74163
805.17        78.55381
805.58        78.62533
805.99        78.52943
806.40        78.37782
806.81        79.24824
807.22        80.70522
807.63        80.67103
808.04        79.38477
808.45        78.98927
808.86        79.68699
809.27        80.43474
809.68        80.99004
810.09        81.32837
810.50        81.33754
810.91        81.10391
811.32        80.75351
811.73        80.37568
812.14        80.02461
812.55        79.82693
812.96        79.74075
813.37        79.36272
813.78        78.83808
814.19        78.92324
814.60         79.4865
815.01         79.7196
815.42        79.56367
815.83        79.41911
816.24        79.38866
816.65        79.46326
817.05        79.68158
817.46        79.99573
817.87          80.298
818.28         80.3767
818.69        80.19769
819.10        79.81828
819.51        79.41213
819.92         79.2985
820.33        79.56178
820.74        80.08382
821.14        80.69103
821.55        81.09496
821.96        81.21051
822.37        81.07503
822.78        80.79239
823.19        80.58404
823.60         80.5154
824.00        80.52328
824.41        80.53732
824.82        80.56988
825.23        80.60594
825.64        80.67358
826.04        80.75924
826.45        80.78396
826.86        80.74981
827.27        80.66162
827.68        80.57577
828.08         80.6238
828.49        80.76929
828.90         81.0049
829.31        81.24509
829.72         81.3418
830.12        81.27198
830.53        81.04646
830.94        80.75857
831.35        80.51754
831.75        80.38671
832.16        80.30242
832.57        80.27046
832.97        80.27412
833.38        80.28027
833.79        80.29441
834.20        80.33253
834.60        80.40662
835.01        80.52757
835.42        80.69325
835.82        80.83111
836.23        80.76839
836.64        80.50318
837.04        80.07548
837.45        79.65839
837.86        79.58059
838.26        79.92265
838.67        80.56564
839.08        81.25208
839.48        81.49009
839.89        81.15694
840.29        80.44084
840.70        79.70215
841.11        79.38893
841.51         79.6225
841.92        80.19707
842.33        80.97523
842.73        81.72088
843.14        82.21522
843.54        82.59707
843.95        82.74455
844.35        82.55238
844.76         82.0505
845.17        81.29063
845.57        80.51847
845.98         80.1461
846.38        80.25993
846.79        80.76006
847.19        81.48773
847.60         81.9825
848.00        82.15795
848.41        82.06647
848.81        81.91132
849.22        81.92542
849.62        82.21933
850.03        82.65866
850.43        83.14668
850.84        83.40154
851.24        83.39839
851.65        83.15105
852.05        82.85494
852.46         82.7025
852.86        82.75531
853.27        82.97012
853.67        83.15025
854.07        83.14742
854.48        82.89677
854.88        82.48981
855.29        82.00377
855.69        81.73512
856.10         81.6735
856.50        81.84003
856.90        82.07755
857.31        82.14781
857.71        82.06197
858.12        81.83092
858.52        81.59853
858.92        81.46696
859.33        81.45515
859.73        81.57696
860.13        81.77905
860.54        81.97914
860.94          82.202
861.34        82.40084
861.75        82.55096
862.15        82.72451
862.55        82.87996
862.96        83.01808
863.36        83.06754
863.76        82.88223
864.17        82.46082
864.57         81.8963
864.97        81.38437
865.38          81.201
865.78        81.45044
866.18        81.97443
866.58        82.56783
866.99        82.85695
867.39        82.76772
867.79        82.39179
868.19         81.7365
868.60        80.79725
869.00        79.60925
869.40        78.21104
869.80        76.98272
870.21        76.56041
870.61         77.1214
871.01        78.42925
871.41         79.8996
871.81        80.58499
872.22        80.28154
872.62        79.29574
873.02        78.04877
873.42        77.38754
873.82        77.38738
874.22        77.41531
874.63         77.5221
875.03        77.90894
875.43        78.48973
875.83        79.91444
876.23        80.06454
876.63        79.83865
877.03        78.87915
877.44        77.22076
877.84        121.2491
878.24        77.17572
878.64        78.17033
879.04        80.99118
879.44        78.77474
879.84        77.36685
880.24        80.09332
880.64        79.85207
881.04        77.35925
881.44        75.74751
881.84        75.57967
882.24        76.33467
882.65        77.44859
883.05        77.90567
883.45        77.35884
883.85        76.38161
884.25        75.47773
884.65        75.17312
885.05        75.61578
885.45        76.60866
885.85        77.76738
886.25         78.4729
886.65         78.5291
887.05        78.10873
887.45        77.55255
887.85        77.37136
888.25        77.69325
888.65        78.37908
889.04        79.13087
889.44        79.35687
889.84        78.96291
890.24        78.14618
890.64        77.30471
891.04        77.02525
891.44        77.38834
891.84        78.14088
892.24        78.92322
892.64        79.12231
893.04        78.59996
893.44        77.68114
893.83        76.51839
894.23        75.34755
894.63        74.27901
895.03        73.23153
895.43        72.53806
895.83         72.7623
896.23        73.94777
896.63        75.91995
897.02        78.01168
897.42        78.99386
897.82         78.5693
898.22        77.09544
898.62        75.23116
899.01        74.01691
899.41         73.7759
899.81        74.17065
900.21        74.92351
900.61        75.61108
901.00        76.07152
901.40        76.43745
901.80        76.72266
902.20        76.90476
902.59        76.99542
902.99        76.94311
903.39        76.75873
903.79        76.49384
904.18        76.18226
904.58        75.89171
904.98        75.70463
905.38        75.74191
905.77        76.01109
906.17        76.47618
906.57        77.01414
906.96        77.45934
907.36        77.70159
907.76         77.7476
908.15        77.66509
908.55        77.52483
908.95        77.37363
909.34        77.23211
909.74        76.97244
910.14        76.39285
910.53        75.49928
910.93        74.45243
911.33        73.62099
911.72        73.57887
912.12        74.37271
912.52         75.7345
912.91        77.20251
913.31        77.98002
913.70         77.9258
914.10        77.24702
914.49        76.17385
914.89        75.26227
915.29        74.76499
915.68        74.53328
916.08        74.60083
916.47        74.98255
916.87        75.58894
917.26        76.39732
917.66        77.16452
918.05        77.51879
918.45        77.34562
918.84        76.79707
919.24         75.9676
919.64         75.0507
920.03        74.17656
920.42        73.33218
920.82        72.79419
921.21        72.92326
921.61        73.69453
922.00        75.04221
922.40        76.42612
922.79        77.18992
923.19        77.12431
923.58        76.22233
923.98        74.81644
924.37         74.0832
924.77        74.48196
925.16         73.0498
925.55        74.47366
925.95        74.39816
926.34        74.21133
926.74        73.88528
927.13        73.72279
927.52        73.98315
927.92        74.65859
928.31        75.72019
928.70        76.76669
929.10        77.12881
929.49        76.64899
929.89        75.52124
930.28        74.30421
930.67        73.89376
931.07        74.46428
931.46         75.7747
931.85         77.2525
932.24        78.04868
932.64        77.93513
933.03         77.0927
933.42        75.89638
933.82        75.12726
934.21        75.02171
934.60        75.35429
934.99        75.61845
935.39        75.33765
935.78        74.44625
936.17        72.68366
936.56        70.30267
936.96        70.96598
937.35        70.46966
937.74        72.04546
938.13        73.69753
938.53        74.85532
938.92        75.44456
939.31        75.68297
939.70        75.68655
940.09        75.53851
940.49        75.34429
940.88         75.1117
941.27        74.96293
941.66        75.12533
942.05        75.61121
942.44        76.31198
942.84        77.14715
943.23        77.98733
943.62        78.70656
944.01        79.35404
944.40        79.65907
944.79        79.19956
945.18        77.93446
945.57          75.949
945.97        73.89445
946.36        72.94682
946.75         73.4808
947.14        75.11617
947.53        77.02096
947.92        78.03739
948.31        77.93053
948.70        77.03126
949.09         75.8206
949.48         75.1394
949.87        75.25055
950.26         75.8752
950.65        76.64178
951.04        76.96187
951.43        76.66533
951.82        75.97556
952.21         75.1895
952.60        74.74187
952.99         74.7556
953.38        75.08082
953.77          75.504
954.16        75.70955
954.55        75.60659
954.94        75.28899
955.33        74.93024
955.72        74.79869
956.11        74.97604
956.50        75.40424
956.89        75.87383
957.28        76.01009
957.66        75.73331
958.05        75.11594
958.44        74.50269
958.83        74.34187
959.22        74.69213
959.61        75.43353
960.00        76.17574
960.39        76.22335
960.78        75.41624
961.16        73.97142
961.55        72.47779
961.94        71.70552
962.33        71.83218
962.72        72.62807
963.11        73.64866
963.49        74.14472
963.88        73.81296
964.27        72.94375
964.66        71.92038
965.04        71.36777
965.43        71.45819
965.82        71.98937
966.21          72.721
966.60        73.27436
966.98        73.53223
967.37        73.59467
967.76        73.58997
968.15        73.69465
968.53        73.96074
968.92        74.20378
969.31        74.36432
969.69        74.36292
970.08         74.1155
970.47        73.72826
970.86        73.15196
971.24        72.25336
971.63        71.13103
972.02         69.8933
972.40        68.82465
972.79        68.41775
973.17        68.81592
973.56        69.74854
973.95        71.06745
974.33        72.46687
974.72        73.61913
975.11        74.58227
975.49        75.03654
975.88        74.51023
976.26        73.03711
976.65        70.83493
977.04        68.51015
977.42         67.1341
977.81         67.0378
978.19        67.93016
978.58        69.45418
978.96        70.97681
979.35        72.11807
979.74        73.11806
980.12        73.77113
980.51        73.49686
980.89        72.41666
981.28        70.63574
981.66        68.89845
982.05        68.28583
982.43        68.91839
982.82        70.50156
983.20         72.4272
983.59         73.2554
983.97        72.67254
984.35        71.00777
984.74        69.03001
985.12        67.86256
985.51        67.81879
985.89        68.56667
986.28        69.64918
986.66        70.24727
987.04        69.96843
987.43        69.22887
987.81        68.20527
988.20        67.05201
988.58        65.73309
988.96        63.99852
989.35        62.09596
989.73        61.04375
990.12        61.33208
990.50        62.82337
990.88        64.50481
991.27        65.15643
991.65        64.79917
992.03        63.75127
992.42         62.7739
992.80        63.30422
993.18        65.64847
993.56        68.98442
993.95        72.38854
994.33        75.04335
994.71        76.55537
995.10        77.21456
995.48        77.09404
995.86        76.21221
996.24        74.68379
996.63        72.47658
997.01        69.89374
997.39        67.92337
997.77        67.14023
998.15         67.3633
998.54        68.26132
998.92        69.38303
999.30        70.63535
999.68        72.27074
1000.06        73.71991
1000.45        73.28018
1000.83        70.70005
1001.21          66.958
1001.59        63.59227
1001.97        61.66307
1002.35          60.996
1002.73        61.22362
1003.12        62.07426
1003.50        63.04145
1003.88        63.68864
1004.26        64.18877
1004.64        64.44209
1005.02        64.33077
1005.40        63.90348
1005.78        63.07701
1006.16         62.2279
1006.54        62.22673
1006.92        63.13947
1007.30        64.46773
1007.69        65.67061
1008.07        66.36801
1008.45        66.44418
1008.83        66.06184
1009.21        64.85249
1009.59        62.24916
1009.97        58.41658
1010.35        53.90464
1010.73        50.65739
1011.11        50.50121
1011.49        53.11092
1011.86        57.84796
1012.24        62.22417
1012.62        63.96991
1013.00        62.92057
1013.38        59.96883
1013.76         56.3091
1014.14        54.07827
1014.52        53.97381
1014.90        55.30391
1015.28        57.33408
1015.66        58.86182
1016.04         59.4184
1016.41         59.4353
1016.79        58.87873
1017.17        57.85061
1017.55        56.70529
1017.93        55.52007
1018.31        54.63831
1018.69        54.43648
1019.06        54.83382
1019.44        55.50012
1019.82        56.30944
1020.20        56.76872
1020.58        56.57991
1020.95         55.9318
1021.33         54.4576
1021.71        50.87914
1022.09        43.91798
1022.46        29.98973
1022.84        7.945215
1023.22       -2.080852
1023.60        14.12118
1023.97         35.2437
1024.35        48.00957
1024.73        52.80115
