SpectraSmart Spectrum 2.9.0.0
--------- Device Information -----------
Spectrum Name :  反射率_0
Saving Time :  2024/04/20 00:26:50
Spectro-Module Model Name : SE2030-DUVN
Spectro-Module Serial Number : OS361AC55029948
Wavelength Start : 200
Wavelength End : 1025
Wavelength Unit : Wavelength(nm)
Spectrum Unit : Reflectance(%)
-----------Spectrum Setting ------------
Integration Time : 30ms
Average : 10
Boxcar : 0
Background removal :  enabled
linearity correction :  enabled
SC :  disabled
Intensity correction :  disabled
DWT denoise :  enabled
savitzky-golay :  disabled
FFT :  disabled
Running average :  disabled
Kalman :  disabled
High pass :  disabled
---------------BEGIN--------------------
Wavelength(nm)             Reflectance(%)
200.29               0
200.75        55.35368
201.21        54.66877
201.67        55.41187
202.13        57.81302
202.58        61.81357
203.04        67.54988
203.50        73.56194
203.96        75.59422
204.42        73.12926
204.88        68.81024
205.34        64.30634
205.80        59.95174
206.26        55.01488
206.72        47.98033
207.18        39.04291
207.64        34.23796
208.10        39.10073
208.55        51.18075
209.01        62.47477
209.47         67.0163
209.93        65.45947
210.39        60.49284
210.85        54.41536
211.31        49.37559
211.77        45.56357
212.23        41.83236
212.69        38.80635
213.14        39.29077
213.60        43.12505
214.06        48.58483
214.52        53.29421
214.98        56.34374
215.44        58.18598
215.90        58.92435
216.36        59.20606
216.81        60.23969
217.27        62.07229
217.73        64.42334
218.19        65.30649
218.65        61.86745
219.11        53.64814
219.57        40.95821
220.02        26.82353
220.48        19.40121
220.94        21.62266
221.40         31.9587
221.86        44.80941
222.32         51.3998
222.77        49.67834
223.23        42.54732
223.69         34.4222
224.15        31.64743
224.61        34.48404
225.06        39.62072
225.52        44.07254
225.98          45.512
226.44        43.88391
226.90        40.35456
227.36        35.99788
227.81        32.65867
228.27        31.43204
228.73        31.60546
229.19        32.59618
229.65        33.73031
230.10         34.7476
230.56        35.73003
231.02        36.78136
231.48        38.02028
231.93        39.36508
232.39        40.69357
232.85        41.63424
233.31        41.65301
233.77         40.6952
234.22        38.96652
234.68        36.96243
235.14        35.46564
235.60        34.78751
236.05        34.78542
236.51        35.24228
236.97        35.75963
237.43        36.27061
237.88        37.10558
238.34        38.30479
238.80        39.91336
239.26        41.67421
239.71        43.08808
240.17        44.20548
240.63        45.88497
241.08        48.38097
241.54         51.5513
242.00        54.24064
242.46        54.22449
242.91        50.42215
243.37        41.73303
243.83        29.13905
244.28        21.97127
244.74        29.09587
245.20        48.18966
245.66        66.55404
246.11         73.7362
246.57        69.00966
247.03        53.01461
247.48        29.21133
247.94        19.43593
248.40        28.82169
248.85        42.75082
249.31        53.17031
249.77        57.94682
250.22        58.52876
250.68        56.77489
251.14        53.82589
251.59        51.96704
252.05        52.72028
252.51         55.3737
252.96        58.47245
253.42        59.81821
253.88        58.86877
254.33        56.66988
254.79         55.1822
255.25        55.98129
255.70        58.78851
256.16        62.47657
256.62        65.64262
257.07        66.74982
257.53        65.92078
257.99        63.78077
258.44        60.93026
258.90        58.89188
259.35        57.51818
259.81        56.83002
260.27        56.14026
260.72        54.86315
261.18        53.21447
261.63         51.0595
262.09        49.14687
262.55        48.02026
263.00        47.65491
263.46        47.90889
263.91        48.00632
264.37        47.26411
264.83         45.6819
265.28        43.52229
265.74        41.66869
266.19        40.94844
266.65        41.44918
267.11        42.65577
267.56        43.86226
268.02        44.04414
268.47        43.02807
268.93        41.18273
269.38        38.94221
269.84        37.24332
270.30        36.35935
270.75        36.05007
271.21        36.02397
271.66         35.8331
272.12        35.32645
272.57         34.6382
273.03        33.94495
273.48        33.41998
273.94        33.13462
274.39        32.96658
274.85        32.75019
275.31        32.23345
275.76        31.37714
276.22        30.31093
276.67        29.25053
277.13        28.60804
277.58        28.39484
278.04        28.50185
278.49        28.62528
278.95        28.38833
279.40        27.70831
279.86        26.80624
280.31         25.8667
280.77        25.28025
281.22        25.05138
281.68         25.0572
282.13        25.14177
282.59        25.11319
283.04        24.91219
283.50        24.65045
283.95        24.32367
284.41        23.94962
284.86        23.54284
285.32        23.11926
285.77        22.78348
286.22        22.76361
286.68        23.05902
287.13          23.555
287.59        24.05466
288.04        24.25165
288.50        24.11116
288.95         23.7149
289.41        23.22101
289.86        22.80316
290.32        22.57459
290.77        22.46952
291.22        22.50462
291.68        22.67199
292.13        22.95271
292.59        23.35971
293.04        23.84472
293.50        24.33783
293.95        24.80825
294.40        25.25831
294.86        25.69829
295.31        26.16457
295.77        26.67009
296.22        27.20316
296.68         27.7575
297.13        28.29944
297.58        28.83117
298.04        29.37187
298.49        29.93537
298.95        30.57874
299.40        31.29096
299.85        32.04393
300.31        32.79629
300.76         33.4847
301.21        34.08783
301.67        34.64433
302.12        35.12888
302.58        35.56599
303.03        35.94534
303.48        36.28062
303.94        36.64086
304.39        37.09138
304.84        37.64429
305.30         38.2637
305.75         38.8406
306.20        39.23043
306.66        39.42637
307.11        39.46612
307.57        39.44532
308.02        39.43309
308.47        39.48287
308.93        39.56186
309.38         39.6765
309.83        39.88931
310.29         40.1818
310.74        40.53059
311.19        40.80878
311.65        40.81124
312.10        40.50574
312.55        39.96581
313.00        39.36071
313.46        38.95253
313.91        38.79122
314.36        38.81737
314.82        38.91753
315.27         38.9271
315.72        38.78246
316.18        38.54881
316.63        38.27073
317.08        38.02327
317.53        37.82467
317.99        37.63177
318.44        37.42793
318.89        37.18532
319.35        36.89646
319.80        36.57928
320.25        36.24035
320.70        35.88597
321.16        35.51843
321.61        35.14361
322.06        34.76677
322.51        34.40041
322.97        34.04221
323.42        33.69642
323.87        33.35403
324.32        33.00476
324.78        32.64011
325.23        32.27407
325.68        31.89688
326.13        31.49966
326.59        31.08729
327.04        30.68703
327.49        30.32106
327.94        30.02703
328.39        29.80978
328.85        29.63751
329.30        29.52344
329.75        29.44327
330.20        29.37589
330.66        29.29742
331.11        29.18765
331.56        28.96114
332.01         28.6028
332.46        28.13596
332.92        27.61314
333.37        27.13561
333.82        26.74935
334.27        26.45342
334.72        26.24091
335.17        26.09146
335.63         25.9819
336.08        25.91402
336.53        25.89237
336.98        25.93303
337.43        26.02069
337.88        26.14388
338.34        26.18002
338.79        25.98058
339.24        25.51283
339.69        24.82653
340.14        24.13733
340.59        23.80826
341.05        23.90653
341.50        24.32818
341.95         24.8292
342.40        25.02453
342.85        24.82396
343.30        24.35918
343.75        23.78771
344.20        23.37109
344.66        23.18727
345.11        23.11851
345.56        23.13536
346.01        23.19127
346.46         23.2449
346.91        23.33513
347.36        23.34636
347.81        23.08526
348.26         22.5501
348.72        21.82766
349.17        21.11553
349.62        20.82701
350.07        21.04782
350.52        21.63041
350.97         22.3386
351.42        22.81688
351.87        22.96018
352.32        22.86528
352.77        22.60593
353.22        22.30611
353.67        22.02432
354.13        21.73469
354.58        21.44151
355.03        21.19552
355.48        21.01186
355.93        20.90537
356.38        20.85936
356.83        20.82982
357.28        20.79627
357.73        20.75161
358.18        20.70249
358.63        20.66546
359.08        20.63881
359.53        20.61789
359.98         20.5579
360.43        20.39288
360.88        20.12347
361.33        19.77728
361.78        19.44651
362.23        19.28123
362.68        19.30408
363.13        19.45282
363.58        19.62378
364.03        19.65683
364.48        19.50794
364.93        19.22921
365.38         18.8621
365.83        18.48159
366.28        18.13472
366.73        17.81069
367.18        17.54899
367.63        17.40914
368.08        17.39001
368.53         17.4698
368.98         17.5888
369.43        17.64678
369.88        17.61731
370.33        17.53018
370.78        17.39833
371.23        17.25197
371.68        17.11176
372.13        16.96206
372.58        16.85158
373.03         16.8645
373.48        17.00065
373.93        17.22325
374.38        17.43189
374.83        17.47092
375.28        17.30966
375.72        16.99232
376.17        16.61505
376.62        16.29552
377.07        16.08577
377.52        15.95617
377.97        15.90692
378.42        15.93483
378.87        16.02015
379.32        16.15658
379.77        16.29977
380.22        16.37879
380.67        16.37674
381.11        16.31078
381.56         16.1901
382.01        16.05531
382.46        15.92256
382.91         15.7763
383.36        15.64067
383.81        15.54875
384.26        15.50418
384.71        15.51344
385.15        15.51382
385.60        15.40781
386.05        15.18382
386.50         14.8672
386.95        14.57014
387.40        14.47099
387.85        14.59229
388.29        14.86741
388.74        15.14271
389.19        15.20162
389.64        15.00697
390.09        14.62707
390.54        14.20375
390.98         13.9592
391.43         13.9619
391.88        14.12616
392.33        14.32455
392.78        14.37501
393.23        14.24623
393.67        13.99643
394.12        13.74649
394.57        13.61003
395.02        13.61128
395.47        13.70871
395.91        13.82823
396.36        13.83039
396.81        13.68817
397.26        13.44407
397.71        13.19886
398.15        13.08536
398.60        13.14099
399.05         13.3105
399.50        13.48353
399.95        13.50233
400.39        13.33704
400.84        13.03323
401.29        12.71033
401.74        12.58581
402.18        12.72027
402.63        13.03295
403.08        13.37063
403.53        13.49383
403.97        13.35017
404.42         13.0261
404.87        12.65698
405.32        12.46361
405.76        12.50118
406.21        12.69322
406.66        12.93217
407.11        13.05224
407.55         13.0099
408.00        12.86382
408.45        12.67713
408.90        12.52416
409.34        12.45338
409.79        12.49273
410.24        12.58994
410.68        12.61676
411.13        12.55868
411.58        12.48364
412.03        12.41087
412.47         12.3537
412.92        12.32033
413.37        12.29646
413.81        12.29609
414.26         12.3538
414.71        12.46364
415.15        12.62618
415.60        12.76271
416.05        12.76792
416.49        12.61893
416.94        12.35109
417.39        12.06365
417.83        11.91915
418.28        11.95883
418.73        12.12691
419.17        12.32348
419.62        12.37813
420.07        12.26036
420.51          12.031
420.96        11.77551
421.41        11.61052
421.85        11.56411
422.30        11.60116
422.74        11.68332
423.19        11.77848
423.64        11.86291
424.08        11.95629
424.53        12.02447
424.98        12.02896
425.42        11.96578
425.87        11.84415
426.31        11.69875
426.76        11.59566
427.21        11.54291
427.65        11.52045
428.10        11.52551
428.54        11.52884
428.99        11.52528
429.44        11.57947
429.88        11.64201
430.33        11.55148
430.77        11.35305
431.22        11.26445
431.66        11.31278
432.11        11.41198
432.56        11.54085
433.00        11.75586
433.45        11.93054
433.89        11.88158
434.34         11.6844
434.78        11.46005
435.23        11.21911
435.67        11.73419
436.12        11.36861
436.57         11.3395
437.01        11.19611
437.46        11.13127
437.90        11.14804
438.35        11.15463
438.79        11.13885
439.24        11.13271
439.68        11.13216
440.13        11.03639
440.57        10.89234
441.02        10.95172
441.46        11.10606
441.91        11.02686
442.35        10.48982
442.80        10.27295
443.24        10.26884
443.69         10.2405
444.13        10.16162
444.58        10.10962
445.02        10.08294
445.47        10.09249
445.91        10.11691
446.36        10.09888
446.80        10.02859
447.24        9.931041
447.69        9.842384
448.13        9.794621
448.58        9.800566
449.02         9.84761
449.47        9.897607
449.91        9.884113
450.36        9.800102
450.80        9.666997
451.25        9.538303
451.69        9.484637
452.13          9.5233
452.58        9.618905
453.02        9.734455
453.47        9.808575
453.91        9.825321
454.36        9.804415
454.80        9.750119
455.24        9.672159
455.69        9.587094
456.13        9.483183
456.58        9.398664
457.02        9.384185
457.46        9.443655
457.91        9.539432
458.35        9.635578
458.79        9.694603
459.24        9.703607
459.68        9.671824
460.13        9.656704
460.57        9.651091
461.01        9.657159
461.46        9.920818
461.90        10.03214
462.34         9.95046
462.79        9.999461
463.23        9.856568
463.68        9.714933
464.12        9.623206
464.56        9.680997
465.01         9.79807
465.45        9.921608
465.89        9.982767
466.34        9.972022
466.78        9.882686
467.22        9.770836
467.67        9.796594
468.11        9.947386
468.55        10.01069
468.99        9.983348
469.44        10.02635
469.88        10.13881
470.32        10.22267
470.77        10.25136
471.21        10.23925
471.65        10.18487
472.10        10.08931
472.54        9.988377
472.98        9.967249
473.42        10.03944
473.87        10.15106
474.31        10.26596
474.75        10.38601
475.20        10.47624
475.64        10.44076
476.08        10.33319
476.52        10.32871
476.97        10.44265
477.41        10.59753
477.85        10.74409
478.29        10.83459
478.74          10.853
479.18        10.79587
479.62        10.71963
480.06        10.71595
480.50        10.78774
480.95        10.85567
481.39        10.89179
481.83        10.90549
482.27        10.89496
482.72         10.8646
483.16        10.83447
483.60        10.85013
484.04        10.92402
484.48        11.05476
484.93        11.27028
485.37        11.48448
485.81        11.71802
486.25        12.09958
486.69        12.21117
487.14        11.90161
487.58        12.02973
488.02        12.69768
488.46        12.39397
488.90        12.35499
489.34        12.14649
489.79        12.33528
490.23        12.83422
490.67        13.12802
491.11        13.15679
491.55         13.0757
491.99        12.94391
492.43        12.86661
492.88        12.88183
493.32        12.89231
493.76        12.92933
494.20        13.09839
494.64        13.40143
495.08        13.79459
495.52        14.20018
495.96         14.5105
496.41        14.69631
496.85        14.75797
497.29        14.75543
497.73        14.86031
498.17        15.07906
498.61        15.23291
499.05        15.31631
499.49        15.47584
499.93        15.71221
500.37        15.90098
500.82        16.04214
501.26        16.26746
501.70        16.53679
502.14        16.62626
502.58        16.56313
503.02        16.58457
503.46        16.70851
503.90        16.81049
504.34        16.87197
504.78        16.91787
505.22         16.9451
505.66        16.95847
506.10        16.97754
506.54        17.00055
506.98        17.03006
507.42        17.12043
507.86        17.28789
508.30        17.26677
508.74        17.51061
509.18        17.64076
509.62        17.78073
510.06        17.89821
510.50        17.99106
510.94        18.06458
511.38        18.10725
511.82        18.11513
512.26        18.09336
512.70        18.04499
513.14        18.01256
513.58        18.05951
514.02        18.18688
514.46        18.37376
514.90        18.56094
515.34        18.59713
515.78        18.48315
516.22        18.33665
516.66        18.23304
517.10        17.94026
517.54        17.48087
517.98        18.02194
518.42        17.83733
518.86        18.05508
519.30        18.14289
519.74        18.26774
520.18        18.38417
520.62        18.39647
521.06        18.31226
521.50        18.14157
521.93        17.94177
522.37        17.81702
522.81        17.79179
523.25        17.83821
523.69        17.91267
524.13        17.94567
524.57        17.91583
525.01        17.84269
525.45        17.75083
525.89        17.67773
526.32        17.63377
526.76        17.60842
527.20        17.57695
527.64        17.50658
528.08        17.39025
528.52        17.23634
528.96        17.08288
529.40        16.98473
529.83        16.95084
530.27         16.9714
530.71        16.98691
531.15        16.90396
531.59        16.71203
532.03        16.44653
532.46        16.19115
532.90        16.09176
533.34        16.16611
533.78        16.35803
534.22        16.57951
534.66        16.69592
535.09        16.66807
535.53        16.54557
535.97        16.36784
536.41        16.19553
536.85        16.05782
537.28        15.94681
537.72        15.88069
538.16        15.83937
538.60        15.89995
539.04        15.99065
539.47        16.10173
539.91        16.21984
540.35        16.34371
540.79        16.33623
541.22        16.42025
541.66        16.49944
542.10        16.65653
542.54        16.61542
542.97         16.8137
543.41        16.94123
543.85        17.11532
544.29        17.29331
544.72        17.45237
545.16        17.60682
545.60        17.75091
546.04        17.82938
546.47        17.89657
546.91        18.15292
547.35        18.55355
547.79        18.85515
548.22        19.02829
548.66        19.15809
549.10        19.28058
549.53        19.52395
549.97        19.88431
550.41         19.9837
550.84        20.17735
551.28        20.29321
551.72        20.47705
552.15        20.65599
552.59        20.82534
553.03        21.21581
553.46        21.37904
553.90          21.588
554.34        21.71315
554.77        21.77854
555.21        21.82789
555.65        21.92596
556.08        22.08633
556.52        22.28398
556.96        22.48007
557.39        22.64429
557.83        22.75672
558.27        22.77444
558.70        22.74069
559.14        22.76806
559.57        22.86539
560.01        23.01302
560.45        23.15937
560.88        23.19476
561.32        23.15669
561.75        23.13143
562.19        23.23253
562.63        23.30451
563.06        23.37584
563.50        23.49457
563.93        23.64098
564.37        23.82782
564.80        23.93491
565.24         24.0671
565.68        24.17717
566.11        24.27442
566.55        24.37955
566.98        24.44491
567.42        24.47686
567.85        24.79603
568.29        24.76669
568.72        25.13564
569.16        25.62797
569.60        25.97204
570.03        26.12083
570.47        26.25651
570.90        26.27806
571.34        26.60041
571.77        26.50436
572.21        26.86132
572.64        26.88442
573.08        27.24263
573.51        27.43345
573.95        27.92579
574.38        28.14056
574.82        28.30333
575.25        28.44173
575.69        28.28549
576.12        28.22396
576.56        28.17065
576.99        28.23102
577.42        28.51388
577.86        28.44566
578.29        28.51664
578.73        28.87687
579.16        28.59463
579.60        28.19315
580.03        27.95643
580.47        28.23685
580.90        27.73358
581.33         27.7458
581.77        27.78135
582.20        27.92673
582.64         27.7408
583.07        27.13588
583.51        27.15338
583.94        26.73247
584.37        26.61109
584.81         26.3506
585.24        26.27287
585.68        26.30429
586.11        26.14153
586.54        26.02618
586.98        25.91673
587.41        25.88089
587.85        25.83244
588.28        25.74993
588.71        25.50566
589.15        25.16037
589.58        25.04049
590.01        25.12347
590.45        25.51109
590.88        25.22957
591.31        25.29803
591.75        24.95681
592.18        25.14375
592.61        25.12441
593.05        25.54056
593.48        25.31356
593.91        25.94517
594.35        25.51927
594.78        25.67558
595.21        26.02514
595.65        26.25476
596.08        26.38178
596.51        26.40252
596.94        26.43437
597.38        26.53801
597.81        26.73831
598.24        27.12377
598.68        27.58179
599.11        27.72327
599.54        28.59455
599.97        28.76439
600.41        29.05922
600.84        29.71123
601.27        30.25834
601.70        30.74476
602.14        30.99878
602.57        31.42231
603.00        32.02261
603.43        32.64594
603.87        33.05242
604.30        33.56456
604.73        34.18023
605.16        34.36673
605.60        35.09795
606.03        35.68873
606.46        36.28984
606.89        36.91834
607.32        37.62225
607.76        37.72592
608.19        38.10512
608.62        38.76244
609.05        38.68169
609.48        39.01633
609.92        39.43612
610.35        39.66596
610.78        40.58542
611.21        41.44164
611.64        41.07529
612.07        41.78576
612.50        42.01427
612.94        41.93147
613.37        42.60879
613.80        42.95163
614.23         43.3627
614.66        43.77169
615.09        44.16086
615.52        44.51275
615.96        44.78315
616.39        45.05779
616.82         45.4011
617.25        45.43847
617.68        45.90704
618.11        46.30125
618.54        46.59863
618.97        46.64507
619.40        46.44366
619.84        46.66956
620.27        46.57249
620.70        47.00003
621.13        47.55207
621.56         47.7933
621.99        47.88102
622.42        47.51962
622.85        48.05021
623.28        48.14518
623.71        48.20107
624.14        48.16925
624.57        48.11775
625.00        48.10579
625.43         48.3332
625.86        47.56906
626.29        47.64063
626.72        47.59738
627.15        47.33876
627.58        47.25813
628.01        47.08876
628.44        47.06829
628.87        46.66298
629.30        46.12223
629.73        45.69006
630.16        45.30571
630.59        45.46179
631.02        44.97383
631.45        44.50201
631.88        43.98692
632.31        43.57679
632.74        43.19073
633.17         42.5077
633.60        41.92849
634.03        41.36757
634.46        40.80701
634.89        40.24664
635.32        39.69144
635.75        39.14827
636.18        38.62583
636.61        38.12774
637.04        37.64777
637.47        37.18072
637.89        36.72853
638.32        36.28114
638.75         35.8438
639.18        35.41932
639.61        35.02344
640.04        34.65889
640.47        34.29218
640.90        33.91704
641.33        33.67313
641.76        33.33857
642.18        33.12668
642.61        32.96523
643.04        32.85341
643.47        32.77297
643.90        32.69727
644.33        32.62495
644.76        32.56968
645.18        32.54124
645.61        32.55879
646.04        32.62939
646.47        32.74289
646.90        32.92102
647.33        33.19939
647.75        33.57826
648.18        34.04146
648.61           34.53
649.04        34.95715
649.47        35.31559
649.89        35.60456
650.32        35.89989
650.75        36.42921
651.18        37.19588
651.61        37.87369
652.03         38.4718
652.46        39.42455
652.89        40.58688
653.32        41.12622
653.74        41.19369
654.17        41.69476
654.60        42.39056
655.03        43.78696
655.46        43.66584
655.88        45.56199
656.31        46.59838
656.74        53.28188
657.16        51.20382
657.59         48.0313
658.02        48.44318
658.45         48.5328
658.87        49.46287
659.30         49.9086
659.73         50.4682
660.15        51.61217
660.58         51.4081
661.01        51.54821
661.44        51.58993
661.86        51.92912
662.29        52.54755
662.72        53.34011
663.14        54.11089
663.57        54.19778
664.00        53.78989
664.42        53.80122
664.85        54.31079
665.27        54.80435
665.70        55.18491
666.13        55.34799
666.55        55.65272
666.98        55.75843
667.41        55.83019
667.83        55.93609
668.26        56.09274
668.69        56.28646
669.11        56.48819
669.54        56.64092
669.96        56.73636
670.39        56.84425
670.82        56.99152
671.24        57.09024
671.67        57.20321
672.09         57.5757
672.52         58.1041
672.94        58.40103
673.37        58.42144
673.80        58.29251
674.22        58.12263
674.65        58.06098
675.07         58.1645
675.50        58.35676
675.92        58.57645
676.35        58.71482
676.77        58.74802
677.20        58.71179
677.62        58.66068
678.05        58.68897
678.47        58.81351
678.90         59.0046
679.32        59.21749
679.75        59.38841
680.17        59.49734
680.60        59.56766
681.02        59.62732
681.45        59.69658
681.87        59.80507
682.30        59.94926
682.72         60.1059
683.15        60.24995
683.57         60.3882
684.00        60.38454
684.42        60.38003
684.85        60.67299
685.27        60.69292
685.70        60.92319
686.12        61.11709
686.54        61.24469
686.97        61.29641
687.39        61.18081
687.82        60.99036
688.24          61.141
688.66        61.57763
689.09         61.4522
689.51        61.33841
689.94        61.25074
690.36        61.39264
690.78        61.44408
691.21        61.39817
691.63        61.51475
692.06        61.81826
692.48        61.76897
692.90         61.9448
693.33        62.39956
693.75        62.22928
694.17        62.35531
694.60        62.44317
695.02        62.30624
695.44        61.99487
695.87        62.02268
696.29        62.33936
696.71        62.23494
697.14        61.89591
697.56        62.14585
697.98        62.97486
698.41        63.59774
698.83          63.359
699.25        62.96002
699.68        62.97912
700.10        62.86657
700.52        62.86657
700.94        62.97692
701.37          63.151
701.79        63.34038
702.21        63.48711
702.64        63.60855
703.06        63.71355
703.48        63.82861
703.90        63.96201
704.33        64.09806
704.75        64.19811
705.17        64.17679
705.59        64.02705
706.01        63.78024
706.44        63.56554
706.86        63.55555
707.28        63.77037
707.70        64.20676
708.12         64.7253
708.55        64.81691
708.97         64.8513
709.39        64.63519
709.81        64.39093
710.23        64.23358
710.66        64.22662
711.08        64.34792
711.50        64.53749
711.92        64.71314
712.34        64.84911
712.76        64.98203
713.19        65.09265
713.61        65.20355
714.03        65.29499
714.45        65.33747
714.87        65.36482
715.29        65.48239
715.71         65.7072
716.13        65.84558
716.56        66.11768
716.98        66.19711
717.40         66.1269
717.82        65.93623
718.24         65.7239
718.66        65.63228
719.08        65.69375
719.50        65.91012
719.92        66.11937
720.34           66.23
720.76        66.18648
721.19        66.03728
721.61        65.87234
722.03        65.80405
722.45        65.88394
722.87        66.05526
723.29        66.26945
723.71        66.42896
724.13        66.50587
724.55        66.56998
724.97        66.64625
725.39        66.67619
725.81        66.69921
726.23        66.92133
726.65        67.30569
727.07        67.47382
727.49        67.47479
727.91        67.74993
728.33        67.65133
728.75        67.66147
729.17         67.5955
729.59        67.48191
730.01        67.33105
730.43        67.33343
730.85        67.54061
731.27        67.59912
731.69        67.40844
732.10        68.32198
732.52        68.01319
732.94        68.09048
733.36        67.90405
733.78        67.81455
734.20        67.85883
734.62        67.79961
735.04        67.61581
735.46        67.95164
735.88        67.71113
736.30        67.75574
736.72        67.80418
737.13        67.92886
737.55        68.07475
737.97        68.38255
738.39        68.73178
738.81        68.63721
739.23        68.22318
739.65        68.12569
740.06        68.29063
740.48        68.54921
740.90        68.58215
741.32        68.00953
741.74          67.808
742.16        67.81509
742.57        67.94105
742.99        68.21085
743.41        68.39609
743.83        68.75769
744.25         68.6846
744.67        68.63963
745.08        68.52454
745.50        68.42683
745.92        68.38818
746.34        68.39122
746.75        68.40785
747.17        68.38133
747.59        68.30909
748.01          68.224
748.42        68.17829
748.84        68.24152
749.26        68.43464
749.68        68.64536
750.09         68.8438
750.51        69.11778
750.93        69.36079
751.35        69.28589
751.76        68.96468
752.18        68.59519
752.60        68.60953
753.01        68.47842
753.43        68.33307
753.85        68.33292
754.27        68.49283
754.68        68.77892
755.10        69.08221
755.52        69.24706
755.93          69.234
756.35        69.08499
756.77        68.92413
757.18        68.92741
757.60        69.15644
758.02        69.54968
758.43        69.92522
758.85        69.99542
759.26        70.23219
759.68        69.48331
760.10        68.95758
760.51        69.07013
760.93        69.20519
761.34        68.69344
761.76        69.16532
762.18        68.75947
762.59        68.23434
763.01        68.20368
763.42        68.86578
763.84        69.26646
764.26        69.31532
764.67        69.54904
765.09        70.11651
765.50        69.67241
765.92        70.78316
766.33        70.75984
766.75        70.28432
767.16        70.11126
767.58        69.63484
768.00        69.23231
768.41         68.8598
768.83        69.01209
769.24        69.60806
769.66         70.0985
770.07        70.34301
770.49        70.40371
770.90        70.34223
771.32         70.3839
771.73        70.52869
772.15        70.47166
772.56        70.23566
772.97        70.07421
773.39        69.95957
773.80        69.76751
774.22        69.47758
774.63        69.11874
775.05        68.82721
775.46        68.86469
775.88          69.241
776.29        69.89662
776.70        70.56092
777.12         70.8149
777.53        70.57321
777.95        69.93914
778.36        69.20242
778.77        68.85347
779.19        69.01465
779.60        69.58096
780.02        70.25957
780.43        70.72379
780.84         70.8631
781.26        70.48023
781.67         69.8946
782.09        70.35214
782.50        71.56599
782.91        71.68309
783.33        70.76952
783.74        70.49386
784.15        70.90149
784.57        71.07671
784.98        70.92799
785.39        70.64872
785.81        70.32339
786.22         70.0808
786.63        69.94325
787.04        69.97277
787.46        70.21774
787.87        69.86181
788.28        70.47692
788.70        70.65471
789.11        70.80952
789.52        71.08625
789.93        71.40282
790.35        71.23007
790.76        70.70284
791.17        70.68629
791.58        71.12776
792.00        71.12527
792.41        70.66048
792.82        70.44009
793.23         70.4532
793.65        70.15739
794.06        69.85884
794.47          70.202
794.88        70.81961
795.29        72.24677
795.71        71.92406
796.12        70.73138
796.53        71.31919
796.94        70.68069
797.35        70.01045
797.76        69.95393
798.18        70.47237
798.59        70.79472
799.00        70.79153
799.41        70.86423
799.82        71.01643
800.23        71.12691
800.64        71.19038
801.06        71.16373
801.47        71.11828
801.88        71.14679
802.29        71.25541
802.70        71.38732
803.11        71.48161
803.52        71.44516
803.93        71.28175
804.34        71.05754
804.75        70.79482
805.17        70.63354
805.58        70.65298
805.99        70.44313
806.40        70.15452
806.81        70.96046
807.22        72.44231
807.63        72.42114
808.04        71.12778
808.45        70.82722
808.86        71.66534
809.27        72.34577
809.68        72.65751
810.09        72.87551
810.50        72.92127
810.91        72.71371
811.32        72.36229
811.73        72.00477
812.14         71.6894
812.55        71.53261
812.96         71.4781
813.37        71.10398
813.78        70.54663
814.19        70.54856
814.60        71.01778
815.01         71.2212
815.42        71.10999
815.83        71.06158
816.24        71.12424
816.65        71.19547
817.05        71.28741
817.46        71.38309
817.87        71.45329
818.28        71.40971
818.69        71.25818
819.10        71.03497
819.51        70.83324
819.92        70.88125
820.33        71.23387
820.74        71.62299
821.14        71.99747
821.55        72.68512
821.96        73.43508
822.37         73.2767
822.78        72.37354
823.19        71.90738
823.60        72.00729
824.00        72.06203
824.41        71.95284
824.82        71.87659
825.23         71.8158
825.64        71.74002
826.04        71.70373
826.45        71.73425
826.86        71.84682
827.27        72.03473
827.68        72.22674
828.08        72.32597
828.49        72.25395
828.90        72.05708
829.31        71.84201
829.72        71.79842
830.12        71.98716
830.53         72.3139
830.94        72.64227
831.35        72.73399
831.75        72.56475
832.16        72.17116
832.57        71.72385
832.97        71.49245
833.38        71.53445
833.79        71.75874
834.20        72.04897
834.60         72.2167
835.01        72.22216
835.42        72.14011
835.82        71.99333
836.23        71.76221
836.64        71.49369
837.04        71.18141
837.45        70.93279
837.86        70.97256
838.26        71.34442
838.67        71.95801
839.08        72.60896
839.48        72.89626
839.89        72.71389
840.29        72.20972
840.70        71.64766
841.11        71.35164
841.51        71.42278
841.92        71.69943
842.33        72.14628
842.73        72.70555
843.14        73.22315
843.54        73.78274
843.95        74.17045
844.35        74.11434
844.76        73.59747
845.17        72.72742
845.57        71.81693
845.98        71.37015
846.38        71.50063
846.79        72.07463
847.19        72.90032
847.60        73.48121
848.00        73.70239
848.41        73.62989
848.81         73.4697
849.22         73.4612
849.62        73.71329
850.03        74.09421
850.43        74.49519
850.84        74.64094
851.24        74.51325
851.65        74.14828
852.05        73.76073
852.46        73.60017
852.86        73.73273
853.27        74.01788
853.67        74.26248
854.07        74.45341
854.48        74.45306
854.88        74.04369
855.29        73.31042
855.69        72.85152
856.10        72.69862
856.50        72.65906
856.90          72.681
857.31        72.80473
857.71        73.06631
858.12        73.40161
858.52        73.73336
858.92        73.82719
859.33        73.62517
859.73        73.19601
860.13        72.71386
860.54        72.53567
860.94        72.81529
861.34         73.4128
861.75        74.02092
862.15        74.22945
862.55        73.89694
862.96        73.19974
863.36         72.3829
863.76        71.82756
864.17        71.66092
864.57        71.77622
864.97        72.10556
865.38        72.53236
865.78        73.03129
866.18        73.56032
866.58        73.97758
866.99        74.03012
867.39        73.70448
867.79         73.0482
868.19        72.12909
868.60        71.05644
869.00        69.87908
869.40         68.6341
869.80        67.61684
870.21        67.28764
870.61        67.77963
871.01        68.92327
871.41         70.2077
871.81        70.80843
872.22        70.56184
872.62        69.70418
873.02         68.6376
873.42        68.25034
873.82        68.52914
874.22        68.69309
874.63        68.78571
875.03        68.98893
875.43        69.23565
875.83         70.5285
876.23        69.97731
876.63        69.13538
877.03         67.5352
877.44        65.25292
877.84        131.9671
878.24        66.00575
878.64        67.58528
879.04        71.73421
879.44        68.38859
879.84        66.45067
880.24         70.8278
880.64        70.89803
881.04        67.73936
881.44        65.75254
881.84        65.65512
882.24        66.73696
882.65         68.2972
883.05        68.95007
883.45        68.27304
883.85        67.03583
884.25        65.87595
884.65        65.43822
885.05         65.9058
885.45        67.03084
885.85        68.34834
886.25        69.10673
886.65        69.08225
887.05        68.51726
887.45        67.80022
887.85        67.50974
888.25        67.79498
888.65        68.46844
889.04        69.27242
889.44        69.69926
889.84        69.62856
890.24        69.21928
890.64        68.69946
891.04        68.39899
891.44        68.37704
891.84        68.48648
892.24        68.57322
892.64        68.38819
893.04        67.90041
893.44        67.29858
893.83        66.63202
894.23        65.97527
894.63        65.36735
895.03        64.76209
895.43        64.38947
895.83        64.64023
896.23        65.53491
896.63        66.93732
897.02        68.35371
897.42        68.88702
897.82        68.34483
898.22        67.01934
898.62        65.44019
899.01        64.42875
899.41        64.23695
899.81        64.59191
900.21        65.27628
900.61        65.95979
901.00        66.49242
901.40        66.94809
901.80        67.28677
902.20        67.40839
902.59        67.31293
902.99        67.01374
903.39        66.55196
903.79        66.02656
904.18        65.50952
904.58         65.0505
904.98         64.8148
905.38        65.04394
905.77        65.73325
906.17         66.7862
906.57        67.88737
906.96        68.56506
907.36        68.64905
907.76        68.24334
908.15        67.61538
908.55        67.15845
908.95        67.00918
909.34        67.09846
909.74        67.17967
910.14        66.81862
910.53        65.94452
910.93        64.79662
911.33        63.81868
911.72        63.69737
912.12        64.50265
912.52        65.91585
912.91        67.44032
913.31        68.23122
913.70        68.12934
914.10         67.3699
914.49         66.1803
914.89        65.14267
915.29        64.52072
915.68        64.17198
916.08        64.13946
916.47        64.46123
916.87        65.04398
917.26        65.87675
917.66        66.70208
918.05        67.11749
918.45        67.00739
918.84        66.52789
919.24        65.80978
919.64        65.10126
920.03        64.53097
920.42        64.04734
920.82        63.85625
921.21        64.23318
921.61         65.1191
922.00        66.44895
922.40        67.72594
922.79        68.36832
923.19        68.22855
923.58        67.25412
923.98        65.68916
924.37        64.78376
924.77        65.06733
925.16        62.56335
925.55        64.08057
925.95        64.11462
926.34        64.66153
926.74        65.47285
927.13        66.45248
927.52        67.25036
927.92        67.73988
928.31        68.06715
928.70        68.16389
929.10        67.98614
929.49         67.5698
929.89        66.91727
930.28        66.32465
930.67        66.26685
931.07        66.78973
931.46        67.81321
931.85        68.86689
932.24        69.23428
932.64        68.74883
933.03        67.51037
933.42        65.95338
933.82        65.00019
934.21        64.91329
934.60        65.44371
934.99        65.91184
935.39        65.68298
935.78        64.67118
936.17        62.47416
936.56        59.40077
936.96        60.37711
937.35        59.63072
937.74        61.64223
938.13         63.7306
938.53        65.16302
938.92        65.84343
939.31        66.05475
939.70        66.02991
940.09         66.0154
940.49        66.14513
940.88        66.33218
941.27        66.56424
941.66        66.88966
942.05        67.28385
942.44        67.70309
942.84        68.15118
943.23        68.62817
943.62        69.08294
944.01        69.56174
944.40        69.78123
944.79        69.28973
945.18        68.03711
945.57        66.11093
945.97        64.22473
946.36        63.61839
946.75          64.633
947.14        66.80046
947.53        69.10645
947.92        70.16619
948.31        69.73344
948.70         68.2338
949.09        66.31017
949.48          65.097
949.87        64.96791
950.26        65.56626
950.65         66.4873
951.04        67.06356
951.43        67.06894
951.82        66.75854
952.21        66.30035
952.60        65.92469
952.99        65.71918
953.38        65.55755
953.77        65.43266
954.16        65.37399
954.55        65.36175
954.94        65.41242
955.33        65.44227
955.72        65.28314
956.11        64.91475
956.50        64.40022
956.89        63.86183
957.28        63.55085
957.66        63.57177
958.05        63.76318
958.44        64.08617
958.83        64.48303
959.22         64.9024
959.61        65.37186
960.00         65.6795
960.39        65.45206
960.78        64.64273
961.16         63.3571
961.55        62.06255
961.94        61.35932
962.33        61.38604
962.72        61.99723
963.11        62.82612
963.49        63.23689
963.88        62.96728
964.27        62.23698
964.66        61.39817
965.04        61.03194
965.43        61.28531
965.82        61.98166
966.21        62.80431
966.60        63.25021
966.98        63.20218
967.37         62.8025
967.76        62.37149
968.15        62.39414
968.53        62.98623
968.92        63.88777
969.31        64.81122
969.69        65.28804
970.08        65.12994
970.47        64.53677
970.86        63.66093
971.24         62.7134
971.63        61.86882
972.02        61.08969
972.40          60.465
972.79        60.17776
973.17        60.26746
973.56        60.60461
973.95         61.1278
974.33         61.6846
974.72        62.07108
975.11        62.32929
975.49        62.27658
975.88         61.6361
976.26        60.43602
976.65        58.82878
977.04         57.1886
977.42        56.17311
977.81        55.99921
978.19        56.47076
978.58        57.39279
978.96        58.40657
979.35        59.26736
979.74        60.14169
980.12        60.84829
980.51         60.8533
980.89        60.23167
981.28        59.05081
981.66        57.93201
982.05        57.76793
982.43        58.66508
982.82         60.3568
983.20        62.28651
983.59        63.14086
983.97        62.62475
984.35        61.02185
984.74        59.07121
985.12        57.84256
985.51        57.64767
985.89        58.18153
986.28        58.99776
986.66        59.24088
987.04        58.60691
987.43        57.55634
987.81        56.37796
988.20        55.33229
988.58        54.40903
988.96        53.35674
989.35        52.43802
989.73        52.35975
990.12        53.32988
990.50         55.1394
990.88        56.81035
991.27        57.22383
991.65        56.46174
992.03        54.79747
992.42        53.04786
992.80        52.79248
993.18        54.49378
993.56        57.37458
993.95        60.50383
994.33        63.04292
994.71        64.54036
995.10        65.25131
995.48        65.23485
995.86        64.46867
996.24        63.04048
996.63         60.9586
997.01        58.33611
997.39        55.91843
997.77        54.30227
998.15         53.4673
998.54        53.46039
998.92        54.24155
999.30        55.75669
999.68        58.34053
1000.06        61.25238
1000.45        61.82261
1000.83         59.1665
1001.21        54.58741
1001.59        50.47128
1001.97        48.75155
1002.35         49.2875
1002.73        51.50233
1003.12        54.53764
1003.50        56.27584
1003.88        55.60266
1004.26        53.27834
1004.64        50.20809
1005.02        47.57321
1005.40        45.78016
1005.78        44.44251
1006.16        43.88508
1006.54        44.76284
1006.92        46.75673
1007.30        49.20529
1007.69        51.30931
1008.07        52.52208
1008.45        52.69542
1008.83        51.99498
1009.21         49.6335
1009.59        44.42749
1009.97        36.70766
1010.35        27.76836
1010.73         21.5222
1011.11        21.54477
1011.49        27.16696
1011.86        36.85534
1012.24        46.22084
1012.62         50.8446
1013.00        50.32814
1013.38        46.31745
1013.76         40.8256
1014.14        37.39671
1014.52        37.19558
1014.90        39.04763
1015.28        41.81974
1015.66        43.67368
1016.04        43.88834
1016.41        43.14561
1016.79        41.54152
1017.17        39.34783
1017.55        37.23277
1017.93        35.27597
1018.31        33.92615
1018.69        33.65503
1019.06        34.27409
1019.44        35.38352
1019.82        36.68559
1020.20         37.2204
1020.58        36.51834
1020.95        34.97953
1021.33        32.36755
1021.71        27.40306
1022.09        18.59041
1022.46        1.286162
1022.84        -25.2195
1023.22        -35.4738
1023.60       -13.57827
1023.97        13.25185
1024.35        28.81051
1024.73        33.87656
