SpectraSmart Spectrum 2.9.0.0
--------- Device Information -----------
Spectrum Name :  反射率_0
Saving Time :  2024/04/20 00:34:52
Spectro-Module Model Name : SE2030-DUVN
Spectro-Module Serial Number : OS361AC55029948
Wavelength Start : 200
Wavelength End : 1025
Wavelength Unit : Wavelength(nm)
Spectrum Unit : Reflectance(%)
-----------Spectrum Setting ------------
Integration Time : 30ms
Average : 10
Boxcar : 0
Background removal :  enabled
linearity correction :  enabled
SC :  disabled
Intensity correction :  disabled
DWT denoise :  enabled
savitzky-golay :  disabled
FFT :  disabled
Running average :  disabled
Kalman :  disabled
High pass :  disabled
---------------BEGIN--------------------
Wavelength(nm)             Reflectance(%)
200.29               0
200.75        54.85101
201.21          55.681
201.67         58.3051
202.13        61.70874
202.58        65.13351
203.04         68.9361
203.50        72.19353
203.96        72.45145
204.42        69.86873
204.88        66.05853
205.34        62.37551
205.80        59.17297
206.26          55.811
206.72        51.31598
207.18         45.3278
207.64        40.27117
208.10        39.62896
208.55        43.53213
209.01        48.37143
209.47         51.4068
209.93        52.47152
210.39        52.36859
210.85        51.82676
211.31        51.73878
211.77        52.24881
212.23         53.1116
212.69        53.91771
213.14        53.62934
213.60        51.93071
214.06         50.4657
214.52        49.61796
214.98        49.46298
215.44        49.81462
215.90        50.13557
216.36         51.1253
216.81        53.99142
217.27        58.42188
217.73        63.92334
218.19         67.6299
218.65        65.67735
219.11        57.53271
219.57        43.56374
220.02        27.49194
220.48        19.19742
220.94        22.31619
221.40        34.89524
221.86        50.47162
222.32        58.89954
222.77        57.75669
223.23        50.43989
223.69        41.72215
224.15        38.42881
224.61        41.03457
225.06        46.08773
225.52        50.61006
225.98        52.26308
226.44        51.00101
226.90        48.00931
227.36        44.36927
227.81        41.86463
228.27        41.40746
228.73        42.10816
229.19        43.29394
229.65        44.22856
230.10        44.69262
230.56         44.9566
231.02        45.07467
231.48        45.08018
231.93        44.96936
232.39        44.71604
232.85        44.28453
233.31         43.6816
233.77        42.93631
234.22        42.06723
234.68        41.20627
235.14        40.47538
235.60        39.94804
236.05        39.63616
236.51        39.50124
236.97        39.42817
237.43        39.41123
237.88        39.61799
238.34        40.01608
238.80         40.7153
239.26        41.62561
239.71        42.48604
240.17        43.31969
240.63        44.72867
241.08        46.86581
241.54        49.56992
242.00        51.87207
242.46        51.90978
242.91        48.73851
243.37        41.42324
243.83         30.5802
244.28         23.6151
244.74        28.00594
245.20        42.43123
245.66        56.86573
246.11        62.65583
246.57        59.18357
247.03        47.29649
247.48        30.29144
247.94        25.65805
248.40        35.65246
248.85        47.99606
249.31        56.89062
249.77        61.26272
250.22        62.39013
250.68        61.75862
251.14        59.80237
251.59        57.22443
252.05        54.86216
252.51        52.50498
252.96        50.28041
253.42        48.80446
253.88        48.21337
254.33        48.45267
254.79        49.85018
255.25        52.27463
255.70        55.34375
256.16        58.65213
256.62        61.15391
257.07        61.71051
257.53        60.52803
257.99        57.99258
258.44        54.99168
258.90        53.35253
259.35        52.72962
259.81        52.86828
260.27         52.6847
260.72        51.24252
261.18        48.87043
261.63        45.67152
262.09        42.78765
262.55        41.33404
263.00        41.31118
263.46         42.2719
263.91        43.08088
264.37        42.60986
264.83        40.85937
265.28        38.29013
265.74        36.01464
266.19        35.18757
266.65        35.91697
267.11        37.55204
267.56         39.2215
268.02        39.67352
268.47        38.70358
268.93        36.76696
269.38        34.40092
269.84        32.70758
270.30        32.00227
270.75         31.9698
271.21        32.25222
271.66        32.32037
272.12        31.99194
272.57        31.43538
273.03        30.81907
273.48        30.30066
273.94        29.96585
274.39        29.71336
274.85        29.42514
275.31        28.92747
275.76        28.19243
276.22        27.31367
276.67        26.47955
277.13         26.0503
277.58        26.01715
278.04        26.27965
278.49        26.51042
278.95        26.29554
279.40        25.56017
279.86        24.53544
280.31          23.472
280.77         22.8455
281.22        22.67964
281.68        22.83292
282.13        23.08135
282.59        23.12374
283.04        22.88503
283.50        22.50108
283.95        22.06187
284.41        21.72051
284.86        21.50023
285.32        21.35577
285.77        21.26407
286.22        21.25706
286.68        21.31345
287.13        21.41445
287.59        21.48761
288.04        21.40686
288.50        21.17354
288.95        20.79985
289.41        20.40347
289.86        20.09635
290.32        19.95533
290.77        19.94132
291.22        20.01336
291.68        20.07289
292.13        20.10392
292.59        20.14384
293.04        20.26139
293.50        20.57327
293.95        21.07889
294.40        21.71309
294.86        22.36334
295.31         22.8698
295.77        23.19554
296.22        23.39565
296.68        23.53916
297.13        23.71614
297.58        23.97949
298.04         24.3136
298.49        24.72796
298.95        25.27036
299.40        25.91664
299.85        26.64102
300.31        27.37335
300.76        28.00462
301.21        28.50126
301.67        28.91051
302.12        29.22197
302.58         29.4772
303.03        29.67912
303.48        29.83097
303.94        30.01758
304.39        30.33433
304.84         30.7937
305.30        31.35467
305.75        31.87667
306.20        32.15749
306.66        32.18187
307.11        32.01171
307.57        31.78662
308.02        31.65278
308.47        31.67469
308.93        31.79387
309.38        31.97533
309.83        32.20896
310.29        32.46026
310.74        32.73299
311.19        32.93531
311.65        32.91953
312.10        32.66626
312.55        32.22024
313.00        31.72329
313.46        31.39789
313.91        31.28314
314.36        31.33752
314.82        31.44806
315.27        31.44697
315.72        31.28012
316.18        31.01161
316.63        30.72329
317.08        30.54304
317.53        30.49572
317.99        30.52457
318.44        30.56265
318.89        30.49681
319.35        30.29826
319.80        30.00871
320.25        29.68071
320.70        29.39725
321.16        29.18093
321.61         29.0079
322.06        28.85335
322.51        28.68099
322.97        28.47085
323.42        28.24209
323.87        27.99136
324.32         27.7154
324.78        27.41457
325.23        27.09838
325.68        26.77237
326.13        26.45242
326.59         26.1516
327.04         25.8941
327.49        25.68912
327.94         25.5501
328.39        25.47391
328.85        25.43144
329.30        25.44592
329.75        25.51621
330.20        25.62368
330.66        25.74045
331.11         25.8103
331.56        25.69688
332.01        25.37868
332.46        24.89046
332.92        24.35222
333.37        23.97541
333.82        23.83064
334.27        23.88589
334.72        24.03618
335.17        24.09011
335.63        23.97889
336.08        23.75305
336.53         23.5184
336.98        23.46157
337.43        23.62061
337.88        23.93598
338.34        24.22192
338.79        24.22563
339.24        23.88007
339.69        23.26859
340.14        22.63347
340.59        22.37718
341.05        22.57716
341.50        23.10629
341.95         23.7037
342.40        23.96728
342.85        23.80356
343.30         23.3549
343.75        22.79057
344.20        22.38749
344.66        22.22886
345.11        22.19283
345.56        22.24454
346.01        22.32832
346.46        22.40078
346.91        22.50572
347.36        22.53052
347.81        22.28601
348.26        21.77229
348.72        21.07416
349.17        20.39139
349.62        20.14033
350.07        20.40623
350.52        21.04136
350.97        21.80112
351.42        22.31835
351.87        22.48611
352.32         22.4018
352.77         22.1528
353.22        21.88518
353.67        21.65962
354.13        21.44325
354.58        21.21705
355.03        20.99459
355.48        20.78679
355.93        20.62418
356.38        20.51925
356.83        20.47339
357.28          20.477
357.73        20.50676
358.18        20.54933
358.63        20.58822
359.08        20.60627
359.53         20.6043
359.98        20.53893
360.43        20.34708
360.88        20.03372
361.33         19.6288
361.78        19.22881
362.23        18.99149
362.68        18.94852
363.13        19.04397
363.58        19.18555
364.03        19.22766
364.48        19.12574
364.93        18.92139
365.38        18.64264
365.83         18.3424
366.28        18.05288
366.73        17.76172
367.18        17.49689
367.63        17.30341
368.08        17.18516
368.53        17.13372
368.98        17.11153
369.43        17.05085
369.88         16.9365
370.33        16.79119
370.78          16.631
371.23        16.48899
371.68        16.37908
372.13        16.28098
372.58        16.21826
373.03        16.23227
373.48        16.31584
373.93        16.45033
374.38        16.55677
374.83        16.51348
375.28        16.30237
375.72        15.95578
376.17        15.58289
376.62        15.32117
377.07        15.21564
377.52        15.22488
377.97        15.30074
378.42        15.36643
378.87        15.38879
379.32        15.38344
379.77        15.35574
380.22        15.31018
380.67        15.25081
381.11         15.1802
381.56        15.07618
382.01        14.92451
382.46        14.73106
382.91        14.50176
383.36        14.30199
383.81        14.22549
384.26        14.28113
384.71        14.44415
385.15        14.60245
385.60        14.58484
386.05        14.36337
386.50        13.99216
386.95        13.61105
387.40        13.44247
387.85        13.52834
388.29        13.78981
388.74        14.08037
389.19        14.19708
389.64        14.09794
390.09        13.84522
390.54        13.54983
390.98         13.3816
391.43        13.39569
391.88         13.5218
392.33        13.65774
392.78         13.6604
393.23        13.51052
393.67        13.25762
394.12        13.01359
394.57        12.88159
395.02         12.8829
395.47        12.98079
395.91        13.10765
396.36         13.1325
396.81        13.02852
397.26        12.83428
397.71        12.63566
398.15        12.54632
398.60        12.60082
399.05        12.74864
399.50        12.89996
399.95        12.92777
400.39        12.80614
400.84        12.57164
401.29        12.31636
401.74        12.20888
402.18        12.29767
402.63         12.5194
403.08        12.75482
403.53        12.81486
403.97        12.66085
404.42         12.3668
404.87        12.04679
405.32        11.88636
405.76        11.93139
406.21        12.11647
406.66        12.35225
407.11        12.50097
407.55        12.52418
408.00        12.46834
408.45         12.3742
408.90        12.27918
409.34        12.21862
409.79        12.22988
410.24        12.28224
410.68        12.27996
411.13        12.21902
411.58        12.16261
412.03        12.11546
412.47         12.0667
412.92        12.01927
413.37        11.96455
413.81        11.94341
414.26        12.03138
414.71        12.22605
415.15        12.51263
415.60        12.76646
416.05        12.80571
416.49         12.5923
416.94        12.18999
417.39        11.75042
417.83        11.52032
418.28         11.5643
418.73        11.79906
419.17        12.09716
419.62        12.24404
420.07        12.19128
420.51        12.01352
420.96         11.7902
421.41        11.62712
421.85        11.55594
422.30        11.54418
422.74        11.57471
423.19        11.65047
423.64        11.75363
424.08        11.89321
424.53        12.02003
424.98        12.06485
425.42        12.01284
425.87        11.88603
426.31        11.71953
426.76        11.57976
427.21        11.48042
427.65        11.40065
428.10        11.36371
428.54        11.38448
428.99          11.461
429.44        11.63925
429.88        11.82941
430.33        11.80823
430.77        11.61107
431.22        11.48051
431.66        11.47123
432.11        11.53908
432.56        11.67561
433.00        11.92466
433.45        12.14373
433.89        12.11736
434.34        11.91247
434.78        11.66658
435.23        11.39751
435.67        11.89582
436.12         11.5045
436.57         11.4534
437.01        11.29377
437.46        11.23416
437.90         11.2791
438.35        11.33351
438.79        11.36762
439.24        11.38529
439.68        11.37792
440.13        11.25211
440.57        11.07745
441.02        11.14345
441.46        11.34698
441.91        11.33912
442.35        10.86491
442.80        10.69989
443.24        10.73007
443.69         10.7154
444.13        10.63283
444.58        10.57091
445.02        10.53112
445.47        10.52178
445.91        10.52101
446.36        10.47017
446.80        10.36254
447.24        10.23053
447.69        10.11345
448.13        10.04541
448.58        10.04087
449.02        10.08497
449.47        10.14549
449.91        10.16548
450.36        10.13465
450.80        10.06699
451.25        9.996768
451.69         9.96498
452.13        9.985345
452.58        10.03551
453.02        10.09568
453.47        10.13202
453.91        10.13711
454.36        10.12078
454.80        10.08916
455.24         10.0534
455.69        10.02382
456.13        9.986255
456.58        9.955463
457.02        9.947704
457.46        9.964486
457.91        9.979286
458.35        9.987698
458.79        10.00204
459.24         10.0193
459.68        10.03361
460.13         10.0795
460.57        10.10899
461.01        10.11338
461.46        10.36462
461.90        10.44968
462.34        10.35203
462.79        10.41507
463.23        10.29355
463.68        10.17968
464.12        10.11039
464.56        10.18454
465.01        10.31302
465.45        10.44323
465.89        10.50714
466.34        10.49572
466.78        10.39803
467.22        10.27464
467.67          10.297
468.11        10.45226
468.55        10.51907
468.99        10.48691
469.44        10.51227
469.88        10.59437
470.32        10.63673
470.77        10.62923
471.21        10.61353
471.65        10.59187
472.10        10.55318
472.54        10.51745
472.98        10.54527
473.42        10.64084
473.87        10.75562
474.31        10.85395
474.75        10.94331
475.20        10.99155
475.64        10.89737
476.08        10.73062
476.52        10.69322
476.97        10.80423
477.41        10.98036
477.85        11.15523
478.29        11.25224
478.74        11.24799
479.18        11.14627
479.62        11.02275
480.06        10.99748
480.50        11.07838
480.95        11.17638
481.39        11.24263
481.83        11.25579
482.27        11.20657
482.72        11.10862
483.16        11.00625
483.60        10.96966
484.04        11.00582
484.48        11.15144
484.93        11.41884
485.37        11.53032
485.81        11.51682
486.25         12.0187
486.69        12.21643
487.14        11.83072
487.58        11.60613
488.02        12.51825
488.46        12.22132
488.90        12.33155
489.34        12.06486
489.79        12.14142
490.23        12.50554
490.67        12.68895
491.11        12.66359
491.55        12.54883
491.99         12.4013
492.43        12.32785
492.88        12.36084
493.32        12.40871
493.76        12.47876
494.20        12.63124
494.64        12.86072
495.08        13.13621
495.52        13.41084
495.96        13.62694
496.41        13.76795
496.85        13.82179
497.29        13.82443
497.73        13.90409
498.17        14.05797
498.61        14.13028
499.05        14.13041
499.49        14.21873
499.93         14.4019
500.37        14.55144
500.82         14.6652
501.26        14.86743
501.70        15.11683
502.14         15.2036
502.58        15.14603
503.02        15.15207
503.46         15.2358
503.90        15.28682
504.34         15.2908
504.78        15.27577
505.22        15.24497
505.66        15.20228
506.10        15.17024
506.54        15.18013
506.98        15.24106
507.42        15.34533
507.86        15.48078
508.30        15.62578
508.74         15.7656
509.18          15.896
509.62        16.01061
510.06        16.10156
510.50        16.16871
510.94         16.2188
511.38        16.24335
511.82        16.23112
512.26        16.18707
512.70        16.11549
513.14        16.06197
513.58        16.09374
514.02        16.21225
514.46        16.39642
514.90        16.57772
515.34        16.59251
515.78        16.43509
516.22        16.23484
516.66        16.08558
517.10         15.7782
517.54         15.3407
517.98        15.96076
518.42         15.8433
518.86        16.10541
519.30        16.19189
519.74        16.28417
520.18        16.35773
520.62        16.34988
521.06        16.27769
521.50        16.14134
521.93        15.98037
522.37        15.87078
522.81        15.83057
523.25        15.84181
523.69        15.88059
524.13        15.90678
524.57        15.90475
525.01        15.88394
525.45        15.84811
525.89        15.80228
526.32        15.74967
526.76        15.69099
527.20         15.6223
527.64        15.54293
528.08         15.4549
528.52        15.35778
528.96        15.27291
529.40         15.2299
529.83        15.23138
530.27        15.27331
530.71        15.31107
531.15        15.27471
531.59        15.15517
532.03         14.9753
532.46        14.79699
532.90        14.73281
533.34        14.79509
533.78        14.94272
534.22        15.10582
534.66         15.1771
535.09        15.12771
535.53        14.99954
535.97        14.83366
536.41        14.69223
536.85        14.60126
537.28        14.55249
537.72        14.54813
538.16        14.54574
538.60        14.61023
539.04        14.67934
539.47        14.76026
539.91        14.86776
540.35        15.00427
540.79        15.03274
541.22        15.13869
541.66        15.20352
542.10        15.29789
542.54        15.18206
542.97        15.27295
543.41        15.31185
543.85        15.41549
544.29         15.5399
544.72        15.66231
545.16        15.79116
545.60        15.91684
546.04        15.98874
546.47        16.05077
546.91        16.27523
547.35        16.61781
547.79        16.86037
548.22        16.97504
548.66        17.03519
549.10        17.07595
549.53         17.2149
549.97        17.45581
550.41        17.48275
550.84        17.61777
551.28        17.69144
551.72        17.82701
552.15        18.00557
552.59         18.2271
553.03        18.48368
553.46        18.72159
553.90        18.87654
554.34        18.93692
554.77        18.92424
555.21         18.8896
555.65        18.90444
556.08        18.98558
556.52        19.11057
556.96         19.2531
557.39        19.39746
557.83        19.52422
558.27        19.59282
558.70        19.61616
559.14        19.65169
559.57        19.70049
560.01        19.75757
560.45        19.80542
560.88        19.79317
561.32        19.76317
561.75         19.7747
562.19         19.9058
562.63        19.99284
563.06         20.0519
563.50        20.13515
563.93        20.23586
564.37        20.37997
564.80        20.46906
565.24        20.58486
565.68         20.6829
566.11        20.76671
566.55        20.85041
566.98        20.89332
567.42        20.89946
567.85        21.13822
568.29        21.06962
568.72        21.33611
569.16        21.70205
569.60        21.94162
570.03         22.0158
570.47        22.07725
570.90        22.06417
571.34        22.34527
571.77        22.18946
572.21        22.62508
572.64        22.80426
573.08        22.85989
573.51        23.01342
573.95        23.54789
574.38        23.63655
574.82        23.80764
575.25        23.80827
575.69        23.65548
576.12        23.61951
576.56        23.60192
576.99        23.71046
577.42        23.83745
577.86        23.83961
578.29        23.87639
578.73         24.1548
579.16        23.67637
579.60        23.57973
580.03        23.60911
580.47        23.68374
580.90        23.32438
581.33        23.06107
581.77        23.26044
582.20        23.43142
582.64        23.14598
583.07        22.78286
583.51        22.93211
583.94        22.53785
584.37        22.70044
584.81        22.16658
585.24        22.13201
585.68        22.27222
586.11        22.11676
586.54        21.92982
586.98        21.84146
587.41        21.93544
587.85        21.93626
588.28        21.81266
588.71        21.67055
589.15        21.56853
589.58        21.33271
590.01        21.38635
590.45        21.71377
590.88         21.5443
591.31        21.43152
591.75        21.16662
592.18        21.31217
592.61        21.34183
593.05        21.66236
593.48        21.55175
593.91        21.94879
594.35        21.66869
594.78        21.93496
595.21        22.12354
595.65         22.3075
596.08        22.14269
596.51        22.23576
596.94        22.51615
597.38        22.67063
597.81        22.74113
598.24        22.87654
598.68        23.41054
599.11        23.64595
599.54        24.24831
599.97        24.33568
600.41        24.48417
600.84        25.03634
601.27        25.44893
601.70        25.82702
602.14        25.99148
602.57        26.38752
603.00        26.99186
603.43        27.42944
603.87        27.70268
604.30        28.14718
604.73        28.56245
605.16        29.06303
605.60          29.314
606.03        29.83192
606.46        30.43509
606.89        30.96253
607.32        31.59332
607.76        31.69055
608.19        32.08527
608.62        32.40088
609.05        32.54149
609.48        32.84755
609.92        33.19441
610.35        33.67318
610.78        34.17798
611.21        34.78692
611.64        34.93274
612.07         35.1517
612.50         35.6657
612.94        35.58039
613.37        36.15036
613.80        36.41485
614.23        36.69892
614.66        37.16224
615.09        37.41728
615.52        37.80096
615.96        38.14561
616.39        38.43449
616.82        38.70312
617.25        38.78936
617.68        39.12549
618.11        39.47461
618.54        39.86978
618.97        39.92605
619.40        39.70013
619.84         39.8359
620.27        39.77721
620.70        40.23263
621.13        40.87044
621.56        41.10815
621.99        41.03129
622.42        41.09836
622.85        41.38283
623.28        41.53947
623.71        41.50901
624.14        41.64207
624.57         41.3837
625.00        41.03556
625.43        41.32386
625.86        40.86243
626.29        40.76686
626.72        40.82632
627.15        40.59604
627.58        40.56073
628.01        40.46004
628.44         40.3552
628.87        40.23915
629.30        39.67416
629.73        39.59683
630.16        39.07759
630.59        38.80295
631.02        38.41616
631.45        38.04074
631.88         37.6532
632.31        37.24366
632.74        36.82339
633.17        36.38127
633.60        35.90991
634.03        35.41082
634.46        34.88995
634.89        34.36499
635.32        33.86288
635.75        33.39435
636.18        32.95995
636.61        32.54433
637.04        32.11764
637.47        31.67149
637.89        31.21451
638.32        30.76731
638.75        30.38267
639.18        30.07404
639.61        29.82936
640.04        29.60937
640.47        29.34833
640.90        29.03271
641.33        28.68521
641.76        28.35041
642.18        28.10363
642.61        27.95983
643.04        27.89632
643.47        27.88017
643.90        27.85709
644.33        27.81178
644.76        27.76522
645.18        27.73215
645.61        27.74002
646.04        27.79916
646.47         27.8985
646.90        28.04569
647.33        28.26416
647.75         28.5576
648.18        28.89042
648.61        29.23809
649.04        29.63669
649.47        30.04669
649.89        30.29126
650.32        30.45281
650.75        30.87027
651.18        31.54728
651.61        32.18941
652.03        32.76744
652.46        33.46162
652.89        34.22289
653.32        34.74184
653.74        35.08601
654.17        35.64802
654.60        36.20156
655.03         37.3196
655.46        37.06923
655.88        38.79107
656.31        39.87448
656.74        44.73985
657.16        42.67219
657.59        39.90416
658.02        40.64771
658.45        41.31768
658.87         42.3183
659.30        42.99529
659.73         43.8545
660.15        44.31482
660.58         44.4636
661.01        44.53966
661.44        44.65857
661.86        44.97792
662.29        45.49394
662.72        46.17835
663.14        46.86717
663.57        47.02316
664.00         46.7837
664.42        46.88181
664.85        47.38655
665.27        47.85845
665.70        48.20588
666.13        48.51224
666.55         48.7575
666.98        48.91964
667.41        49.04191
667.83         49.1878
668.26        49.36745
668.69        49.57195
669.11        49.77922
669.54        49.93349
669.96        50.03052
670.39        50.14423
670.82        50.26582
671.24        50.36863
671.67         50.4943
672.09        50.78443
672.52        51.17812
672.94        51.49393
673.37        51.66486
673.80        51.60676
674.22        51.41995
674.65        51.39378
675.07        51.57998
675.50        51.81615
675.92        52.04277
676.35        52.18962
676.77        52.22122
677.20        52.20714
677.62        52.20811
678.05        52.18067
678.47        52.11326
678.90        52.57882
679.32        52.52817
679.75        52.73622
680.17        52.88054
680.60        53.00304
681.02         53.1144
681.45        53.20341
681.87        53.30763
682.30        53.48407
682.72        53.67619
683.15        53.73837
683.57        53.71688
684.00        53.60032
684.42        53.55762
684.85        54.03149
685.27        53.97521
685.70        54.32761
686.12          54.678
686.54        54.90528
686.97        54.97025
687.39        54.89458
687.82        54.75594
688.24        54.77266
688.66        54.93249
689.09        54.98109
689.51        54.92445
689.94        54.95074
690.36           55.08
690.78        55.16665
691.21        55.20001
691.63        55.35288
692.06        55.64946
692.48        55.61461
692.90        55.76899
693.33        56.17142
693.75        56.01369
694.17        56.09664
694.60        56.13254
695.02        56.03743
695.44        55.83482
695.87        55.83994
696.29        56.01409
696.71         55.8961
697.14        55.68269
697.56        55.88696
697.98        56.74421
698.41        57.49175
698.83        57.05782
699.25        56.87388
699.68        56.74412
700.10        56.69554
700.52        56.77502
700.94        56.99324
701.37        57.26495
701.79        57.47258
702.21        57.55711
702.64        57.55648
703.06        57.52984
703.48        57.57988
703.90        57.73185
704.33        57.94263
704.75        58.14874
705.17         58.2249
705.59        58.14648
706.01        57.96107
706.44        57.76908
706.86        57.72187
707.28        57.84671
707.70        58.10695
708.12        58.42001
708.55        58.59978
708.97        58.63307
709.39         58.6891
709.81         58.7608
710.23        58.73444
710.66        58.62387
711.08        58.49613
711.50        58.40938
711.92        58.47156
712.34          58.647
712.76        58.95778
713.19        59.29003
713.61        59.52258
714.03        59.59056
714.45        59.53397
714.87        59.42769
715.29        59.39382
715.71         59.4661
716.13        59.58987
716.56        59.74232
716.98        59.87577
717.40        59.95656
717.82        60.00109
718.24        60.03115
718.66        60.07768
719.08          60.149
719.50        60.23141
719.92        60.29899
720.34        60.32456
720.76        60.30666
721.19        60.22356
721.61        60.12564
722.03        60.14632
722.45          60.279
722.87        60.30634
723.29        60.25105
723.71        60.31015
724.13        60.49094
724.55        60.68368
724.97        60.87076
725.39        61.03374
725.81        61.14975
726.23        61.28673
726.65        61.48312
727.07        61.38304
727.49        61.66668
727.91         61.7807
728.33        61.89101
728.75        61.92016
729.17         61.8674
729.59        61.75702
730.01        61.63121
730.43        61.58308
730.85        61.63512
731.27        61.72773
731.69        61.84446
732.10        62.04082
732.52        62.25373
732.94        62.31809
733.36        62.24156
733.78        62.19399
734.20        62.20978
734.62        62.19022
735.04        62.12146
735.46        62.12785
735.88        62.22982
736.30        62.03072
736.72        62.08626
737.13        62.38309
737.55        62.91592
737.97        63.22119
738.39        63.21276
738.81        63.00472
739.23         62.7522
739.65        62.69224
740.06        62.77728
740.48        63.01851
740.90        63.35466
741.32        62.60348
741.74        62.66976
742.16         62.4828
742.57        62.63984
742.99        62.81287
743.41        62.96531
743.83        63.10894
744.25        63.19716
744.67        63.23031
745.08        63.22171
745.50        63.17154
745.92        63.10112
746.34        63.00859
746.75        62.91044
747.17        62.83373
747.59         62.7965
748.01        62.80951
748.42        62.87109
748.84        62.98577
749.26        63.16029
749.68        63.24688
750.09        63.29057
750.51        63.63305
750.93        64.10653
751.35        64.07349
751.76        63.65121
752.18        63.17951
752.60        63.47084
753.01        63.49899
753.43        63.47677
753.85        63.48833
754.27        63.51088
754.68        63.71966
755.10        64.11159
755.52        63.66605
755.93        63.92987
756.35        63.89429
756.77        63.99245
757.18        64.00195
757.60        64.04156
758.02        64.14165
758.43        64.13806
758.85        64.69054
759.26        64.88354
759.68        63.89316
760.10        64.19524
760.51        64.18138
760.93        64.50195
761.34        63.76791
761.76        64.40707
762.18        63.94884
762.59        63.33768
763.01        63.45788
763.42        64.29397
763.84        64.72382
764.26        64.64394
764.67        64.51958
765.09        64.53339
765.50        64.87634
765.92         65.4475
766.33        65.72752
766.75        65.58251
767.16        65.21497
767.58        64.70164
768.00        64.36006
768.41        64.36015
768.83        64.39294
769.24        64.39667
769.66        65.36681
770.07        65.81226
770.49        65.79095
770.90        65.13136
771.32        65.12951
771.73        65.74988
772.15        65.96472
772.56        65.73434
772.97        65.48773
773.39        65.26826
773.80        65.12003
774.22        65.02078
774.63        64.77097
775.05        64.46953
775.46        64.48491
775.88        64.82496
776.29        65.36686
776.70        65.87321
777.12        66.01867
777.53         65.7404
777.95        65.11825
778.36        64.43243
778.77        64.15446
779.19        64.39291
779.60        65.04594
780.02        65.80209
780.43        66.28848
780.84        66.38525
781.26        65.93574
781.67        65.27999
782.09        65.62518
782.50        66.73962
782.91        66.93657
783.33        66.23063
783.74        66.05482
784.15        66.43081
784.57         66.5256
784.98        66.30605
785.39        66.09749
785.81        65.92637
786.22        65.74527
786.63        65.59592
787.04        65.53067
787.46        65.56246
787.87        65.69286
788.28        65.88818
788.70        66.05824
789.11        66.16814
789.52        66.24124
789.93        66.29587
790.35        66.34906
790.76        66.41094
791.17         66.4789
791.58        66.52641
792.00        66.45295
792.41        66.27215
792.82        66.16601
793.23        66.01799
793.65        65.84499
794.06        65.74971
794.47        65.87437
794.88        66.06116
795.29        66.99546
795.71        66.66136
796.12        66.56391
796.53        66.85036
796.94        66.54092
797.35        65.98717
797.76          65.868
798.18        66.20652
798.59        66.41351
799.00        66.44527
799.41         66.6894
799.82        67.06928
800.23         67.2578
800.64        67.20866
801.06        66.97716
801.47        66.71763
801.88        66.62672
802.29        66.74744
802.70        66.99695
803.11        67.24428
803.52        67.27682
803.93        67.06181
804.34        66.69949
804.75        66.28337
805.17        66.04598
805.58        66.08245
805.99        66.01327
806.40        65.90995
806.81        66.63673
807.22        67.81725
807.63        67.74287
808.04        66.62667
808.45        66.24117
808.86        66.77935
809.27        67.45252
809.68        68.03552
810.09        68.37453
810.50        68.36364
810.91        68.15593
811.32         67.8532
811.73        67.52708
812.14        67.23669
812.55        66.98151
812.96        66.78842
813.37        66.68913
813.78        66.69002
814.19        66.80156
814.60        66.95569
815.01        67.03614
815.42         67.0172
815.83        66.91426
816.24        66.79031
816.65        66.77616
817.05        66.91268
817.46        67.11271
817.87        67.32557
818.28        67.43408
818.69         67.4197
819.10        67.32799
819.51         67.2106
819.92        67.20131
820.33        67.34273
820.74        67.45452
821.14        67.54965
821.55        67.93536
821.96        68.45299
822.37        68.38554
822.78        67.82349
823.19        67.56834
823.60        67.69503
824.00        67.78104
824.41        67.73701
824.82        67.71837
825.23         67.7154
825.64        67.69324
826.04        67.70114
826.45        67.77221
826.86        67.91812
827.27        68.12536
827.68        68.32097
828.08        68.40069
828.49        68.29032
828.90        68.04883
829.31        67.76688
829.72        67.60809
830.12        67.63979
830.53        67.77875
830.94        67.96233
831.35         68.0629
831.75        68.06763
832.16        67.98235
832.57        67.86116
832.97        67.77084
833.38        67.71957
833.79        67.67629
834.20        67.65275
834.60        67.66339
835.01        67.72043
835.42        67.83746
835.82        67.94561
836.23        67.87601
836.64        67.62223
837.04        67.21751
837.45        66.83096
837.86        66.77926
838.26        67.13549
838.67        67.79372
839.08        68.48724
839.48        68.71523
839.89        68.36219
840.29          67.618
840.70         66.8597
841.11        66.57691
841.51        66.89111
841.92        67.58655
842.33        68.48294
842.73         69.2667
843.14        69.70578
843.54        69.94687
843.95        69.91409
844.35        69.56657
844.76        68.96299
845.17        68.15435
845.57        67.35875
845.98        66.93261
846.38        66.95274
846.79        67.32987
847.19         67.9631
847.60         68.5171
848.00        68.91064
848.41        69.15593
848.81        69.31447
849.22        69.41381
849.62        69.51182
850.03        69.52812
850.43        69.50822
850.84        69.46788
851.24        69.46739
851.65        69.46633
852.05        69.48653
852.46        69.47539
852.86        69.43546
853.27        69.30518
853.67        69.07963
854.07        69.10056
854.48         69.2504
854.88        69.01606
855.29        68.42614
855.69        68.16085
856.10        68.21985
856.50        68.32764
856.90         68.4137
857.31        68.54411
857.71        68.75597
858.12        68.96075
858.52        69.15354
858.92        69.22345
859.33        69.13879
859.73        68.94839
860.13        68.72456
860.54        68.62384
860.94        68.73527
861.34        68.97355
861.75        69.17701
862.15        69.17163
862.55        68.87936
862.96        68.41536
863.36        67.87943
863.76         67.4137
864.17        67.08747
864.57        66.87814
864.97        66.86143
865.38         67.1395
865.78        67.74198
866.18         68.5611
866.58        69.34601
866.99        69.64983
867.39        69.38187
867.79        68.64354
868.19        67.59335
868.60        66.48566
869.00        65.41422
869.40        64.38182
869.80        63.59866
870.21        63.38947
870.61        63.84592
871.01        64.82865
871.41        65.95812
871.81        66.60755
872.22        66.65061
872.62        66.27138
873.02        65.65742
873.42        65.38322
873.82        65.36336
874.22        64.84346
874.63        64.16914
875.03        64.13916
875.43        64.85377
875.83        67.20796
876.23        67.56273
876.63        67.13214
877.03        65.24892
877.44        62.07995
877.84        135.7622
878.24        61.38744
878.64        63.14489
879.04        68.11067
879.44        64.75778
879.84        62.93658
880.24        67.90758
880.64        68.06794
881.04        64.63517
881.44        62.40982
881.84         62.1869
882.24          63.158
882.65         64.7081
883.05        65.55222
883.45        65.27076
883.85        64.63786
884.25        64.05914
884.65        63.81689
885.05        64.03648
885.45        64.56451
885.85        65.18253
886.25        65.57329
886.65        65.62909
887.05         65.4589
887.45        65.21385
887.85        65.10768
888.25        65.20327
888.65        65.43607
889.04        65.72174
889.44        65.85086
889.84        65.80089
890.24        65.63309
890.64         65.4491
891.04        65.40157
891.44        65.49805
891.84         65.6427
892.24        65.74738
892.64        65.66458
893.04        65.37527
893.44         65.0081
893.83        64.52676
894.23        63.89621
894.63        63.13755
895.03        62.24196
895.43        61.52204
895.83        61.49582
896.23        62.23505
896.63        63.60172
897.02        65.02863
897.42        65.49284
897.82        64.77677
898.22        63.20163
898.62        61.45243
899.01         60.5849
899.41        60.85739
899.81        61.89859
900.21        63.22932
900.61        64.12439
901.00        64.36993
901.40        64.17691
901.80        63.77731
902.20        63.52519
902.59        63.54731
902.99        63.71653
903.39        63.88108
903.79        63.81273
904.18        63.46328
904.58        62.98061
904.98        62.58813
905.38        62.61144
905.77        63.09308
906.17        63.90807
906.57        64.77218
906.96        65.27671
907.36        65.26838
907.76        64.85251
908.15        64.28264
908.55         63.9138
908.95        63.86868
909.34        64.08632
909.74        64.30539
910.14        64.06269
910.53        63.27577
910.93        62.17494
911.33        61.22905
911.72        61.17443
912.12        62.08351
912.52        63.61959
912.91        65.24722
913.31        66.06021
913.70        65.88932
914.10        64.99544
914.49         63.6403
914.89        62.48234
915.29        61.81668
915.68        61.48149
916.08        61.50176
916.47        61.89344
916.87        62.54538
917.26        63.44944
917.66        64.32946
918.05        64.74863
918.45        64.58828
918.84        64.01893
919.24        63.18572
919.64        62.36694
920.03        61.70296
920.42         61.1272
920.82        60.87591
921.21        61.26661
921.61        62.24354
922.00        63.74715
922.40        65.18665
922.79        65.82556
923.19        65.49171
923.58        64.12971
923.98        62.15025
924.37        61.18929
924.77        61.85009
925.16        59.73242
925.55         61.9147
925.95        62.01472
926.34        62.09176
926.74        62.06055
927.13         62.1524
927.52        62.46891
927.92        62.97589
928.31        63.69063
928.70        64.33867
929.10        64.50074
929.49        64.08343
929.89        63.21779
930.28        62.33636
930.67        62.13189
931.07        62.71336
931.46        63.90226
931.85        65.17868
932.24        65.76989
932.64        65.48519
933.03        64.46229
933.42         63.0873
933.82        62.16998
934.21        61.96203
934.60        62.25328
934.99        62.48935
935.39        62.24048
935.78        61.45664
936.17        59.63471
936.56        56.98186
936.96        58.36947
937.35        57.57761
937.74        59.43742
938.13        61.28725
938.53         62.5402
938.92        63.13584
939.31        63.31773
939.70        63.30989
940.09        63.33801
940.49        63.51715
940.88        63.75918
941.27        64.05647
941.66        64.45493
942.05         64.9278
942.44        65.44097
942.84        65.93481
943.23        66.31036
943.62          66.506
944.01        66.58229
944.40        66.41449
944.79        65.80739
945.18        64.76163
945.57         63.3167
945.97        61.94361
946.36        61.41023
946.75         61.9655
947.14        63.34171
947.53        64.85759
947.92        65.57157
948.31        65.31259
948.70        64.34609
949.09        63.14982
949.48        62.56718
949.87        62.84474
950.26        63.70856
950.65        64.74334
951.04        65.27278
951.43        65.09125
951.82        64.42307
952.21        63.56237
952.60        62.96186
952.99        62.75662
953.38        62.79115
953.77        62.89716
954.16        62.82316
954.55        62.50728
954.94        62.07211
955.33        61.63284
955.72        61.34503
956.11        61.27903
956.50        61.39652
956.89        61.66351
957.28        62.02145
957.66        62.41098
958.05        62.71218
958.44        62.95016
958.83         63.1701
959.22        63.36483
959.61        63.55042
960.00        63.49245
960.39        62.80161
960.78        61.48428
961.16         59.7106
961.55         58.0889
961.94        57.40902
962.33        57.81636
962.72        59.07329
963.11        60.64179
963.49         61.5784
963.88        61.50965
964.27        60.74587
964.66        59.65871
965.04        58.88374
965.43        58.64092
965.82        58.74212
966.21        59.08799
966.60        59.52666
966.98        59.98579
967.37        60.50414
967.76        61.06602
968.15        61.60183
968.53        62.07914
968.92        62.37183
969.31        62.46226
969.69        62.35326
970.08        62.00267
970.47        61.48179
970.86        60.75465
971.24        59.71913
971.63        58.48029
972.02        57.14043
972.40        55.96636
972.79         55.4226
973.17        55.63589
973.56        56.38368
973.95        57.48773
974.33        58.60191
974.72         59.4212
975.11        60.00923
975.49        60.18023
975.88        59.66661
976.26        58.50999
976.65        56.85356
977.04        55.08403
977.42         53.8931
977.81        53.52983
978.19        53.81968
978.58        54.61565
978.96         55.6138
979.35        56.58707
979.74         57.6876
980.12        58.69343
980.51        58.98439
980.89        58.58572
981.28        57.56786
981.66        56.53897
982.05        56.39087
982.43        57.23123
982.82        58.76608
983.20        60.48999
983.59        61.18863
983.97        60.60323
984.35        59.04614
984.74        57.11906
985.12        55.65172
985.51        54.91202
985.89        54.60725
986.28        54.62811
986.66        54.78893
987.04        54.92023
987.43        55.17318
987.81        55.23466
988.20        54.63138
988.58        53.21603
988.96         50.8423
989.35        48.05353
989.73         46.5822
990.12        47.30867
990.50        49.72588
990.88        52.37253
991.27        53.56305
991.65        53.27677
992.03        51.97156
992.42        50.48254
992.80        50.35712
993.18        52.05331
993.56        54.74596
993.95        57.57974
994.33        59.85988
994.71         61.1808
995.10        61.82033
995.48        61.78142
995.86        60.93206
996.24        59.32952
996.63        56.97157
997.01        54.14783
997.39        51.98631
997.77         51.1463
998.15        51.44483
998.54        52.42846
998.92        53.54325
999.30        54.66601
999.68         56.0705
1000.06         57.4495
1000.45        57.68982
1000.83        56.45665
1001.21        54.21614
1001.59        52.02295
1001.97        50.70189
1002.35        50.14067
1002.73        50.06366
1003.12        50.15162
1003.50        49.81964
1003.88         48.8486
1004.26        47.62499
1004.64        46.37446
1005.02        45.28491
1005.40        44.44169
1005.78        43.70924
1006.16        43.51532
1006.54        44.63344
1006.92        46.79796
1007.30        49.29052
1007.69        51.22347
1008.07        51.95728
1008.45        51.26492
1008.83        49.09323
1009.21        44.89292
1009.59        38.85656
1009.97        32.45574
1010.35        26.87584
1010.73        23.95103
1011.11        24.48715
1011.49        27.75572
1011.86        33.39546
1012.24        38.82216
1012.62        41.79971
1013.00        42.10472
1013.38        40.46009
1013.76        37.95454
1014.14        36.55926
1014.52        36.87102
1014.90        38.24116
1015.28         39.9298
1015.66        40.71515
1016.04        40.16842
1016.41        38.71731
1016.79        36.68829
1017.17        34.86574
1017.55        33.87435
1017.93        33.44693
1018.31        33.55894
1018.69        34.28653
1019.06        35.45921
1019.44        36.83908
1019.82        38.00213
1020.20        37.76379
1020.58        35.67801
1020.95        32.24286
1021.33        27.68541
1021.71        21.19782
1022.09        11.21896
1022.46       -7.175942
1022.84       -34.62935
1023.22       -45.35061
1023.60       -23.00561
1023.97         4.85196
1024.35        20.95664
1024.73        25.92669
