SpectraSmart Spectrum 2.9.0.0
--------- Device Information -----------
Spectrum Name :  反射率_0
Saving Time :  2024/04/20 00:47:27
Spectro-Module Model Name : SE2030-DUVN
Spectro-Module Serial Number : OS361AC55029948
Wavelength Start : 200
Wavelength End : 1025
Wavelength Unit : Wavelength(nm)
Spectrum Unit : Reflectance(%)
-----------Spectrum Setting ------------
Integration Time : 30ms
Average : 10
Boxcar : 0
Background removal :  enabled
linearity correction :  enabled
SC :  disabled
Intensity correction :  disabled
DWT denoise :  enabled
savitzky-golay :  disabled
FFT :  disabled
Running average :  disabled
Kalman :  disabled
High pass :  disabled
---------------BEGIN--------------------
Wavelength(nm)             Reflectance(%)
200.29               0
200.75        50.63344
201.21        53.03399
201.67        58.23112
202.13        65.61238
202.58        74.43914
203.04        84.90703
203.50        94.02483
203.96        95.11819
204.42        88.52332
204.88        78.88148
205.34        70.29497
205.80        64.37353
206.26        59.99909
206.72        55.67617
207.18        50.99967
207.64        47.44026
208.10         47.3088
208.55        51.02304
209.01        55.19844
209.47         57.3526
209.93        57.41321
210.39        56.03152
210.85        54.21111
211.31        53.08867
211.77        52.83358
212.23        53.35405
212.69        54.06573
213.14        53.53228
213.60        51.49729
214.06        49.64329
214.52        49.19654
214.98        51.10538
215.44        55.17898
215.90        60.91048
216.36        67.74596
216.81         73.2961
217.27        75.79865
217.73        76.15394
218.19        74.19504
218.65        69.59216
219.11        62.57794
219.57         52.7549
220.02        42.63318
220.48        39.05804
220.94        44.13306
221.40        56.60263
221.86        70.99098
222.32        78.78043
222.77        78.03838
223.23        71.54676
223.69        63.54966
224.15        60.27635
224.61        62.28823
225.06        66.57956
225.52        70.67683
225.98        72.53385
226.44        72.07298
226.90        70.26125
227.36         67.9309
227.81        66.33208
228.27        66.19869
228.73        66.90392
229.19          67.809
229.65        68.21891
230.10        68.02301
230.56        67.58682
231.02        67.28635
231.48         67.6405
231.93         68.5569
232.39        69.78265
232.85        70.76404
233.31        70.71635
233.77        69.49815
234.22         67.4201
234.68         64.9016
235.14        62.63164
235.60        60.96385
236.05        59.78551
236.51        59.09358
236.97        58.79436
237.43        58.82016
237.88        59.44814
238.34        60.36892
238.80        61.07995
239.26        61.12016
239.71        60.37642
240.17        59.16071
240.63        58.54521
241.08         58.8265
241.54        59.76613
242.00        60.52189
242.46        59.38281
242.91        55.39325
243.37        47.49273
243.83        36.17481
244.28        28.53189
244.74        31.93434
245.20        45.49902
245.66        59.08951
246.11        63.52351
246.57        57.82084
247.03        42.29505
247.48        21.26897
247.94        16.53312
248.40        30.12691
248.85        46.46299
249.31        57.87767
249.77        62.68253
250.22        62.59571
250.68        59.43257
251.14        54.30746
251.59        49.82806
252.05        47.98712
252.51        48.36205
252.96        49.90714
253.42        50.83245
253.88        50.63856
254.33         50.1403
254.79         51.0091
255.25        54.60157
255.70        60.37453
256.16        66.94645
256.62         72.3995
257.07        74.68629
257.53        74.01195
257.99        71.29668
258.44        67.54963
258.90        64.84343
259.35        63.14311
259.81        62.41756
260.27        61.75626
260.72        60.38117
261.18         58.5584
261.63         56.1889
262.09        54.23987
262.55        53.50643
263.00        53.88198
263.46        55.05147
263.91        55.91379
264.37        55.47837
264.83        53.75568
265.28        51.17144
265.74        48.86656
266.19        47.96825
266.65        48.62407
267.11        50.18876
267.56        51.80605
268.02        52.27275
268.47        51.36668
268.93        49.52015
269.38        47.24199
269.84        45.58694
270.30        44.85071
270.75        44.73416
271.21        44.86539
271.66        44.67662
272.12        44.01226
272.57        43.06825
273.03        42.10633
273.48        41.41603
273.94         41.1103
274.39        41.01187
274.85        40.93856
275.31        40.60186
275.76         39.9226
276.22        39.02611
276.67        38.06763
277.13          37.393
277.58        36.99892
278.04        36.82204
278.49        36.58998
278.95        36.00055
279.40        34.99039
279.86        33.78307
280.31        32.58087
280.77        31.81394
281.22        31.47646
281.68         31.4492
282.13        31.51388
282.59        31.39758
283.04        31.02336
283.50        30.52931
283.95        29.97171
284.41        29.47832
284.86        29.05868
285.32        28.67414
285.77        28.34713
286.22        28.19032
286.68        28.19186
287.13        28.30191
287.59         28.3617
288.04        28.09961
288.50        27.51043
288.95        26.65733
289.41         25.7802
289.86        25.18197
290.32        24.97857
290.77        25.05091
291.22        25.25794
291.68        25.34935
292.13        25.26569
292.59        25.10819
293.04        24.96761
293.50        24.99878
293.95        25.22792
294.40        25.57697
294.86        25.99352
295.31        26.41405
295.77        26.81245
296.22        27.22131
296.68        27.60737
297.13        27.88876
297.58        28.07439
298.04        28.18954
298.49        28.34731
298.95        28.76653
299.40        29.45781
299.85        30.33903
300.31        31.24005
300.76        31.89664
301.21        32.25077
301.67         32.4171
302.12        32.47679
302.58        32.60714
303.03        32.83813
303.48        33.12608
303.94        33.49398
304.39         33.9431
304.84        34.45814
305.30        35.02381
305.75        35.52894
306.20        35.81968
306.66        35.88985
307.11        35.77617
307.57        35.58967
308.02        35.43213
308.47        35.36608
308.93        35.35927
309.38        35.40718
309.83         35.5465
310.29        35.75652
310.74        36.02445
311.19        36.24903
311.65         36.2662
312.10        36.04527
312.55        35.63439
313.00        35.16162
313.46        34.82847
313.91        34.66906
314.36        34.64223
314.82        34.65361
315.27        34.57143
315.72        34.35095
316.18        34.05109
316.63        33.72947
317.08        33.47614
317.53        33.30989
317.99        33.18724
318.44         33.0732
318.89        32.90593
319.35        32.66908
319.80        32.38853
320.25         32.0832
320.70        31.78254
321.16        31.49417
321.61        31.20983
322.06        30.93219
322.51        30.67034
322.97        30.41751
323.42          30.181
323.87        29.93441
324.32        29.63709
324.78        29.28079
325.23        28.88997
325.68        28.49394
326.13        28.14857
326.59        27.87391
327.04        27.67451
327.49        27.53682
327.94        27.43943
328.39        27.36713
328.85        27.30399
329.30         27.2688
329.75        27.25224
330.20         27.2417
330.66        27.20784
331.11        27.13906
331.56        26.96959
332.01        26.68836
332.46        26.31466
332.92        25.89672
333.37        25.52059
333.82        25.22711
334.27        25.02303
334.72        24.88759
335.17        24.77755
335.63        24.66962
336.08        24.56937
336.53        24.52459
336.98        24.62291
337.43        24.86281
337.88        25.21222
338.34        25.48912
338.79        25.44846
339.24        25.03145
339.69         24.3108
340.14        23.55601
340.59        23.22142
341.05        23.40083
341.50        23.96722
341.95        24.62509
342.40        24.91089
342.85         24.7225
343.30        24.22134
343.75        23.62657
344.20        23.29606
344.66        23.32338
345.11        23.54874
345.56         23.8716
346.01        24.13548
346.46        24.26776
346.91        24.34132
347.36        24.28436
347.81        23.97096
348.26        23.42555
348.72        22.72088
349.17         22.0461
349.62        21.80008
350.07        22.06209
350.52        22.68899
350.97        23.45481
351.42        24.01665
351.87        24.26561
352.32        24.28838
352.77         24.1251
353.22        23.84904
353.67        23.51314
354.13         23.1135
354.58        22.69839
355.03        22.38758
355.48        22.21525
355.93        22.17739
356.38        22.23152
356.83        22.29178
357.28        22.32167
357.73        22.32303
358.18        22.30806
358.63        22.30164
359.08        22.30403
359.53        22.30532
359.98        22.25153
360.43        22.06679
360.88        21.75237
361.33        21.34032
361.78        20.94585
362.23        20.75405
362.68        20.79436
363.13        20.99692
363.58         21.2257
364.03        21.26857
364.48         21.0736
364.93        20.71007
365.38        20.25782
365.83        19.85791
366.28        19.56925
366.73        19.34989
367.18        19.20313
367.63         19.1329
368.08        19.12119
368.53        19.16948
368.98        19.21826
369.43        19.16621
369.88        18.99721
370.33        18.74103
370.78        18.45554
371.23        18.24828
371.68        18.15504
372.13        18.14086
372.58        18.19062
373.03        18.27594
373.48         18.3683
373.93        18.46689
374.38        18.52489
374.83        18.47054
375.28        18.29492
375.72        18.01081
376.17        17.69422
376.62        17.43155
377.07        17.25954
377.52        17.16134
377.97         17.1242
378.42        17.12279
378.87        17.13848
379.32        17.17005
379.77        17.20449
380.22        17.22034
380.67        17.20931
381.11        17.17597
381.56        17.09819
382.01        16.96214
382.46        16.77302
382.91        16.53774
383.36        16.31147
383.81        16.17328
384.26        16.13891
384.71        16.19809
385.15        16.27368
385.60        16.24708
386.05        16.09691
386.50        15.85408
386.95        15.62452
387.40        15.57633
387.85        15.72917
388.29        16.01297
388.74        16.28657
389.19        16.35267
389.64        16.17561
390.09        15.81707
390.54        15.40231
390.98         15.1265
391.43        15.05748
391.88        15.12547
392.33        15.22334
392.78         15.1962
393.23        15.02103
393.67        14.74849
394.12        14.49361
394.57        14.35946
395.02        14.36551
395.47        14.47129
395.91        14.60313
396.36        14.62012
396.81        14.49442
397.26        14.26842
397.71        14.03552
398.15        13.91976
398.60        13.95926
399.05        14.09877
399.50        14.24531
399.95        14.26647
400.39        14.13502
400.84        13.89083
401.29        13.62349
401.74        13.49761
402.18         13.5627
402.63         13.7557
403.08        13.96934
403.53        14.03223
403.97        13.90713
404.42         13.6629
404.87        13.39332
405.32        13.25164
405.76        13.27625
406.21        13.40996
406.66        13.58614
407.11        13.70291
407.55        13.72953
408.00         13.7024
408.45        13.63802
408.90        13.52861
409.34        13.40232
409.79        13.32066
410.24        13.27728
410.68        13.20667
411.13        13.11223
411.58        13.04641
412.03        13.00113
412.47        12.94275
412.92        12.86857
413.37        12.78308
413.81        12.72763
414.26        12.77737
414.71        12.93205
415.15        13.17193
415.60        13.39287
416.05         13.4487
416.49        13.30434
416.94        13.01275
417.39        12.67869
417.83        12.47394
418.28        12.44923
418.73        12.54357
419.17        12.68607
419.62        12.75235
420.07        12.71176
420.51        12.60726
420.96        12.46916
421.41        12.32565
421.85        12.19172
422.30        12.06833
422.74        11.96908
423.19        11.93922
423.64        11.97443
424.08        12.06843
424.53        12.17333
424.98        12.22463
425.42        12.20324
425.87        12.12995
426.31         12.0192
426.76        11.90397
427.21        11.78994
427.65        11.66199
428.10        11.55946
428.54        11.52927
428.99        11.57999
429.44        11.74833
429.88         11.9355
430.33        11.90382
430.77        11.68583
431.22        11.53261
431.66        11.49742
432.11        11.53247
432.56        11.62906
433.00        11.82781
433.45        11.99643
433.89        11.94256
434.34        11.73789
434.78        11.51394
435.23        11.26877
435.67         11.7555
436.12        11.33182
436.57        11.22117
437.01        11.00443
437.46        10.92473
437.90        10.99446
438.35        11.10735
438.79        11.20741
439.24         11.2571
439.68         11.2366
440.13        11.06563
440.57        10.83262
441.02        10.85006
441.46        11.02423
441.91        11.00751
442.35        10.54108
442.80         10.3604
443.24         10.3515
443.69        10.29139
444.13        10.16848
444.58        10.08312
445.02        10.04052
445.47        10.04126
445.91        10.05991
446.36        10.03447
446.80        9.952417
447.24        9.843119
447.69        9.737545
448.13        9.657679
448.58         9.61762
449.02        9.609846
449.47        9.610064
449.91        9.574889
450.36        9.501314
450.80        9.401005
451.25        9.316552
451.69        9.301192
452.13        9.365579
452.58        9.480136
453.02        9.603824
453.47        9.669218
453.91        9.662489
454.36        9.604536
454.80        9.516786
455.24        9.438857
455.69        9.391066
456.13        9.349628
456.58        9.329638
457.02        9.347611
457.46        9.400674
457.91        9.464184
458.35        9.514344
458.79        9.531454
459.24        9.510351
459.68        9.455446
460.13        9.427321
460.57        9.426358
461.01        9.453437
461.46        9.746389
461.90        9.893627
462.34        9.836883
462.79        9.892363
463.23         9.74643
463.68        9.592893
464.12        9.486536
464.56        9.529618
465.01        9.629745
465.45        9.742786
465.89        9.812186
466.34        9.827613
466.78        9.779131
467.22        9.704368
467.67        9.732727
468.11         9.84574
468.55        9.842241
468.99        9.742987
469.44        9.742072
469.88        9.847107
470.32        9.952186
470.77        10.01556
471.21        10.02548
471.65        9.972534
472.10        9.866401
472.54        9.747858
472.98        9.709292
473.42        9.767649
473.87        9.865999
474.31         9.96974
474.75         10.0825
475.20        10.16921
475.64        10.13605
476.08        10.03156
476.52         10.0196
476.97        10.11377
477.41        10.24131
477.85        10.35569
478.29        10.41357
478.74        10.40156
479.18        10.31565
479.62         10.2154
480.06        10.19589
480.50        10.26001
480.95        10.33095
481.39        10.37079
481.83        10.36979
482.27        10.32383
482.72        10.24367
483.16        10.16315
483.60        10.14675
484.04        10.20438
484.48        10.33726
484.93        10.56865
485.37        10.74154
485.81        10.86678
486.25        11.27862
486.69        11.45818
487.14        11.02965
487.58        10.96614
488.02        11.63343
488.46        11.17319
488.90         11.2018
489.34        11.09984
489.79        11.21726
490.23        11.48783
490.67         11.6709
491.11        11.72341
491.55        11.63179
491.99        11.44409
492.43        11.32213
492.88        11.30259
493.32        11.27811
493.76        11.26947
494.20         11.3614
494.64         11.5555
495.08        11.81897
495.52        12.10321
495.96        12.34161
496.41        12.51152
496.85        12.60378
497.29        12.64239
497.73        12.73162
498.17        12.86698
498.61        12.90925
499.05        12.87776
499.49        12.93546
499.93        13.09636
500.37        13.24679
500.82        13.37746
501.26         13.5842
501.70        13.82549
502.14        13.91586
502.58        13.87617
503.02        13.90176
503.46          14.006
503.90        14.08392
504.34        14.11412
504.78        14.11064
505.22        14.07404
505.66        14.01206
506.10        13.95457
506.54        13.94473
506.98        13.99609
507.42         14.0998
507.86        14.23926
508.30        14.38492
508.74        14.52066
509.18         14.6448
509.62        14.75826
510.06        14.86444
510.50        14.96385
510.94        15.05728
511.38        15.12394
511.82        15.13344
512.26        15.08534
512.70        14.98917
513.14        14.89996
513.58        14.90061
514.02        14.99819
514.46         15.1684
514.90        15.33946
515.34        15.34321
515.78        15.16999
516.22          14.958
516.66        14.80436
517.10        14.50028
517.54        14.07439
517.98        14.72868
518.42        14.63901
518.86        14.93575
519.30          15.053
519.74        15.17397
520.18        15.26972
520.62        15.27128
521.06        15.19548
521.50        15.04434
521.93        14.86402
522.37         14.7415
522.81        14.69845
523.25        14.71552
523.69        14.76483
524.13        14.79904
524.57        14.80101
525.01        14.78266
525.45        14.75146
525.89        14.71813
526.32        14.68618
526.76        14.65233
527.20        14.60775
527.64        14.54469
528.08        14.46284
528.52        14.36402
528.96        14.27094
529.40        14.21548
529.83        14.20228
530.27        14.22724
530.71        14.24916
531.15        14.20311
531.59        14.08119
532.03        13.90547
532.46        13.73462
532.90        13.67495
533.34        13.73737
533.78        13.88243
534.22        14.04261
534.66        14.11438
535.09        14.06996
535.53        13.94946
535.97        13.79212
536.41        13.65783
536.85        13.57119
537.28        13.52267
537.72        13.51566
538.16        13.51265
538.60        13.57384
539.04        13.64177
539.47        13.71783
539.91        13.80717
540.35        13.91174
540.79         13.9079
541.22        13.97795
541.66        14.02792
542.10         14.1262
542.54        14.04614
542.97        14.16185
543.41        14.21627
543.85        14.31274
544.29        14.41562
544.72        14.51233
545.16         14.6241
545.60        14.74493
546.04        14.82245
546.47        14.89115
546.91        15.10164
547.35        15.41049
547.79        15.62009
548.22        15.70811
548.66         15.7463
549.10         15.7692
549.53        15.88361
549.97        16.09599
550.41        16.11973
550.84        16.25198
551.28        16.33584
551.72        16.47857
552.15         16.6506
552.59        16.84667
553.03        17.07111
553.46        17.28452
553.90        17.41476
554.34        17.44849
554.77        17.51401
555.21        17.45798
555.65        17.48849
556.08         17.5606
556.52        17.66145
556.96        17.77417
557.39         17.8995
557.83        18.02369
558.27        18.10337
558.70        18.13916
559.14        18.16559
559.57        18.18184
560.01        18.19145
560.45        18.19338
560.88        18.16421
561.32         18.1467
561.75        18.18418
562.19        18.33728
562.63          18.438
563.06        18.49509
563.50        18.56353
563.93        18.63578
564.37        18.73329
564.80        18.76969
565.24        18.82263
565.68        18.86673
566.11        18.92858
566.55        19.02482
566.98        19.11129
567.42        19.17465
567.85        19.43414
568.29        19.38535
568.72        19.62567
569.16        19.94776
569.60        20.16547
570.03        20.25812
570.47        20.33059
570.90         20.3006
571.34        20.60068
571.77        20.58677
572.21        20.76365
572.64        20.93994
573.08          21.196
573.51         21.3468
573.95        21.75237
574.38        22.14717
574.82        22.29125
575.25        22.28414
575.69        22.13406
576.12        22.15134
576.56        22.19717
576.99        22.33171
577.42        22.51881
577.86        22.36194
578.29        22.45312
578.73        22.89931
579.16        22.57549
579.60        22.53749
580.03        22.27774
580.47        22.46758
580.90        22.18958
581.33        22.16423
581.77        22.11461
582.20        22.40739
582.64        22.16861
583.07        21.75426
583.51        21.80835
583.94        21.32919
584.37         21.3141
584.81        20.98224
585.24        20.94881
585.68        21.02514
586.11        20.92807
586.54        20.87355
586.98        20.80235
587.41        20.79616
587.85        20.76937
588.28         20.6867
588.71        20.51758
589.15        20.35368
589.58        20.01871
590.01        20.19409
590.45         20.6049
590.88        20.15236
591.31        20.02469
591.75         19.8794
592.18        20.04704
592.61        20.02456
593.05        20.32673
593.48        20.19096
593.91         20.6232
594.35         20.4123
594.78        20.52739
595.21        20.65023
595.65        20.86705
596.08        20.80594
596.51        20.82531
596.94        20.87468
597.38        20.99193
597.81        21.20874
598.24        21.34149
598.68        21.83446
599.11        21.87082
599.54        22.59161
599.97        22.48278
600.41        22.89753
600.84        23.38112
601.27        23.73254
601.70        24.03791
602.14        24.18905
602.57        24.54771
603.00        25.09044
603.43        25.66593
603.87        26.02596
604.30        26.41906
604.73        26.79823
605.16        27.17377
605.60        27.50393
606.03        28.02931
606.46        28.59167
606.89        29.27598
607.32        29.68065
607.76        29.82118
608.19        30.45327
608.62        30.81506
609.05        31.17094
609.48        31.44806
609.92        31.70618
610.35        32.15812
610.78        33.03933
611.21        33.51023
611.64        33.55313
612.07         34.2655
612.50        34.57985
612.94        34.61176
613.37        35.21343
613.80        35.54558
614.23        35.97947
614.66        36.23061
615.09        36.80233
615.52        37.25494
615.96        37.67239
616.39        38.02359
616.82        38.34297
617.25        38.47586
617.68        38.85307
618.11          39.167
618.54        39.49406
618.97        39.60865
619.40        39.55963
619.84        39.82678
620.27        39.89991
620.70        40.39683
621.13         41.0184
621.56          41.305
621.99        41.34403
622.42        41.38412
622.85        41.52077
623.28        41.74574
623.71        42.04007
624.14        42.10709
624.57        42.00204
625.00        41.96142
625.43        42.18617
625.86        41.53374
626.29        41.63524
626.72        41.38059
627.15        41.26279
627.58        41.16825
628.01         41.0557
628.44        40.92134
628.87        40.75008
629.30        40.16973
629.73        40.00764
630.16        39.48428
630.59        39.24236
631.02        38.84175
631.45        38.40474
631.88        37.97339
632.31         37.5386
632.74        37.06731
633.17        36.55125
633.60        36.00905
634.03        35.44478
634.46        34.85944
634.89        34.26233
635.32        33.66645
635.75        33.08255
636.18        32.51903
636.61        31.97865
637.04        31.45809
637.47        30.95356
637.89         30.4645
638.32        29.99374
638.75        29.56368
639.18        29.18007
639.61        28.84181
640.04        28.52109
640.47        28.17022
640.90        27.78196
641.33        27.37201
641.76        26.98598
642.18        26.70148
642.61        26.53112
643.04        26.45172
643.47        26.41904
643.90        26.35874
644.33        26.25305
644.76        26.13115
645.18        26.01981
645.61        25.96715
646.04        25.98752
646.47        26.06119
646.90        26.19663
647.33        26.40721
647.75        26.69155
648.18         27.0494
648.61        27.43233
649.04        27.76741
649.47        28.04528
649.89         28.2542
650.32        28.47911
650.75        28.92794
651.18        29.59838
651.61        30.27361
652.03        30.89041
652.46        31.59549
652.89        32.38451
653.32        32.84158
653.74        33.01355
654.17        34.03441
654.60         34.5464
655.03        35.45593
655.46        35.31244
655.88        37.28959
656.31        38.62087
656.74        45.68444
657.16        43.29506
657.59        40.09646
658.02        40.66227
658.45        40.91515
658.87        41.95299
659.30        42.49825
659.73        43.22855
660.15        44.29176
660.58        44.65882
661.01        44.91183
661.44        44.90235
661.86        45.37402
662.29        46.30275
662.72         47.2177
663.14        47.94967
663.57         48.2548
664.00           48.28
664.42         48.5649
664.85        49.16683
665.27         49.9841
665.70        50.40787
666.13        50.93742
666.55        51.39699
666.98        51.77111
667.41        52.08573
667.83        52.38687
668.26        52.68903
668.69        52.98972
669.11        53.28213
669.54        53.55055
669.96        53.80194
670.39        54.04835
670.82        54.32526
671.24         54.6675
671.67        55.08133
672.09        55.56008
672.52        56.02643
672.94        56.36802
673.37        56.54448
673.80        56.49014
674.22        56.33274
674.65        56.36383
675.07        56.64384
675.50        57.03663
675.92        57.44472
676.35        57.71098
676.77        57.79539
677.20        57.75834
677.62         57.6797
678.05        57.66242
678.47        57.73472
678.90        57.92258
679.32        58.20728
679.75        58.29457
680.17        58.60442
680.60        58.80885
681.02        59.03054
681.45        59.15054
681.87        59.20643
682.30        59.37041
682.72        59.60733
683.15        59.65627
683.57        59.56376
684.00        59.53959
684.42        59.75724
684.85        59.96735
685.27        60.20501
685.70        60.55398
686.12        60.92594
686.54        61.17612
686.97        61.27545
687.39        61.16992
687.82        61.07909
688.24        61.05665
688.66        61.16216
689.09        61.26117
689.51        61.33936
689.94        61.43058
690.36        61.54255
690.78        61.61327
691.21        61.64971
691.63        61.82246
692.06        62.15895
692.48         62.1798
692.90        62.36662
693.33        62.84771
693.75        62.68936
694.17        62.81767
694.60        62.89583
695.02        62.77962
695.44        62.51777
695.87        62.52054
696.29        62.77973
696.71        62.81183
697.14          62.749
697.56        63.13311
697.98         63.9432
698.41        64.63795
698.83        64.41462
699.25        64.30224
699.68        64.19665
700.10        64.12939
700.52        64.15757
700.94          64.283
701.37          64.458
701.79        64.64194
702.21        64.78845
702.64        64.91472
703.06        65.04014
703.48        65.20576
703.90        65.41899
704.33        65.65155
704.75         65.8576
705.17        65.94106
705.59        65.88976
706.01        65.73799
706.44        65.59439
706.86        65.63279
707.28        65.88052
707.70        66.27445
708.12        66.71071
708.55        67.02026
708.97        67.15711
709.39        67.18029
709.81        67.13213
710.23         67.0901
710.66        67.09006
711.08         67.1116
711.50        67.15874
711.92        67.25643
712.34        67.40694
712.76        67.61684
713.19        67.83038
713.61        68.00565
714.03        68.10056
714.45        68.12651
714.87        68.13957
715.29        68.25687
715.71        68.50124
716.13        68.79211
716.56         69.0254
716.98        69.36409
717.40        69.34132
717.82        69.31918
718.24        69.24118
718.66        69.22523
719.08        69.29871
719.50        69.43073
719.92        69.57541
720.34        69.66042
720.76         69.6702
721.19        69.60654
721.61        69.51015
722.03        69.54021
722.45        69.52403
722.87        69.60307
723.29        69.70778
723.71        69.82291
724.13        69.94116
724.55        70.07462
724.97        70.23438
725.39        70.41296
725.81        70.60039
726.23        70.81329
726.65        71.05049
727.07        71.13827
727.49        71.35732
727.91        71.48318
728.33        71.57992
728.75        71.61041
729.17        71.58911
729.59        71.50622
730.01        71.40277
730.43        71.45851
730.85         71.7123
731.27        71.74935
731.69        72.06141
732.10        72.39246
732.52        72.48438
732.94        72.53691
733.36         72.4238
733.78        72.42519
734.20        72.61581
734.62        72.25903
735.04        72.10258
735.46        72.59434
735.88        72.32056
736.30        72.12587
736.72         72.3704
737.13         72.4761
737.55        72.61508
737.97         72.9323
738.39        73.32378
738.81        73.27555
739.23        72.90377
739.65        72.89303
740.06        73.19106
740.48         73.4548
740.90        73.61523
741.32         73.1254
741.74        73.10934
742.16        73.01936
742.57        73.21429
742.99        73.44662
743.41         73.6571
743.83        73.80561
744.25         73.8491
744.67          73.795
745.08        73.69538
745.50        73.60784
745.92        73.56972
746.34        73.55898
746.75        73.55482
747.17        73.52838
747.59         73.4864
748.01        73.46068
748.42        73.47511
748.84        73.58772
749.26        73.82279
749.68        73.95741
750.09        74.02542
750.51        74.51272
750.93        75.19909
751.35        75.11475
751.76        74.38464
752.18        74.04455
752.60        74.14316
753.01        74.18653
753.43        74.11256
753.85        74.13415
754.27        74.18658
754.68        74.74409
755.10        75.30807
755.52        74.80776
755.93        74.95609
756.35        74.74504
756.77        74.83338
757.18         74.5724
757.60        74.88769
758.02        75.24506
758.43        75.67535
758.85         76.0089
759.26        76.18131
759.68        75.64826
760.10        75.16875
760.51         75.4183
760.93        75.38667
761.34        74.94005
761.76         75.2132
762.18        74.66924
762.59        74.02287
763.01        74.18498
763.42        75.12909
763.84         75.7059
764.26        75.76986
764.67        75.53252
765.09        75.29119
765.50        75.75988
765.92        76.73088
766.33        77.04154
766.75        76.54691
767.16        75.90646
767.58        75.29983
768.00        75.01778
768.41        75.18785
768.83        75.59044
769.24        76.05793
769.66        76.61507
770.07        77.04552
770.49        76.75232
770.90        75.99288
771.32        75.99368
771.73        76.68665
772.15        76.89392
772.56        76.57217
772.97        76.31081
773.39        76.13755
773.80        76.07717
774.22        76.08437
774.63        75.76501
775.05        75.18697
775.46        75.54985
775.88        75.52216
776.29        76.22883
776.70        76.97321
777.12        77.24696
777.53        76.94831
777.95        76.27988
778.36        75.57137
778.77        75.28132
779.19        75.54042
779.60        76.26646
780.02        77.08334
780.43        77.57099
780.84        77.61038
781.26        76.90605
781.67        75.94398
782.09        76.54273
782.50        78.29531
782.91        78.61121
783.33        77.53825
783.74         77.1827
784.15        77.65154
784.57        78.04346
784.98        78.18036
785.39        77.84448
785.81        77.15644
786.22        76.84882
786.63        76.97386
787.04         77.0163
787.46        76.98125
787.87        77.18421
788.28        77.58434
788.70        77.89325
789.11        78.06281
789.52        78.25521
789.93        78.42628
790.35        78.37146
790.76         78.1631
791.17        78.02901
791.58        78.04292
792.00        78.13414
792.41        78.18188
792.82        78.18867
793.23        78.04381
793.65        77.22038
794.06        76.25838
794.47        76.65038
794.88        77.99891
795.29        79.69134
795.71        79.28411
796.12         78.7312
796.53        78.91526
796.94        78.14721
797.35        77.18875
797.76        77.11246
798.18        77.83537
798.59        78.24934
799.00        78.19664
799.41         78.1574
799.82         78.2455
800.23        78.31551
800.64        78.39584
801.06        78.39027
801.47        78.35736
801.88        78.40383
802.29        78.52506
802.70        78.64736
803.11        78.73624
803.52        78.70837
803.93        78.54794
804.34        78.46541
804.75        78.43436
805.17        78.10706
805.58        77.57536
805.99        77.79536
806.40        77.29322
806.81        78.25973
807.22        79.73195
807.63         79.8002
808.04        78.64638
808.45        78.14897
808.86        78.62375
809.27        79.54068
809.68        80.58887
810.09        81.11295
810.50          80.936
810.91        80.49942
811.32        80.00867
811.73        79.50694
812.14         79.0795
812.55        78.89724
812.96        78.87159
813.37        78.47298
813.78        77.84837
814.19        77.86241
814.60        78.43429
815.01        78.76254
815.42        78.79545
815.83         78.9461
816.24        79.23045
816.65        79.45773
817.05         79.6114
817.46        79.69183
817.87        79.69408
818.28        79.56847
818.69        79.34052
819.10        79.03493
819.51        78.76057
819.92        78.79771
820.33        79.21355
820.74        79.66282
821.14        80.06537
821.55        80.87589
821.96        81.74921
822.37        81.32357
822.78        79.89728
823.19        79.24865
823.60         79.5769
824.00        79.97819
824.41         80.1964
824.82        80.32413
825.23        80.27924
825.64        80.06529
826.04        79.82306
826.45        79.71758
826.86        79.80318
827.27         80.0294
827.68        80.29902
828.08        80.43475
828.49        80.32258
828.90        80.12614
829.31        79.96784
829.72        79.63657
830.12        79.85808
830.53         80.0114
830.94        80.21817
831.35        80.32091
831.75        80.31029
832.16         80.1808
832.57        80.01048
832.97        79.92436
833.38        79.93353
833.79        79.99892
834.20        80.07416
834.60        80.08124
835.01        80.01997
835.42        79.93411
835.82        79.84142
836.23         79.7082
836.64        79.56526
837.04        79.40523
837.45        79.30357
837.86        79.43555
838.26        79.83152
838.67        80.40256
839.08        80.95345
839.48        81.10588
839.89        80.77696
840.29        80.12952
840.70        79.46223
841.11         79.1327
841.51        79.25169
841.92        79.64663
842.33        80.27426
842.73        81.05781
843.14        81.80714
843.54        82.59253
843.95        83.15768
844.35        83.17953
844.76        82.63081
845.17        81.63957
845.57         80.5388
845.98        79.86951
846.38        79.76711
846.79        80.09747
847.19        80.72423
847.60        81.22813
848.00         81.5212
848.41        81.64983
848.81        81.74589
849.22        81.92658
849.62        82.26788
850.03          82.644
850.43        83.00688
850.84        83.17641
851.24        83.16452
851.65        82.96585
852.05        82.71778
852.46        82.53801
852.86        82.48323
853.27        82.48975
853.67        82.46139
854.07        82.53473
854.48        82.59887
854.88        82.37355
855.29        81.90845
855.69        81.75643
856.10        81.89739
856.50        82.16447
856.90        82.40039
857.31        82.47598
857.71         82.4156
858.12        82.20086
858.52        81.95959
858.92        81.77473
859.33        81.65929
859.73        81.62715
860.13        81.67358
860.54        81.79961
860.94        82.05131
861.34        82.37415
861.75        82.63224
862.15        82.71018
862.55        82.53828
862.96        82.17931
863.36        81.74248
863.76        81.38292
864.17        81.16458
864.57        81.07536
864.97        81.12331
865.38        81.29443
865.78        81.61182
866.18        81.99778
866.58        82.34265
866.99        82.45367
867.39        82.32363
867.79        81.97596
868.19        81.38408
868.60        80.49533
869.00        79.32301
869.40        77.94317
869.80        76.71085
870.21        76.20554
870.61         76.6077
871.01        77.69905
871.41        78.97518
871.81        79.61966
872.22        79.44734
872.62        78.71232
873.02        77.75043
873.42        77.27433
873.82        77.31953
874.22        77.29659
874.63        77.27789
875.03        77.51536
875.43        77.96242
875.83        79.27765
876.23        79.32225
876.63        79.08362
877.03        78.20445
877.44        76.73063
877.84        121.4711
878.24        77.03596
878.64        77.94506
879.04         80.6009
879.44        78.07216
879.84        76.40812
880.24        79.17107
880.64        78.91843
881.04         76.3639
881.44        74.75443
881.84        74.66045
882.24        75.53999
882.65        76.83475
883.05        77.52551
883.45        77.24831
883.85        76.55382
884.25        75.86265
884.65        75.59946
885.05        75.89993
885.45         76.5983
885.85        77.40306
886.25        77.85514
886.65        77.81921
887.05         77.4473
887.45        77.00444
887.85        76.87902
888.25        77.16492
888.65        77.73941
889.04        78.39606
889.44         78.6986
889.84        78.56659
890.24        78.13322
890.64        77.61441
891.04        77.32915
891.44        77.33093
891.84        77.47614
892.24        77.62296
892.64        77.53736
893.04          77.173
893.44        76.69251
893.83        76.09926
894.23        75.41945
894.63        74.68754
895.03        73.89811
895.43        73.30899
895.83        73.35555
896.23        74.08934
896.63        75.36369
897.02        76.74818
897.42         77.4387
897.82        77.23392
898.22        76.36288
898.62        75.21173
899.01        74.38309
899.41        74.09373
899.81        74.15381
900.21        74.43439
900.61        74.73948
901.00        74.98836
901.40        75.23882
901.80        75.49971
902.20        75.74971
902.59        75.98388
902.99        76.16412
903.39        76.24189
903.79        76.15636
904.18        75.90078
904.58         75.5447
904.98        75.22025
905.38        75.13698
905.77        75.32944
906.17         75.7545
906.57        76.23283
906.96        76.51004
907.36        76.47335
907.76        76.16545
908.15        75.77932
908.55        75.57487
908.95        75.63206
909.34        75.92032
909.74        76.14059
910.14        75.78529
910.53         74.7853
910.93        73.39959
911.33        72.18247
911.72        72.00359
912.12         72.9656
912.52        74.67538
912.91        76.54969
913.31        77.61836
913.70         77.6851
914.10        77.02712
914.49        75.85499
914.89        74.69359
915.29        73.83505
915.68        73.15707
916.08         72.8426
916.47        73.11384
916.87        73.89756
917.26        75.11153
917.66        76.35686
918.05        76.99126
918.45         76.8247
918.84        76.08678
919.24        74.98629
919.64        73.91022
920.03         73.0522
920.42        72.33633
920.82        71.98211
921.21        72.27306
921.61        73.15086
922.00        74.56525
922.40        75.99986
922.79        76.82716
923.19        76.84551
923.58        76.04584
923.98        74.69264
924.37         73.8561
924.77        74.00231
925.16        72.14265
925.55        73.27213
925.95        73.17265
926.34        73.32569
926.74        73.59196
927.13        74.05677
927.52        74.66492
927.92        75.34174
928.31        76.14485
928.70         76.8067
929.10        76.90981
929.49         76.3828
929.89         75.3345
930.28        74.24549
930.67        73.88771
931.07        74.39607
931.46        75.59188
931.85        76.91248
932.24        77.50643
932.64        77.15661
933.03        76.02765
933.42        74.56044
933.82        73.67827
934.21         73.6479
934.60         74.1963
934.99        74.69311
935.39        74.50401
935.78        73.53517
936.17        71.54865
936.56        68.85363
936.96        69.42061
937.35         68.8789
937.74        70.58913
938.13        72.41156
938.53        73.69991
938.92        74.36817
939.31         74.6769
939.70        74.73902
940.09        74.62225
940.49        74.42568
940.88        74.12991
941.27        73.92282
941.66        74.13625
942.05        74.79273
942.44        75.77562
942.84        76.85431
943.23        77.63959
943.62        77.96997
944.01        77.98364
944.40        77.67342
944.79        77.03964
945.18        76.14759
945.57        74.97694
945.97        73.90529
946.36        73.56943
946.75         74.1412
947.14        75.38403
947.53        76.71962
947.92        77.33681
948.31        77.09206
948.70        76.24055
949.09        75.11668
949.48        74.32381
949.87        74.07814
950.26        74.18152
950.65        74.52454
951.04        74.93071
951.43        75.29424
951.82        75.68316
952.21        75.98058
952.60        75.97941
952.99        75.66009
953.38        75.07093
953.77        74.39518
954.16        73.94417
954.55          73.804
954.94        73.91135
955.33         74.1486
955.72        74.30096
956.11         74.3103
956.50        74.24896
956.89         74.1916
957.28        74.27471
957.66        74.52511
958.05        74.77315
958.44        74.97502
958.83        75.08393
959.22        75.07254
959.61        74.98692
960.00        74.69149
960.39        73.96402
960.78        72.83824
961.16        71.41512
961.55        70.13088
961.94        69.51163
962.33        69.65749
962.72        70.42119
963.11         71.4309
963.49        72.04337
963.88        71.97034
964.27        71.42179
964.66        70.68047
965.04        70.23679
965.43        70.23138
965.82        70.51942
966.21        70.93704
966.60        71.22314
966.98        71.31859
967.37        71.31178
967.76        71.33569
968.15        71.56973
968.53         72.0471
968.92        72.56273
969.31        73.03587
969.69        73.34438
970.08         73.3764
970.47        73.24615
970.86        72.82655
971.24        71.87325
971.63        70.47964
972.02        68.77646
972.40        67.23878
972.79        66.68829
973.17         67.3469
973.56        68.87418
973.95        70.85875
974.33        72.52587
974.72        73.42576
975.11        73.75916
975.49        73.48734
975.88        72.57544
976.26         71.1623
976.65        69.32719
977.04        67.47331
977.42        66.33215
977.81        66.12708
978.19          66.676
978.58        67.76481
978.96        68.98779
979.35         70.0519
979.74        71.13343
980.12        71.94981
980.51        71.79242
980.89        70.73817
981.28        68.93856
981.66         67.2057
982.05        66.70586
982.43        67.57051
982.82        69.46437
983.20        71.70319
983.59        72.70981
983.97        72.12702
984.35        70.33321
984.74        68.17263
985.12        66.88749
985.51        66.83476
985.89        67.64989
986.28        68.87476
986.66        69.66238
987.04         69.5843
987.43        69.05502
987.81        68.20945
988.20        67.15894
988.58        65.87162
988.96        64.09548
989.35         62.1082
989.73         61.0295
990.12        61.37842
990.50        62.95983
990.88        64.69536
991.27         65.2906
991.65        64.74065
992.03        63.37903
992.42        61.95951
992.80         61.9402
993.18        63.71264
993.56         66.5145
993.95        69.47115
994.33        71.82173
994.71        73.16276
995.10        73.74387
995.48        73.65882
995.86        72.94686
996.24        71.71695
996.63        69.97674
997.01        67.83993
997.39        65.89117
997.77        64.61502
998.15        63.99068
998.54          64.134
998.92        65.11747
999.30        66.95137
999.68         69.9304
1000.06        73.25322
1000.45        74.01497
1000.83        71.21686
1001.21        66.27343
1001.59        61.64377
1001.97        59.21165
1002.35        58.83047
1002.73        59.93915
1003.12        61.83471
1003.50        62.98889
1003.88        62.55797
1004.26        61.06757
1004.64        59.25961
1005.02        58.13544
1005.40         57.9813
1005.78        58.48097
1006.16        59.35064
1006.54        60.05424
1006.92        60.28435
1007.30        60.14375
1007.69        59.88716
1008.07        59.97382
1008.45        60.42718
1008.83        61.35905
1009.21        62.26796
1009.59        61.38151
1009.97        57.61515
1010.35        51.54906
1010.73        46.24794
1011.11        45.20255
1011.49        48.32926
1011.86        54.42068
1012.24         60.1519
1012.62        62.28925
1013.00         60.5922
1013.38        56.32888
1013.76        51.32038
1014.14        48.75936
1014.52        49.58713
1014.90        52.72216
1015.28        56.68335
1015.66        59.05712
1016.04        58.96123
1016.41        57.05756
1016.79        53.73829
1017.17        50.44108
1017.55        48.29387
1017.93        46.95863
1018.31         46.4249
1018.69        46.68232
1019.06        47.49099
1019.44         48.6909
1019.82        49.86681
1020.20        49.82102
1020.58        48.07967
1020.95        45.04712
1021.33        40.98849
1021.71        35.30066
1022.09        26.72502
1022.46        11.25979
1022.84       -11.58154
1023.22       -20.00673
1023.60      -0.7717294
1023.97        22.51572
1024.35        36.18608
1024.73        41.27697
