SpectraSmart Spectrum 2.9.0.0
--------- Device Information -----------
Spectrum Name :  反射率_0
Saving Time :  2024/04/20 00:17:52
Spectro-Module Model Name : SE2030-DUVN
Spectro-Module Serial Number : OS361AC55029948
Wavelength Start : 200
Wavelength End : 1025
Wavelength Unit : Wavelength(nm)
Spectrum Unit : Reflectance(%)
-----------Spectrum Setting ------------
Integration Time : 30ms
Average : 10
Boxcar : 0
Background removal :  enabled
linearity correction :  enabled
SC :  disabled
Intensity correction :  disabled
DWT denoise :  enabled
savitzky-golay :  disabled
FFT :  disabled
Running average :  disabled
Kalman :  disabled
High pass :  disabled
---------------BEGIN--------------------
Wavelength(nm)             Reflectance(%)
200.29               0
200.75        68.64182
201.21         69.7999
201.67         73.0223
202.13        78.87656
202.58        87.38115
203.04        98.76968
203.50        109.1576
203.96        109.6817
204.42        100.8331
204.88        88.73432
205.34        78.78119
205.80        73.46659
206.26        71.79376
206.72        72.69698
207.18        76.11299
207.64        79.81694
208.10        81.04633
208.55         80.7928
209.01        79.09328
209.47         77.0071
209.93        74.86989
210.39        72.28461
210.85        69.97626
211.31         68.8457
211.77        68.88571
212.23        70.19026
212.69        71.99966
213.14         71.8556
213.60        69.07388
214.06        65.97744
214.52          64.245
214.98        64.91214
215.44        67.71211
215.90        72.07964
216.36        77.66499
216.81        82.78207
217.27        85.94164
217.73        87.69448
218.19        87.70583
218.65        85.54186
219.11        81.45701
219.57        75.28591
220.02         68.8337
220.48        67.24207
220.94        71.92706
221.40        81.70295
221.86        92.99131
222.32        100.2589
222.77        102.0442
223.23        100.3207
223.69        96.73404
224.15        93.84364
224.61        92.59251
225.06        92.08615
225.52        92.49612
225.98        94.09747
226.44        96.74627
226.90        100.3893
227.36        104.2168
227.81         106.317
228.27        106.3718
228.73        104.9035
229.19        102.7307
229.65        100.8672
230.10        99.49194
230.56        98.55653
231.02        97.89024
231.48        97.42898
231.93        97.02927
232.39        96.77615
232.85        96.57137
233.31        96.32487
233.77        95.99071
234.22        95.59426
234.68        94.98402
235.14        93.87659
235.60        92.32149
236.05        90.47805
236.51        88.77155
236.97        87.78689
237.43          87.655
237.88         88.5257
238.34        89.84598
238.80        90.82229
239.26        90.71309
239.71        89.59676
240.17        87.66634
240.63        85.81222
241.08        84.36239
241.54        83.14693
242.00        81.66092
242.46        78.71204
242.91        73.60193
243.37          65.159
243.83        54.17237
244.28          48.228
244.74        54.31437
245.20        70.48687
245.66        86.16904
246.11        92.84314
246.57        89.94192
247.03        78.09707
247.48        59.08859
247.94         48.7509
248.40        52.74269
248.85        61.00249
249.31         67.8627
249.77         71.6666
250.22        73.20196
250.68        73.80833
251.14        73.96391
251.59        74.13892
252.05        74.79636
252.51        75.84206
252.96        76.73779
253.42         77.0021
253.88        76.76456
254.33        76.32683
254.79        77.39763
255.25        81.35706
255.70        87.59158
256.16        94.83268
256.62        101.2176
257.07         104.711
257.53        105.5202
257.99        104.4459
258.44        101.9187
258.90        99.50772
259.35        97.29432
259.81        96.04267
260.27        95.18797
260.72        94.30409
261.18         93.7283
261.63        92.88762
262.09        92.60712
262.55        93.26582
263.00        94.48603
263.46        96.14146
263.91        96.97308
264.37           96.09
264.83        93.53449
265.28        89.83503
265.74        86.34732
266.19        84.28001
266.65        83.96002
267.11        84.69663
267.56         85.7318
268.02        86.07053
268.47        85.43291
268.93        84.18948
269.38        82.60178
269.84        81.29942
270.30        80.44411
270.75        79.80839
271.21        79.23183
271.66        78.44484
272.12        77.38907
272.57        76.16571
273.03        74.91549
273.48        73.70282
273.94        72.66403
274.39        71.72514
274.85        70.92116
275.31        70.18677
275.76        69.44159
276.22        68.70296
276.67        67.95121
277.13        67.35861
277.58         66.8223
278.04        66.38297
278.49        65.72211
278.95         64.5623
279.40        62.84782
279.86        60.86985
280.31        58.92951
280.77         57.6832
281.22        57.11152
281.68        57.05775
282.13        57.14303
282.59        56.91406
283.04        56.21942
283.50        55.27613
283.95        54.21014
284.41        53.30608
284.86        52.58626
285.32         52.0034
285.77        51.48133
286.22        51.02111
286.68        50.62016
287.13        50.25679
287.59        49.93077
288.04         49.5404
288.50         49.1032
288.95        48.58327
289.41        48.05058
289.86        47.52165
290.32        47.06571
290.77        46.65662
291.22        46.30839
291.68        46.00433
292.13        45.73543
292.59        45.54448
293.04        45.46035
293.50        45.56153
293.95         45.8403
294.40        46.26733
294.86        46.78524
295.31        47.30971
295.77        47.81396
296.22        48.30935
296.68        48.80681
297.13        49.31002
297.58        49.82618
298.04         50.3515
298.49        50.87932
298.95        51.45586
299.40        52.05934
299.85          52.673
300.31        53.27885
300.76        53.82386
301.21        54.30297
301.67        54.77113
302.12        55.17365
302.58        55.52559
303.03        55.80608
303.48        56.05059
303.94        56.37261
304.39         56.8874
304.84        57.61286
305.30        58.48151
305.75        59.31973
306.20        59.90494
306.66        60.21037
307.11        60.28323
307.57        60.24517
308.02        60.17942
308.47        60.15997
308.93        60.15148
309.38        60.17336
309.83        60.33009
310.29        60.61591
310.74        61.00337
311.19        61.33364
311.65        61.34083
312.10         60.9788
312.55        60.34079
313.00        59.65805
313.46        59.28994
313.91        59.29535
314.36        59.57611
314.82        59.93157
315.27        60.06282
315.72        59.86799
316.18         59.4646
316.63        58.96004
317.08        58.53932
317.53        58.25649
317.99         58.0402
318.44        57.85656
318.89        57.64221
319.35        57.37664
319.80        57.09622
320.25         56.8134
320.70        56.54097
321.16         56.2768
321.61        56.01796
322.06        55.75389
322.51        55.48033
322.97        55.18514
323.42        54.88041
323.87        54.56049
324.32        54.22662
324.78         53.8712
325.23        53.51807
325.68        53.15432
326.13        52.76969
326.59        52.36929
327.04        51.99397
327.49        51.66724
327.94          51.436
328.39        51.30371
328.85        51.21891
329.30        51.21021
329.75        51.23861
330.20        51.27581
330.66        51.30094
331.11        51.27303
331.56        51.06069
332.01        50.64996
332.46        50.07582
332.92        49.45287
333.37        49.01861
333.82        48.83828
334.27        48.87809
334.72        49.03608
335.17        49.12408
335.63        49.06174
336.08        48.90918
336.53        48.74218
336.98        48.71397
337.43        48.85402
337.88        49.10909
338.34        49.31134
338.79        49.25029
339.24        48.86544
339.69        48.22779
340.14         47.5662
340.59        47.26018
341.05        47.38751
341.50        47.83864
341.95         48.3543
342.40        48.53173
342.85        48.28473
343.30        47.75474
343.75        47.14273
344.20        46.77729
344.66        46.74555
345.11        46.90502
345.56        47.15866
346.01         47.3537
346.46         47.4202
346.91        47.42198
347.36        47.30324
347.81        46.96478
348.26        46.42589
348.72        45.74339
349.17        45.06789
349.62        44.72584
350.07        44.79092
350.52        45.15991
350.97        45.65578
351.42        46.00628
351.87        46.12066
352.32        46.05561
352.77        45.85703
353.22        45.60622
353.67        45.34092
354.13        45.05549
354.58        44.71671
355.03        44.32827
355.48        43.90984
355.93        43.49336
356.38        43.14491
356.83        42.95278
357.28        42.91905
357.73        42.99392
358.18        43.09079
358.63        43.07029
359.08         42.8866
359.53         42.5815
359.98        42.17711
360.43        41.70769
360.88        41.20359
361.33        40.66495
361.78        40.15543
362.23        39.78271
362.68        39.56614
363.13        39.47144
363.58        39.42373
364.03        39.29846
364.48        39.05164
364.93        38.70706
365.38        38.28192
365.83         37.8187
366.28        37.34685
366.73        36.86294
367.18        36.39238
367.63        35.97266
368.08        35.61583
368.53        35.32632
368.98        35.08802
369.43        34.86271
369.88        34.63881
370.33        34.42467
370.78        34.22567
371.23        34.05695
371.68        33.92022
372.13        33.79614
372.58        33.68732
373.03        33.60486
373.48        33.53824
373.93        33.47566
374.38        33.37308
374.83        33.16228
375.28        32.83385
375.72        32.40524
376.17        31.95127
376.62        31.55364
377.07        31.24985
377.52         31.0253
377.97        30.86761
378.42        30.75182
378.87        30.66116
379.32        30.59677
379.77        30.54677
380.22        30.48986
380.67        30.41732
381.11        30.33321
381.56        30.21385
382.01        30.05136
382.46        29.84722
382.91        29.59862
383.36        29.35189
383.81        29.17413
384.26        29.07666
384.71        29.05584
385.15        29.02641
385.60        28.86557
386.05        28.55701
386.50        28.14268
386.95        27.76216
387.40        27.63477
387.85        27.79033
388.29        28.13552
388.74        28.50685
389.19        28.65034
389.64        28.51505
390.09        28.16926
390.54         27.7552
390.98        27.49305
391.43        27.46128
391.88        27.57562
392.33        27.70144
392.78        27.64683
393.23        27.39077
393.67        26.99623
394.12        26.63628
394.57         26.4564
395.02        26.48474
395.47        26.66535
395.91        26.89679
396.36        26.97251
396.81        26.85333
397.26        26.60445
397.71        26.34452
398.15        26.22923
398.60        26.31622
399.05        26.52117
399.50        26.74767
399.95        26.86321
400.39         26.8356
400.84         26.7048
401.29        26.52868
401.74         26.4127
402.18         26.3987
402.63        26.44713
403.08        26.50527
403.53        26.48261
403.97        26.36096
404.42        26.18674
404.87        26.02811
405.32        25.99507
405.76        26.10515
406.21        26.31628
406.66        26.55014
407.11        26.68584
407.55        26.69458
408.00        26.61713
408.45        26.49984
408.90        26.35697
409.34        26.24206
409.79        26.27481
410.24         26.3921
410.68        26.38384
411.13        26.24146
411.58        26.07686
412.03        25.93821
412.47        25.87074
412.92        25.88912
413.37         25.9716
413.81        26.09848
414.26        26.25726
414.71        26.42566
415.15        26.61349
415.60        26.75761
416.05        26.79037
416.49        26.69902
416.94        26.50612
417.39        26.28416
417.83        26.15255
418.28        26.14817
418.73        26.23125
419.17        26.34588
419.62        26.39469
420.07        26.35702
420.51        26.26832
420.96        26.16652
421.41        26.08275
421.85        26.02365
422.30        25.99139
422.74        25.98937
423.19         26.0653
423.64        26.20889
424.08        26.42298
424.53        26.62952
424.98        26.72884
425.42        26.70066
425.87        26.57616
426.31        26.41829
426.76        26.33512
427.21        26.34078
427.65        26.39255
428.10        26.48429
428.54        26.56926
428.99        26.63478
429.44        26.81549
429.88        26.99091
430.33        26.79158
430.77        26.31884
431.22        26.09776
431.66        26.18027
432.11        26.32398
432.56        26.48905
433.00        26.85306
433.45        27.17606
433.89        27.04228
434.34        26.63462
434.78        26.29143
435.23        25.97923
435.67          27.156
436.12        26.43005
436.57        26.32953
437.01        25.98076
437.46        25.88109
437.90        26.05888
438.35        26.27969
438.79        26.45731
439.24        26.56592
439.68        26.57827
440.13        26.32855
440.57        25.98443
441.02        26.15421
441.46        26.64182
441.91        26.80668
442.35        25.97806
442.80        25.74482
443.24         25.8485
443.69         25.8284
444.13        25.66896
444.58        25.58374
445.02        25.59114
445.47        25.69568
445.91        25.83832
446.36        25.86348
446.80        25.74453
447.24        25.56439
447.69        25.38277
448.13        25.23974
448.58        25.16588
449.02        25.14195
449.47        25.15169
449.91        25.15873
450.36        25.15727
450.80        25.15323
451.25        25.15892
451.69        25.16701
452.13        25.18423
452.58        25.20179
453.02        25.21862
453.47        25.24499
453.91        25.27888
454.36        25.31189
454.80        25.33196
455.24        25.31419
455.69        25.26518
456.13        25.17425
456.58        25.07403
457.02        24.99904
457.46        24.95546
457.91        24.87603
458.35        24.78114
458.79        24.77081
459.24        24.83976
459.68        24.96479
460.13        25.14831
460.57        25.17959
461.01         25.0201
461.46        25.34431
461.90        25.21354
462.34        24.96839
462.79        25.13794
463.23         25.0496
463.68        25.05817
464.12         25.0069
464.56        25.11275
465.01        25.22418
465.45        25.30641
465.89        25.32275
466.34        25.27529
466.78        25.08983
467.22        24.85744
467.67        24.90429
468.11        25.17819
468.55        25.18316
468.99        24.93631
469.44        24.87019
469.88        24.99616
470.32        25.06155
470.77        25.04352
471.21        25.03188
471.65        25.02726
472.10        25.00285
472.54        24.97255
472.98        25.00711
473.42        25.10772
473.87        25.18274
474.31        25.21731
474.75        25.34618
475.20        25.51157
475.64        25.44182
476.08        25.21223
476.52        25.16134
476.97        25.30844
477.41        25.49588
477.85        25.64914
478.29        25.72323
478.74        25.70045
479.18        25.55253
479.62        25.38759
480.06        25.37889
480.50        25.52543
480.95        25.66364
481.39        25.73172
481.83        25.75791
482.27        25.73024
482.72        25.62887
483.16        25.52328
483.60        25.52389
484.04        25.63837
484.48        25.94135
484.93        26.40974
485.37        26.51789
485.81        26.29949
486.25        26.86041
486.69        27.59929
487.14        26.84272
487.58        26.66854
488.02        27.15631
488.46        27.08357
488.90        27.14381
489.34        26.79622
489.79        26.89359
490.23        27.34788
490.67        27.54796
491.11        27.47693
491.55        27.42348
491.99        27.42621
492.43        27.43755
492.88        27.47379
493.32        27.52601
493.76        27.61409
494.20        27.76943
494.64        27.99011
495.08        28.30295
495.52        28.63638
495.96         28.7918
496.41         28.8062
496.85        28.89412
497.29        29.07797
497.73        29.31859
498.17        29.57212
498.61        29.66375
499.05        29.62553
499.49        29.74129
499.93        30.03103
500.37        30.24965
500.82        30.38776
501.26        30.67642
501.70        31.03596
502.14        31.05643
502.58        30.80474
503.02        30.73862
503.46        30.89353
503.90        31.03277
504.34        31.11016
504.78        31.15512
505.22        31.15617
505.66        31.11627
506.10        31.07148
506.54        31.07423
506.98        31.14074
507.42        31.26016
507.86        31.40918
508.30        31.54825
508.74        31.66191
509.18        31.75473
509.62        31.84374
510.06        31.95583
510.50        32.09558
510.94        32.25578
511.38         32.3959
511.82        32.45365
512.26        32.41851
512.70        32.30735
513.14        32.19084
513.58        32.17476
514.02        32.27396
514.46         32.4642
514.90        32.66131
515.34        32.65681
515.78        32.48523
516.22        32.23264
516.66        32.02648
517.10        31.75297
517.54        31.44753
517.98        32.05004
518.42        32.07243
518.86        32.36413
519.30        32.46064
519.74        32.52375
520.18        32.55249
520.62         32.5274
521.06        32.47083
521.50        32.37006
521.93        32.24976
522.37        32.16081
522.81        32.11647
523.25        32.11396
523.69        32.13145
524.13        32.13025
524.57        32.09911
525.01          32.043
525.45        31.98776
525.89        31.97463
526.32        32.00722
526.76        32.07359
527.20        32.12172
527.64        32.07455
528.08        31.92024
528.52        31.68421
528.96           31.44
529.40        31.29886
529.83        31.28176
530.27        31.36223
530.71        31.45979
531.15         31.4497
531.59        31.30689
532.03        31.07484
532.46        30.82875
532.90         30.7067
533.34        30.72878
533.78        30.84589
534.22        30.98906
534.66        31.05427
535.09        31.00965
535.53        30.90119
535.97        30.76225
536.41        30.64041
536.85        30.55571
537.28        30.50665
537.72        30.50205
538.16        30.46413
538.60        30.53716
539.04        30.59057
539.47        30.63994
539.91        30.72141
540.35        30.85031
540.79         30.7566
541.22        30.85063
541.66        30.93399
542.10        31.15183
542.54        30.99428
542.97        31.27299
543.41        31.39581
543.85         31.5804
544.29        31.74861
544.72        31.86423
545.16        31.96419
545.60        32.03888
546.04        31.98579
546.47        31.90871
546.91        32.17041
547.35        32.69412
547.79         33.0563
548.22        33.19777
548.66        33.25237
549.10        33.27881
549.53        33.50352
549.97        33.93372
550.41        33.96774
550.84        34.22887
551.28        34.37498
551.72        34.61751
552.15         34.8737
552.59          35.145
553.03        35.44003
553.46        35.69491
553.90        35.85205
554.34        35.90018
554.77         35.8601
555.21        35.81175
555.65        35.86707
556.08        36.04464
556.52         36.3051
556.96        36.58008
557.39        36.80782
557.83        36.95164
558.27        36.94709
558.70        36.85285
559.14        36.83802
559.57        36.91456
560.01        37.05281
560.45        37.19818
560.88        37.20673
561.32        37.13818
561.75        37.15808
562.19         37.4041
562.63        37.46398
563.06        37.41608
563.50        37.56732
563.93        37.86906
564.37        38.13624
564.80        38.17507
565.24        38.27386
565.68        38.36851
566.11        38.45636
566.55        38.57335
566.98        38.59645
567.42        38.53494
567.85        39.01256
568.29        38.97025
568.72         39.3256
569.16        39.70357
569.60        39.99878
570.03        40.16167
570.47         40.2878
570.90        40.21991
571.34        40.67808
571.77         40.4288
572.21        40.94462
572.64        41.06624
573.08        41.21388
573.51        41.42103
573.95        41.83738
574.38        42.23621
574.82        42.42494
575.25        42.35873
575.69        42.18393
576.12        42.23755
576.56        42.23557
576.99        42.27814
577.42        42.39706
577.86        42.48458
578.29        42.24736
578.73        42.93683
579.16        42.50647
579.60        42.20027
580.03        41.96246
580.47        42.02507
580.90        41.84186
581.33        41.56178
581.77        41.74677
582.20        42.51878
582.64        41.82591
583.07        41.27013
583.51        41.31843
583.94        40.79763
584.37        40.83968
584.81        40.33808
585.24        40.36093
585.68        40.60253
586.11        40.48444
586.54        40.42836
586.98        40.07771
587.41        40.02665
587.85        39.98473
588.28        40.02846
588.71        39.94036
589.15        39.77666
589.58         39.3583
590.01        39.35868
590.45        39.85146
590.88        39.87088
591.31        39.75736
591.75        39.23005
592.18        39.36156
592.61        39.24487
593.05        39.79636
593.48        39.38725
593.91         40.2345
594.35        40.09783
594.78        40.00559
595.21        40.50471
595.65          40.756
596.08        40.68157
596.51        40.64005
596.94        40.65801
597.38        40.77752
597.81        41.03104
598.24        41.48625
598.68        42.27484
599.11        42.16764
599.54        43.35204
599.97        42.99791
600.41        43.41262
600.84        43.75762
601.27        44.43446
601.70        44.93547
602.14        45.20224
602.57        45.59015
603.00        46.08916
603.43        46.62182
603.87        46.80537
604.30        47.32208
604.73        48.09481
605.16        48.07853
605.60        48.70013
606.03        49.33281
606.46        50.15503
606.89        50.96023
607.32        51.31313
607.76        51.19536
608.19         51.9722
608.62        52.46265
609.05        52.57423
609.48        52.81769
609.92        53.11409
610.35        53.23043
610.78        54.13204
611.21         55.0572
611.64        54.42732
612.07        55.13713
612.50        55.39052
612.94        55.18904
613.37        56.01023
613.80        56.45974
614.23        57.00517
614.66        57.38031
615.09        57.46889
615.52        57.81596
615.96        58.24949
616.39        58.60733
616.82        58.98868
617.25        58.41468
617.68        59.03885
618.11        59.60054
618.54        60.06731
618.97        60.24017
619.40        60.02943
619.84        59.71619
620.27        59.45892
620.70         59.9312
621.13        60.92901
621.56        61.30992
621.99        61.14992
622.42        61.12798
622.85        61.36896
623.28        61.46007
623.71        61.42372
624.14        61.57822
624.57        61.75318
625.00        61.37236
625.43        61.86807
625.86        60.93835
626.29        61.01689
626.72        60.80851
627.15           60.57
627.58        60.45761
628.01        60.26779
628.44        60.17582
628.87        60.20171
629.30        59.33558
629.73        59.06329
630.16        59.10981
630.59        58.74029
631.02        58.39307
631.45        57.77568
631.88        57.28611
632.31        56.91965
632.74        56.48502
633.17        55.97184
633.60        55.43821
634.03        54.89054
634.46        54.32087
634.89        53.75115
635.32        53.21364
635.75        52.72091
636.18        52.27308
636.61        51.86047
637.04        51.46006
637.47        51.05992
637.89        50.66636
638.32        50.27093
638.75        49.89256
639.18        49.53859
639.61        49.21221
640.04        48.89677
640.47        48.56309
640.90          48.211
641.33        47.85357
641.76        47.53629
642.18        47.33626
642.61        47.25839
643.04        47.27957
643.47        47.34595
643.90        47.36717
644.33        47.32225
644.76        47.24564
645.18        47.17249
645.61        47.16127
646.04        47.23466
646.47        47.36897
646.90        47.57763
647.33        47.88787
647.75        48.29379
648.18        48.77044
648.61        49.25872
649.04        49.69391
649.47        50.05801
649.89        50.29638
650.32         50.4949
650.75         50.9585
651.18        51.70559
651.61        52.33124
652.03         52.8326
652.46         53.8253
652.89        55.15639
653.32        55.54909
653.74        55.15915
654.17        56.10925
654.60         56.7604
655.03        58.09354
655.46        57.76447
655.88         59.6764
656.31        60.84565
656.74        67.48663
657.16           65.37
657.59        61.75865
658.02        61.88695
658.45        62.50883
658.87        63.39582
659.30        63.72576
659.73        64.19717
660.15        65.90277
660.58        65.41307
661.01        65.27854
661.44        64.76983
661.86        65.08229
662.29        66.12975
662.72        67.08362
663.14        67.72027
663.57        67.80136
664.00        67.52712
664.42        67.61658
664.85        68.15151
665.27        68.62972
665.70        68.95847
666.13        69.20532
666.55        69.48685
666.98         69.6546
667.41        69.78249
667.83        69.92395
668.26        70.08324
668.69        70.25296
669.11        70.44286
669.54        70.63736
669.96        70.83292
670.39        71.14072
670.82        71.44881
671.24        71.57352
671.67        71.56239
672.09        71.77364
672.52        72.16957
672.94        72.45611
673.37        72.57029
673.80        72.45989
674.22        72.24065
674.65        72.22276
675.07        72.46114
675.50        72.76495
675.92        73.05323
676.35        73.23615
676.77        73.28474
677.20        73.22602
677.62        73.12476
678.05         73.0982
678.47        73.17297
678.90        73.31921
679.32        73.50173
679.75        73.67057
680.17        73.80643
680.60        73.92542
681.02        74.03953
681.45        74.15028
681.87        74.27366
682.30        74.38931
682.72        74.50385
683.15        74.61023
683.57        74.72038
684.00        74.78132
684.42        74.89217
684.85        75.01234
685.27        75.16093
685.70        75.33171
686.12        75.48542
686.54        75.58453
686.97        75.61443
687.39        75.59676
687.82        75.54971
688.24        75.53428
688.66        75.55962
689.09        75.61135
689.51        75.68867
689.94        75.75616
690.36        75.83363
690.78        75.89226
691.21        75.92066
691.63        76.08306
692.06        76.41105
692.48        76.27263
692.90        76.40631
693.33        76.90359
693.75        76.65469
694.17        76.81876
694.60        76.95509
695.02        76.69837
695.44        76.15009
695.87        76.15976
696.29        76.64129
696.71         76.5079
697.14        76.02419
697.56        76.17397
697.98        77.53194
698.41        78.31279
698.83        77.86218
699.25        77.59358
699.68        77.42614
700.10        77.29766
700.52        77.26453
700.94        77.36181
701.37        77.51865
701.79        77.66872
702.21        77.75636
702.64        77.80301
703.06          77.851
703.48         77.9814
703.90        78.20821
704.33        78.48955
704.75         78.7449
705.17        78.81161
705.59         78.6636
706.01        78.35659
706.44         78.0452
706.86        77.97583
707.28         78.1917
707.70        78.60545
708.12        79.07462
708.55        79.36671
708.97        79.42128
709.39        79.32508
709.81        79.14198
710.23        78.98763
710.66        78.91536
711.08        78.88993
711.50         78.9229
711.92        79.05477
712.34        79.28147
712.76        79.60411
713.19        79.91843
713.61        80.11045
714.03        80.11739
714.45        79.97765
714.87        79.81023
715.29        79.80387
715.71        79.99852
716.13        80.33902
716.56        80.69637
716.98        80.94318
717.40        80.99575
717.82        80.90296
718.24        80.75143
718.66         80.6806
719.08        80.72874
719.50        80.85046
719.92        80.97789
720.34        81.00483
720.76        80.91026
721.19        80.73128
721.61        80.54713
722.03        80.45031
722.45        80.49453
722.87        80.58552
723.29        80.76948
723.71        80.91291
724.13         81.0155
724.55        81.10607
724.97        81.22575
725.39        81.32564
725.81        81.38864
726.23        81.61363
726.65        82.04664
727.07        81.66221
727.49        82.21654
727.91        82.29234
728.33        82.39976
728.75        82.46786
729.17        82.50507
729.59        82.50525
730.01        82.46417
730.43        82.43765
730.85        82.43713
731.27        82.42986
731.69        82.42104
732.10        82.54395
732.52        82.59792
732.94        82.71704
733.36        82.81044
733.78        82.82096
734.20        82.75207
734.62        82.64394
735.04        82.49704
735.46        82.41604
735.88        82.42726
736.30        82.24641
736.72        81.94878
737.13        82.58979
737.55        82.81907
737.97        83.22366
738.39        83.31274
738.81        83.00572
739.23        82.53759
739.65        82.52424
740.06        82.87112
740.48        83.36356
740.90        83.86434
741.32        82.85709
741.74        82.47572
742.16        82.48898
742.57        82.54433
742.99        82.92483
743.41        83.21325
743.83        83.43508
744.25        83.51018
744.67        83.46121
745.08        83.34047
745.50        83.17362
745.92        83.01205
746.34        82.83138
746.75        82.66949
747.17        82.61907
747.59        82.70496
748.01        82.81638
748.42        83.09345
748.84        83.27016
749.26        83.39318
749.68         83.3052
750.09        83.14639
750.51        83.44676
750.93        84.02379
751.35        84.10989
751.76        83.78911
752.18        83.12486
752.60        83.51505
753.01        83.38812
753.43        83.18153
753.85        83.09814
754.27        83.14784
754.68        83.46463
755.10        83.98684
755.52        83.55251
755.93         83.9029
756.35        83.66466
756.77        83.44938
757.18        83.46199
757.60        83.82153
758.02        84.12051
758.43        84.08614
758.85        84.90208
759.26        85.20725
759.68        84.16287
760.10        83.82675
760.51        84.60005
760.93        84.22732
761.34         83.2355
761.76        83.90549
762.18        83.42979
762.59         82.9276
763.01         82.8895
763.42        83.56435
763.84        84.25129
764.26        84.76555
764.67        84.81293
765.09        84.55076
765.50        84.62146
765.92        85.03043
766.33        85.14205
766.75        84.86264
767.16        84.63891
767.58        84.48009
768.00        84.14373
768.41        83.81529
768.83        84.05756
769.24        84.73364
769.66        85.12299
770.07        85.12435
770.49        84.93866
770.90         84.7318
771.32        84.95969
771.73        85.49738
772.15        85.61283
772.56        85.29325
772.97        84.93365
773.39        84.62318
773.80         84.5574
774.22        84.64958
774.63        84.41344
775.05        83.97221
775.46        84.00544
775.88        84.52349
776.29        85.21552
776.70        85.79772
777.12         85.9764
777.53        85.68221
777.95        84.97703
778.36        84.17467
778.77        83.81022
779.19         84.0145
779.60        84.68375
780.02        85.47519
780.43        86.02433
780.84         86.2131
781.26        85.73443
781.67         84.9762
782.09        85.61131
782.50        87.21307
782.91        87.18382
783.33        85.70892
783.74        85.27767
784.15         85.9846
784.57         86.5518
784.98        86.73391
785.39        86.43932
785.81        85.78101
786.22        85.45687
786.63        85.53072
787.04        85.50431
787.46        85.40383
787.87        85.55549
788.28        85.88979
788.70        86.19957
789.11        86.23868
789.52        86.26198
789.93        86.24055
790.35        86.28714
790.76        86.28814
791.17        86.31112
791.58          86.324
792.00        86.30542
792.41        86.23499
792.82        86.22354
793.23        86.16402
793.65        85.68939
794.06        85.16719
794.47        85.30192
794.88        85.83833
795.29         87.6963
795.71        87.39066
796.12        87.12512
796.53        87.74013
796.94        87.04832
797.35        85.89835
797.76         85.6302
798.18        86.25288
798.59        86.47387
799.00        86.21225
799.41        86.31242
799.82        86.72752
800.23        86.94413
800.64        86.91006
801.06        86.72747
801.47        86.53625
801.88        86.49302
802.29        86.62785
802.70        86.85245
803.11        87.05137
803.52        87.02922
803.93        86.75986
804.34        86.40519
804.75        86.04354
805.17        85.71225
805.58         85.5633
805.99        85.64105
806.40        85.98745
806.81        86.88807
807.22        87.87186
807.63        88.30573
808.04        86.81807
808.45        86.63968
808.86          87.436
809.27         88.1505
809.68        88.55044
810.09        88.81023
810.50        88.85379
810.91        88.61082
811.32        88.22252
811.73        87.85282
812.14        87.55333
812.55        87.49068
812.96        87.55869
813.37        87.09661
813.78        86.29976
814.19        86.28836
814.60        86.94833
815.01        87.21033
815.42        87.01759
815.83        86.95097
816.24        87.06417
816.65        87.16014
817.05        87.24804
817.46        87.32436
817.87        87.39818
818.28        87.43372
818.69        87.44396
819.10        87.44478
819.51        87.45819
819.92        87.60651
820.33        87.91637
820.74        88.09801
821.14        88.19265
821.55        88.81152
821.96         89.6817
822.37        89.48646
822.78        88.40524
823.19        87.92718
823.60        88.18932
824.00        88.40364
824.41        88.40614
824.82        88.43403
825.23        88.45625
825.64        88.43212
826.04        88.41062
826.45        88.41767
826.86        88.47087
827.27        88.54947
827.68        88.63779
828.08        88.73759
828.49        88.77271
828.90        88.79032
829.31        88.76402
829.72        88.64767
830.12        88.46725
830.53        88.20826
830.94        87.96347
831.35        87.83863
831.75        87.87874
832.16        88.00726
832.57        88.18783
832.97        88.32605
833.38        88.35983
833.79        88.31872
834.20        88.22884
834.60        88.12478
835.01        88.04335
835.42        87.98683
835.82        87.95118
836.23        87.86832
836.64        87.75729
837.04        87.62976
837.45        87.56554
837.86        87.74252
838.26          88.197
838.67        88.83299
839.08        89.44913
839.48        89.65732
839.89        89.36538
840.29         88.7288
840.70        88.07043
841.11        87.77861
841.51        87.96262
841.92         88.4298
842.33        89.09176
842.73         89.7949
843.14        90.33038
843.54        90.82085
843.95        91.05958
844.35        90.80925
844.76        90.08639
845.17        89.00629
845.57        87.92082
845.98        87.40154
846.38        87.56837
846.79        88.26187
847.19        89.27438
847.60        90.03581
848.00        90.40837
848.41        90.46343
848.81        90.37471
849.22        90.33498
849.62        90.45651
850.03        90.58795
850.43        90.72766
850.84         90.7548
851.24         90.7142
851.65        90.60234
852.05         90.4915
852.46        90.39796
852.86        90.35035
853.27        90.22461
853.67        90.01605
854.07        90.19705
854.48        90.58862
854.88        90.45737
855.29         89.8133
855.69        89.54615
856.10        89.63741
856.50        89.70208
856.90         89.6488
857.31        89.60313
857.71        89.63488
858.12        89.64997
858.52         89.6675
858.92        89.59993
859.33        89.41426
859.73        89.18363
860.13        88.98586
860.54        88.97758
860.94        89.26919
861.34          89.745
861.75        90.20308
862.15         90.4264
862.55         90.3039
862.96        89.93214
863.36        89.42842
863.76        88.95026
864.17        88.58056
864.57        88.30959
864.97        88.19083
865.38        88.27943
865.78        88.62064
866.18        89.13506
866.58        89.67638
866.99        89.97041
867.39        89.98676
867.79        89.75106
868.19        89.27832
868.60        88.59001
869.00        87.71133
869.40        86.68129
869.80        85.76958
870.21        85.41757
870.61        85.77508
871.01        86.66405
871.41         87.6721
871.81        88.12595
872.22        87.87529
872.62        87.14537
873.02        86.22739
873.42        85.70413
873.82        85.63856
874.22         85.6077
874.63        85.63396
875.03        85.87202
875.43        86.25266
875.83        87.19144
876.23        87.30433
876.63        87.11459
877.03         86.3685
877.44        85.05956
877.84        114.1782
878.24        84.59361
878.64        85.20148
879.04        87.13696
879.44        85.66653
879.84         84.6188
880.24         86.2686
880.64        85.82581
881.04        83.80276
881.44        82.55397
881.84        82.54616
882.24        83.37376
882.65        84.45408
883.05        84.85112
883.45        84.23925
883.85        83.09621
884.25         82.0042
884.65        81.67195
885.05        82.26049
885.45        83.51049
885.85        84.93867
886.25        85.74315
886.65        85.68807
887.05        85.04113
887.45         84.1871
887.85        83.69787
888.25        83.74078
888.65        84.13822
889.04        84.72292
889.44        85.12349
889.84        85.24529
890.24        85.18664
890.64        85.04881
891.04        84.97304
891.44        84.97211
891.84        84.95253
892.24        84.81658
892.64        84.42355
893.04        83.79359
893.44        83.08684
893.83        82.35813
894.23        81.71468
894.63        81.18106
895.03         80.7156
895.43        80.50663
895.83        80.86554
896.23        81.79486
896.63        83.17628
897.02        84.56382
897.42        85.13046
897.82        84.70653
898.22        83.54523
898.62        82.14485
899.01        81.27591
899.41        81.18496
899.81        81.62145
900.21        82.35818
900.61        83.04294
901.00         83.5416
901.40        83.94686
901.80        84.27879
902.20        84.54012
902.59        84.74556
902.99        84.84262
903.39        84.80545
903.79        84.62019
904.18        84.29088
904.58        83.87681
904.98        83.51421
905.38        83.40707
905.77        83.58301
906.17        84.02051
906.57        84.48502
906.96        84.63444
907.36        84.36136
907.76        83.73991
908.15        83.09006
908.55        82.87205
908.95        83.20294
909.34        83.99406
909.74        84.78756
910.14        84.80636
910.53        83.89022
910.93        82.36579
911.33        80.90624
911.72        80.57037
912.12        81.52332
912.52        83.31718
912.91        85.29905
913.31        86.40425
913.70        86.41562
914.10        85.63707
914.49        84.36311
914.89        83.23474
915.29        82.57355
915.68         82.1966
916.08        82.17075
916.47        82.55264
916.87        83.25219
917.26        84.23295
917.66         85.1992
918.05         85.6823
918.45        85.53532
918.84         84.9346
919.24        83.99594
919.64        82.95905
920.03        81.97711
920.42        81.02703
920.82        80.40264
921.21         80.4857
921.61        81.25101
922.00        82.62838
922.40        84.05948
922.79        84.84582
923.19        84.74825
923.58        83.84289
923.98        82.47121
924.37        81.64153
924.77        81.77905
925.16        80.70775
925.55        81.78099
925.95        81.87021
926.34        81.95242
926.74        82.01104
927.13        82.19836
927.52        82.59718
927.92         83.1813
928.31        83.94576
928.70        84.67221
929.10        85.01643
929.49        84.90432
929.89        84.43176
930.28        83.88874
930.67        83.73623
931.07        84.06039
931.46        84.75658
931.85        85.54746
932.24         86.0385
932.64        86.10381
933.03        85.80283
933.42        85.26241
933.82        84.78532
934.21        84.46162
934.60        84.25604
934.99        83.91488
935.39        83.18588
935.78        82.05107
936.17        80.29762
936.56        78.17163
936.96        78.55282
937.35        78.38882
937.74        79.97077
938.13        81.66656
938.53        82.86375
938.92        83.48907
939.31        83.75121
939.70        83.73703
940.09        83.53743
940.49        83.24881
940.88        82.85409
941.27        82.53599
941.66        82.60365
942.05         83.0857
942.44        83.90221
942.84        84.81717
943.23        85.43895
943.62         85.6244
944.01        85.51143
944.40        85.18903
944.79        84.81886
945.18        84.47775
945.57        84.08108
945.97        83.79939
946.36         83.8932
946.75        84.40547
947.14        85.24305
947.53        86.00547
947.92         86.1262
948.31        85.53759
948.70        84.41419
949.09        83.15192
949.48        82.45896
949.87        82.54708
950.26         83.2084
950.65         84.1112
951.04         84.6931
951.43        84.76078
951.82         84.4733
952.21        83.99978
952.60        83.60809
952.99          83.395
953.38         83.2747
953.77        83.17262
954.16        82.99001
954.55        82.71016
954.94        82.39333
955.33        82.14665
955.72        82.11659
956.11        82.34534
956.50        82.80264
956.89        83.33945
957.28        83.67909
957.66        83.72839
958.05        83.48176
958.44        83.15554
958.83        83.04367
959.22         83.1893
959.61         83.5322
960.00        83.78547
960.39        83.45227
960.78        82.45853
961.16        80.97855
961.55        79.56496
961.94        78.91386
962.33        79.17645
962.72        80.15769
963.11        81.38056
963.49        82.04152
963.88        81.79876
964.27        80.90282
964.66        79.80859
965.04        79.27338
965.43        79.49334
965.82        80.27261
966.21        81.17548
966.60        81.50104
966.98        81.10939
967.37        80.21098
967.76         79.3372
968.15        79.30663
968.53        80.27941
968.92        81.84757
969.31        83.45648
969.69        84.20027
970.08        83.76806
970.47        82.52492
970.86        80.79321
971.24        79.05859
971.63        77.62955
972.02        76.43737
972.40        75.65738
972.79         75.5825
973.17        76.26964
973.56        77.53255
973.95        79.17914
974.33         80.7904
974.72        82.00586
975.11        82.86708
975.49        83.14082
975.88        82.52883
976.26        81.10319
976.65         79.0409
977.04        76.85844
977.42        75.46995
977.81         75.1591
978.19        75.69477
978.58        76.82618
978.96        78.10381
979.35         79.2086
979.74        80.37231
980.12        81.29478
980.51        81.20081
980.89        80.16611
981.28        78.34605
981.66        76.63971
982.05        76.37793
982.43        77.69716
982.82        80.22301
983.20        83.12824
983.59        84.53725
983.97         84.0092
984.35        81.98577
984.74        79.48341
985.12        78.03737
985.51         78.0723
985.89        79.16749
986.28        80.71158
986.66        81.61443
987.04        81.33002
987.43        80.40308
987.81        79.08173
988.20         77.6005
988.58        75.93441
988.96        73.78548
989.35        71.35973
989.73        69.82989
990.12        69.78886
990.50         71.1276
990.88        72.81219
991.27        73.58069
991.65        73.38747
992.03        72.54254
992.42        71.69679
992.80        72.11687
993.18        74.06818
993.56        76.83192
993.95        79.57635
994.33        81.58453
994.71        82.50806
995.10        82.60467
995.48        82.04654
995.86        80.99032
996.24        79.58167
996.63         77.8208
997.01        75.81358
997.39        74.02531
997.77        72.86236
998.15         72.2867
998.54        72.50017
998.92         73.6823
999.30        75.90955
999.68        79.54819
1000.06        83.60608
1000.45        84.51838
1000.83        81.10748
1001.21        75.11343
1001.59         69.6866
1001.97        67.32866
1002.35         67.9024
1002.73        70.73557
1003.12        74.73939
1003.50        77.34831
1003.88        77.08559
1004.26         74.7127
1004.64        71.55433
1005.02         69.4863
1005.40        69.03476
1005.78        69.66343
1006.16        70.81907
1006.54        71.45572
1006.92        71.18056
1007.30        70.41068
1007.69        69.67429
1008.07        69.63729
1008.45        70.39505
1008.83        72.05987
1009.21        74.17474
1009.59        74.63253
1009.97         71.8302
1010.35        66.23779
1010.73         60.9474
1011.11        59.76891
1011.49        62.80504
1011.86        68.70325
1012.24        74.41783
1012.62        77.04041
1013.00        76.29592
1013.38        73.35615
1013.76        69.66693
1014.14        67.69118
1014.52        68.16198
1014.90        70.19112
1015.28        72.68077
1015.66        73.85763
1016.04        73.06941
1016.41        70.89376
1016.79        67.57899
1017.17        64.34084
1017.55        62.17867
1017.93        60.83043
1018.31        60.36377
1018.69        60.83763
1019.06        62.02617
1019.44        63.78264
1019.82        65.48808
1020.20        65.49232
1020.58        63.19289
1020.95        59.13923
1021.33        54.13835
1021.71        48.42254
1022.09        41.19221
1022.46        29.35909
1022.84        13.27417
1023.22         10.0444
1023.60        27.27352
1023.97        45.98117
1024.35         56.6246
1024.73        60.58533
