SpectraSmart Spectrum 2.9.0.0
--------- Device Information -----------
Spectrum Name :  反射率_0
Saving Time :  2024/04/20 00:08:41
Spectro-Module Model Name : SE2030-DUVN
Spectro-Module Serial Number : OS361AC55029948
Wavelength Start : 200
Wavelength End : 1025
Wavelength Unit : Wavelength(nm)
Spectrum Unit : Reflectance(%)
-----------Spectrum Setting ------------
Integration Time : 30ms
Average : 10
Boxcar : 0
Background removal :  enabled
linearity correction :  enabled
SC :  disabled
Intensity correction :  disabled
DWT denoise :  enabled
savitzky-golay :  disabled
FFT :  disabled
Running average :  disabled
Kalman :  disabled
High pass :  disabled
---------------BEGIN--------------------
Wavelength(nm)             Reflectance(%)
200.29               0
200.75        58.71343
201.21        59.76297
201.67        62.78657
202.13        67.93893
202.58        75.01443
203.04        84.26783
203.50        92.64481
203.96        93.11318
204.42        86.03294
204.88        76.25223
205.34        67.93351
205.80        62.81516
206.26        59.92228
206.72        58.08144
207.18        57.03791
207.64        56.62828
208.10        56.98219
208.55          58.785
209.01        60.42826
209.47        61.27894
209.93        61.35519
210.39        60.64057
210.85        59.74994
211.31        59.51516
211.77        60.01337
212.23        61.27168
212.69        62.53802
213.14        61.71448
213.60        58.49591
214.06        55.23801
214.52        53.30744
214.98        53.37891
215.44        55.08567
215.90        57.77037
216.36        61.36088
216.81        65.07622
217.27        67.86918
217.73        70.02579
218.19        70.22839
218.65        66.58749
219.11        58.97504
219.57        47.40452
220.02        34.72987
220.48        28.75606
220.94        32.20638
221.40        43.62292
221.86        57.73469
222.32        66.25677
222.77        67.08203
223.23        62.81075
223.69        56.97274
224.15        54.69548
224.61        56.51913
225.06         60.0111
225.52        63.19559
225.98        64.55671
226.44        64.04047
226.90         62.3678
227.36        60.33675
227.81        59.13634
228.27        59.36287
228.73        60.39283
229.19        61.34221
229.65        61.20646
230.10        60.00227
230.56        58.31461
231.02        56.85907
231.48        56.54387
231.93        57.32383
232.39        58.77952
232.85        60.22717
233.31        60.67331
233.77        59.89793
234.22        58.26287
234.68        56.20447
235.14        54.41399
235.60        53.23082
236.05        52.49746
236.51        52.19793
236.97        52.28209
237.43        52.71609
237.88        53.76545
238.34        55.20325
238.80        56.51718
239.26        57.17806
239.71        57.08604
240.17        56.32205
240.63        55.67079
241.08        55.43613
241.54        55.38544
242.00        55.24685
242.46        54.34893
242.91        52.22671
243.37        48.38795
243.83        43.08983
244.28        39.70607
244.74        41.62222
245.20        48.34858
245.66        54.59868
246.11         55.4698
246.57        50.19769
247.03        38.88443
247.48        24.50325
247.94        22.12771
248.40        32.52187
248.85        44.65437
249.31         53.5032
249.77        58.55818
250.22        61.11771
250.68         62.4484
251.14        62.88761
251.59        62.57083
252.05        61.79642
252.51         60.5302
252.96        58.59288
253.42         56.2393
253.88        53.93406
254.33        51.98523
254.79        51.78247
255.25         54.2591
255.70        58.78989
256.16        64.31068
256.62         68.9088
257.07        70.44776
257.53        69.16776
257.99          65.996
258.44        62.13513
258.90        59.85933
259.35        58.92534
259.81        58.95334
260.27        58.89314
260.72        57.87947
261.18        56.20543
261.63        53.88171
262.09        51.84435
262.55        50.85453
263.00        50.87359
263.46        51.63432
263.91         52.1982
264.37        51.73891
264.83        50.24719
265.28        48.05441
265.74        46.14545
266.19        45.45075
266.65        46.08793
267.11        47.50226
267.56        48.92664
268.02        49.26862
268.47        48.34398
268.93        46.55085
269.38        44.38482
269.84        42.88068
270.30         42.3111
270.75        42.36798
271.21        42.67108
271.66        42.64464
272.12         42.1193
272.57        41.28501
273.03        40.35646
273.48         39.5601
273.94        39.01804
274.39        38.60117
274.85        38.22025
275.31        37.71656
275.76        37.04067
276.22        36.28187
276.67        35.53376
277.13        35.04021
277.58        34.77028
278.04        34.67561
278.49        34.52435
278.95        34.06861
279.40        33.24598
279.86        32.24409
280.31        31.21007
280.77         30.4957
281.22        30.09686
281.68        29.93594
282.13        29.85784
282.59        29.67949
283.04         29.3431
283.50        28.94616
283.95        28.52311
284.41        28.16296
284.86         27.8648
285.32         27.6154
285.77        27.40236
286.22        27.28232
286.68        27.24484
287.13        27.24932
287.59        27.23557
288.04        27.08373
288.50        26.79586
288.95        26.38044
289.41        25.92823
289.86        25.50298
290.32        25.18196
290.77        24.94262
291.22        24.79653
291.68        24.72144
292.13        24.71353
292.59        24.79351
293.04        24.97745
293.50        25.30479
293.95        25.75507
294.40        26.28418
294.86        26.83271
295.31        27.32302
295.77        27.73369
296.22        28.09267
296.68        28.40047
297.13        28.63937
297.58        28.83836
298.04        29.01714
298.49        29.26389
298.95        29.75021
299.40        30.47695
299.85        31.37798
300.31        32.30685
300.76        33.03522
301.21        33.50355
301.67        33.79789
302.12        33.97108
302.58        34.16561
303.03        34.40099
303.48        34.65279
303.94        34.94344
304.39        35.27015
304.84        35.63305
305.30        36.02952
305.75        36.39289
306.20        36.63675
306.66        36.76412
307.11        36.78514
307.57        36.76482
308.02         36.7324
308.47         36.7266
308.93        36.73035
309.38        36.75191
309.83        36.85115
310.29        37.01977
310.74        37.24269
311.19        37.41896
311.65        37.38716
312.10        37.12042
312.55        36.66923
313.00         36.1828
313.46        35.89061
313.91        35.82825
314.36        35.94804
314.82        36.10886
315.27         36.1022
315.72        35.86741
316.18        35.48392
316.63        35.07235
317.08        34.82318
317.53        34.77343
317.99        34.84649
318.44        34.94051
318.89        34.88297
319.35        34.62816
319.80        34.23748
320.25        33.78775
320.70        33.40053
321.16        33.11155
321.61        32.88751
322.06        32.69328
322.51        32.47678
322.97        32.21322
323.42        31.92968
323.87        31.63103
324.32        31.32646
324.78        31.01565
325.23        30.70042
325.68          30.373
326.13        30.02988
326.59        29.67888
327.04         29.3553
327.49        29.07267
327.94         28.8511
328.39        28.69499
328.85        28.57468
329.30        28.53231
329.75        28.59472
330.20        28.74316
330.66        28.92964
331.11        29.07409
331.56        28.99988
332.01        28.67029
332.46        28.13431
332.92        27.49614
333.37        26.94725
333.82        26.56883
334.27        26.34468
334.72        26.24215
335.17         26.1922
335.63        26.15362
336.08        26.14024
336.53        26.18126
336.98        26.33046
337.43         26.5757
337.88         26.8867
338.34        27.08977
338.79         26.9609
339.24        26.45326
339.69        25.64057
340.14        24.80448
340.59        24.41845
341.05        24.57967
341.50        25.15351
341.95         25.8343
342.40         26.1409
342.85        25.96035
343.30        25.45478
343.75        24.82889
344.20        24.41868
344.66        24.32163
345.11        24.39395
345.56        24.56334
346.01        24.71915
346.46         24.8017
346.91        24.86673
347.36        24.83833
347.81        24.58291
348.26        24.11104
348.72        23.49256
349.17        22.87735
349.62         22.6001
350.07        22.73474
350.52        23.16684
350.97        23.72654
351.42        24.15473
351.87        24.36491
352.32        24.42036
352.77        24.33937
353.22        24.15766
353.67         23.9074
354.13         23.5884
354.58        23.23768
355.03        22.95821
355.48         22.7808
355.93        22.70369
356.38        22.69027
356.83        22.66754
357.28        22.60935
357.73        22.52133
358.18        22.43155
358.63        22.38949
359.08        22.39721
359.53        22.43183
359.98        22.42434
360.43         22.2732
360.88        21.97144
361.33         21.5637
361.78        21.14943
362.23        20.89077
362.68        20.82236
363.13        20.88094
363.58        20.98788
364.03        21.01992
364.48        20.93635
364.93        20.77974
365.38        20.54815
365.83        20.24281
366.28        19.88819
366.73        19.48594
367.18        19.11973
367.63        18.92231
368.08        18.90864
368.53        19.03724
368.98        19.19883
369.43         19.2163
369.88        19.05207
370.33        18.76495
370.78        18.43118
371.23        18.18601
371.68        18.07591
372.13        18.04946
372.58        18.09488
373.03        18.19325
373.48        18.31408
373.93        18.45795
374.38         18.5532
374.83        18.48824
375.28        18.24907
375.72        17.85844
376.17        17.43255
376.62        17.12372
377.07        16.98351
377.52        16.97759
377.97        17.04473
378.42        17.08376
378.87        17.06182
379.32        17.00244
379.77        16.94496
380.22         16.9459
380.67        17.01219
381.11        17.12323
381.56        17.20397
382.01        17.15283
382.46         16.9511
382.91        16.63137
383.36        16.30029
383.81        16.11667
384.26        16.11191
384.71        16.24581
385.15        16.39487
385.60        16.37105
386.05        16.13861
386.50        15.75763
386.95        15.37243
387.40        15.20859
387.85        15.30672
388.29        15.58407
388.74         15.8802
389.19        15.97088
389.64        15.81314
390.09        15.47524
390.54        15.09768
390.98        14.89744
391.43        14.93819
391.88         15.1333
392.33        15.34297
392.78        15.36844
393.23        15.18472
393.67        14.86396
394.12        14.55319
394.57        14.39972
395.02        14.43271
395.47        14.59642
395.91         14.8065
396.36        14.89952
396.81        14.83428
397.26        14.66004
397.71        14.45843
398.15        14.33627
398.60        14.33656
399.05        14.41216
399.50        14.49821
399.95        14.50453
400.39        14.41106
400.84        14.24539
401.29        14.07521
401.74        14.02204
402.18        14.11965
402.63        14.31826
403.08        14.52006
403.53        14.56971
403.97        14.43747
404.42        14.18529
404.87        13.91593
405.32        13.79843
405.76        13.87128
406.21        14.07357
406.66        14.31891
407.11        14.47324
407.55        14.49939
408.00        14.44282
408.45        14.33975
408.90        14.21569
409.34        14.11091
409.79        14.08152
410.24        14.10401
410.68         14.0844
411.13        14.01972
411.58        13.97002
412.03        13.94157
412.47        13.92243
412.92        13.91112
413.37         13.9018
413.81        13.91026
414.26         13.9747
414.71        14.08946
415.15        14.24903
415.60        14.37814
416.05        14.37968
416.49        14.23388
416.94        13.98023
417.39        13.70434
417.83        13.54574
418.28        13.54414
418.73        13.64855
419.17        13.79523
419.62        13.86997
420.07        13.84773
420.51        13.77036
420.96        13.66576
421.41        13.55927
421.85        13.46418
422.30          13.379
422.74        13.32926
423.19        13.38094
423.64        13.52992
424.08        13.76544
424.53        14.00357
424.98         14.1161
425.42         14.0702
425.87        13.90773
426.31        13.69487
426.76        13.54525
427.21        13.48386
427.65        13.47176
428.10        13.51309
428.54        13.58909
428.99        13.68666
429.44        13.87467
429.88        14.06204
430.33        14.00776
430.77        13.76083
431.22        13.60254
431.66        13.59379
432.11        13.67651
432.56        13.83906
433.00        14.13622
433.45        14.40197
433.89        14.38164
434.34        14.15397
434.78        13.87923
435.23        13.57405
435.67        14.17792
436.12         13.7151
436.57        13.65274
437.01        13.45932
437.46        13.38787
437.90        13.44679
438.35        13.52349
438.79        13.58018
439.24        13.61681
439.68         13.6218
440.13        13.48191
440.57        13.28702
441.02        13.39652
441.46        13.68695
441.91         13.7319
442.35        13.20112
442.80        13.00701
443.24        13.01362
443.69        12.94024
444.13         12.7835
444.58        12.68634
445.02        12.66044
445.47        12.70209
445.91        12.77275
446.36        12.78103
446.80        12.70756
447.24        12.59462
447.69        12.48253
448.13         12.4029
448.58        12.37475
449.02        12.38667
449.47        12.41121
449.91        12.39979
450.36        12.34712
450.80        12.26454
451.25        12.19714
451.69        12.19912
452.13          12.282
452.58         12.4171
453.02        12.55615
453.47        12.62378
453.91        12.60492
454.36        12.52113
454.80        12.40906
455.24        12.33208
455.69        12.31489
456.13        12.32358
456.58        12.34944
457.02        12.37298
457.46        12.38629
457.91        12.37069
458.35        12.33373
458.79         12.3127
459.24        12.30929
459.68        12.31002
460.13        12.35036
460.57        12.36484
461.01        12.34091
461.46        12.61761
461.90        12.69414
462.34        12.55808
462.79        12.62689
463.23        12.47908
463.68        12.34567
464.12         12.2715
464.56        12.37158
465.01        12.53494
465.45        12.69321
465.89        12.75929
466.34        12.72196
466.78        12.57182
467.22        12.38166
467.67        12.35691
468.11        12.48518
468.55        12.50383
468.99        12.41732
469.44        12.43494
469.88        12.55719
470.32        12.66118
470.77        12.71344
471.21        12.72755
471.65        12.69839
472.10        12.62363
472.54        12.53933
472.98        12.53649
473.42        12.62754
473.87        12.74727
474.31        12.85948
474.75        12.98412
475.20        13.08135
475.64        13.02847
476.08        12.88334
476.52        12.84896
476.97        12.94269
477.41        13.07399
477.85        13.19662
478.29        13.27497
478.74        13.29474
479.18        13.24496
479.62        13.17983
480.06         13.1884
480.50        13.26921
480.95        13.33264
481.39        13.35448
481.83        13.36257
482.27        13.35685
482.72         13.3323
483.16        13.30914
483.60        13.32899
484.04         13.3894
484.48        13.52404
484.93        13.77016
485.37        13.91421
485.81        14.01448
486.25        14.59522
486.69        14.60369
487.14        14.30551
487.58        14.40287
488.02        14.83877
488.46        14.57356
488.90        14.62309
489.34         14.6349
489.79         14.7912
490.23        15.03427
490.67        15.18591
491.11        15.22424
491.55        15.19142
491.99        15.11936
492.43        15.07369
492.88        15.07964
493.32        15.09162
493.76        15.13398
494.20        15.26489
494.64        15.48649
495.08        15.77916
495.52        16.09206
495.96        16.34378
496.41        16.52057
496.85        16.63815
497.29        16.72044
497.73        16.86224
498.17        17.05034
498.61        17.12019
499.05          17.095
499.49        17.17807
499.93        17.38625
500.37        17.57077
500.82         17.7205
501.26        17.96299
501.70        18.24717
502.14        18.33129
502.58        18.25146
503.02        18.27622
503.46        18.42515
503.90        18.55612
504.34        18.63554
504.78        18.67266
505.22        18.66218
505.66        18.61308
506.10        18.55902
506.54        18.54948
506.98        18.60101
507.42        18.70328
507.86        18.84046
508.30        18.98464
508.74        19.11984
509.18        19.24442
509.62        19.35958
510.06        19.46772
510.50        19.56925
510.94        19.66672
511.38        19.73567
511.82        19.73996
512.26        19.67923
512.70        19.56465
513.14        19.46264
513.58        19.47309
514.02        19.60595
514.46        19.83355
514.90         20.0669
515.34        20.10464
515.78        19.94292
516.22        19.70871
516.66        19.52127
517.10        19.22148
517.54        18.84479
517.98        19.51425
518.42        19.48065
518.86        19.76903
519.30        19.83785
519.74        19.87663
520.18         19.8869
520.62        19.84738
521.06        19.78566
521.50         19.6902
521.93        19.58434
522.37        19.51721
522.81         19.4988
523.25        19.52037
523.69        19.56597
524.13        19.60757
524.57        19.63179
525.01        19.63987
525.45        19.63173
525.89        19.60787
526.32        19.56906
526.76        19.51953
527.20        19.44975
527.64        19.35023
528.08        19.22355
528.52         19.0717
528.96        18.93263
529.40        18.86129
529.83         18.8638
530.27        18.93017
530.71        18.99319
531.15        18.94689
531.59        18.77579
532.03         18.5156
532.46        18.25331
532.90        18.14203
533.34        18.20355
533.78        18.38432
534.22        18.59383
534.66        18.69308
535.09        18.64381
535.53        18.49712
535.97        18.30721
536.41        18.15734
536.85        18.07659
537.28        18.04777
537.72        18.05969
538.16        18.03938
538.60        18.06617
539.04        18.07614
539.47        18.09136
539.91         18.1489
540.35        18.26125
540.79        18.25914
541.22        18.37758
541.66        18.48653
542.10        18.66855
542.54        18.62136
542.97        18.83084
543.41        18.94069
543.85        19.08304
544.29        19.21151
544.72        19.31131
545.16        19.41651
545.60        19.52357
546.04        19.56551
546.47        19.59729
546.91        19.82906
547.35        20.20892
547.79        20.47836
548.22        20.60233
548.66        20.66588
549.10        20.70952
549.53        20.87341
549.97        21.16893
550.41        21.22614
550.84        21.43335
551.28        21.58296
551.72        21.80334
552.15        22.01921
552.59        22.22399
553.03        22.49258
553.46         22.6724
553.90        22.82699
554.34        22.91685
554.77        22.95426
555.21        22.98253
555.65        23.06127
556.08        23.19999
556.52        23.37725
556.96        23.55804
557.39        23.71721
557.83        23.83508
558.27        23.86678
558.70        23.84211
559.14        23.85548
559.57        23.91238
560.01        23.99814
560.45        24.08811
560.88         24.1059
561.32        24.09418
561.75        24.15069
562.19        24.35218
562.63        24.41789
563.06        24.39161
563.50          24.463
563.93        24.62122
564.37        24.79333
564.80        24.85897
565.24        24.98389
565.68        25.11201
566.11        25.21275
566.55        25.30215
566.98        25.34201
567.42        25.34043
567.85        25.63013
568.29        25.55591
568.72        25.88911
569.16        26.34292
569.60        26.63662
570.03        26.71701
570.47        26.78585
570.90        26.76166
571.34        27.04198
571.77        26.76661
572.21        27.28734
572.64        27.44752
573.08         27.5262
573.51        27.78119
573.95        28.15326
574.38        28.42492
574.82        28.66262
575.25        28.74786
575.69        28.63782
576.12         28.6459
576.56        28.53474
576.99        28.41598
577.42        28.70846
577.86        28.61571
578.29        28.62368
578.73        29.02192
579.16        28.67309
579.60        28.47313
580.03        28.38248
580.47        28.50494
580.90        28.27359
581.33        28.10109
581.77        28.14848
582.20        28.34096
582.64        28.02063
583.07        27.73553
583.51        27.78216
583.94        27.40484
584.37        27.15502
584.81        26.92701
585.24        26.83022
585.68         26.8588
586.11        26.86633
586.54        26.76157
586.98        26.68891
587.41        26.74341
587.85        26.68646
588.28        26.53412
588.71        26.39186
589.15        26.35274
589.58        25.97156
590.01        26.15477
590.45        26.58665
590.88        26.32617
591.31        26.15002
591.75         25.7913
592.18        26.03152
592.61         26.1945
593.05        26.56416
593.48        26.27466
593.91        26.71106
594.35        26.42184
594.78         26.5444
595.21        26.73373
595.65        27.13173
596.08        27.19747
596.51        27.21898
596.94         27.1516
597.38        27.23308
597.81        27.53514
598.24        27.72158
598.68        28.37649
599.11        28.43781
599.54        29.20165
599.97        29.02784
600.41        29.53812
600.84         29.8686
601.27        30.54365
601.70        30.73102
602.14        31.01159
602.57        31.39307
603.00        32.00665
603.43        32.44772
603.87        32.72955
604.30        33.17265
604.73        33.75328
605.16        34.17881
605.60        34.44852
606.03        34.89015
606.46        35.43657
606.89        35.94852
607.32        36.65784
607.76        36.83733
608.19        37.09364
608.62        37.66134
609.05          37.735
609.48        38.13532
609.92        38.60001
610.35        38.70541
610.78        39.44756
611.21        40.06136
611.64         40.2089
612.07        40.19136
612.50        40.81594
612.94        40.76393
613.37        41.26213
613.80        41.54871
614.23        41.89874
614.66        42.30801
615.09        42.57878
615.52        43.06278
615.96        43.23449
616.39        43.57771
616.82        44.06504
617.25        43.74787
617.68        44.24068
618.11        44.78488
618.54        45.10839
618.97        45.15876
619.40        44.82644
619.84        44.93894
620.27        44.88021
620.70         45.3774
621.13        46.05772
621.56        46.35673
621.99        46.32609
622.42        46.26507
622.85        46.33168
623.28        46.48162
623.71         46.6149
624.14        47.09315
624.57        46.49165
625.00        46.48899
625.43        46.51385
625.86        46.13922
626.29        45.97157
626.72        45.78899
627.15        45.74759
627.58        45.77707
628.01        45.80128
628.44        45.74039
628.87        45.57731
629.30        45.02372
629.73          44.728
630.16        44.30996
630.59        44.09618
631.02        43.79337
631.45        43.42503
631.88        43.05278
632.31         42.6609
632.74        42.19989
633.17        41.68869
633.60         41.1948
634.03        40.73117
634.46        40.28228
634.89        39.82609
635.32        39.32623
635.75         38.7825
636.18         38.2201
636.61        37.67428
637.04        37.19204
637.47        36.77835
637.89        36.42362
638.32        36.10529
638.75        35.77605
639.18         35.4203
639.61        35.17895
640.04        34.81608
640.47        34.47184
640.90        34.08388
641.33        33.66991
641.76        33.28968
642.18        33.04407
642.61        32.94814
643.04        32.98046
643.47        33.07607
643.90        33.06997
644.33        33.01865
644.76        32.89186
645.18        32.75952
645.61        32.69595
646.04        32.72765
646.47        32.82786
646.90        32.99494
647.33        33.23155
647.75        33.53063
648.18        33.88379
648.61        34.25625
649.04        34.60861
649.47        34.91755
649.89        35.14551
650.32        35.36639
650.75        35.72773
651.18        36.26633
651.61        36.95832
652.03         37.7254
652.46        38.42242
652.89        39.01717
653.32        39.44305
653.74        39.75974
654.17        40.40136
654.60        40.83667
655.03        41.77241
655.46        41.60162
655.88        43.10772
656.31        44.43371
656.74        48.48055
657.16        47.49833
657.59        45.24275
658.02        45.34419
658.45        45.54567
658.87         46.7132
659.30        47.14354
659.73         47.7713
660.15        48.70546
660.58        48.67707
661.01        48.57678
661.44        48.24131
661.86        48.51692
662.29        49.36264
662.72        50.21096
663.14        50.86538
663.57        51.05944
664.00        50.91949
664.42        51.04565
664.85        51.50227
665.27        51.86129
665.70        52.06965
666.13        52.29599
666.55        52.53943
666.98        52.74593
667.41        52.93165
667.83        53.12026
668.26        53.30871
668.69        53.50075
669.11        53.68457
669.54        53.83785
669.96        53.96559
670.39        54.07355
670.82        54.18652
671.24        54.35602
671.67        54.58828
672.09        54.81435
672.52        55.01754
672.94        55.26251
673.37        55.48229
673.80        55.44876
674.22        55.27845
674.65        55.15984
675.07        55.52454
675.50        55.84529
675.92        56.15745
676.35        56.37224
676.77        56.46088
677.20        56.46474
677.62        56.42815
678.05        56.40801
678.47        56.41652
678.90        56.55949
679.32        56.62669
679.75        56.79526
680.17        56.98204
680.60        57.27534
681.02        57.60133
681.45        57.61784
681.87        57.41805
682.30        57.50478
682.72        57.84368
683.15        57.97893
683.57        57.93073
684.00        57.84551
684.42        57.88098
684.85        58.31221
685.27        58.32926
685.70        58.65501
686.12        58.96365
686.54        59.17178
686.97        59.24971
687.39        59.20237
687.82        59.09645
688.24        59.13937
688.66        59.31223
689.09        59.37508
689.51        59.39058
689.94        59.43122
690.36        59.51146
690.78        59.79198
691.21        59.74844
691.63        59.91862
692.06        60.16338
692.48        60.14284
692.90        60.14341
693.33        60.56211
693.75        60.45898
694.17        60.64086
694.60        60.76239
695.02         60.7783
695.44        60.66504
695.87        60.55935
696.29        60.50645
696.71        60.38718
697.14        60.35896
697.56        60.77166
697.98        61.39009
698.41        62.21477
698.83        61.78695
699.25         61.6194
699.68        61.45102
700.10        61.35306
700.52        61.37031
700.94        61.71872
701.37        61.91661
701.79        62.17344
702.21        62.30551
702.64        62.36264
703.06         62.3848
703.48        62.44939
703.90         62.5758
704.33        62.74186
704.75        62.91457
705.17        62.95522
705.59        62.81651
706.01        62.83551
706.44        62.49013
706.86        62.52348
707.28         62.7738
707.70        63.15707
708.12        63.55154
708.55        63.79078
708.97        63.83564
709.39        63.74174
709.81        63.57977
710.23        63.47611
710.66         63.4767
711.08        63.54265
711.50        63.65144
711.92        63.78454
712.34        63.92884
712.76        64.10326
713.19        64.25235
713.61        64.33328
714.03        64.31493
714.45        64.21535
714.87        64.12016
715.29        64.16533
715.71        64.37479
716.13        64.70813
716.56        65.05659
716.98        65.30611
717.40        65.38622
717.82        65.33846
718.24        65.23202
718.66        65.18262
719.08        65.22363
719.50        65.31434
719.92        65.41714
720.34        65.47256
720.76        65.46494
721.19        65.42194
721.61        65.36986
722.03        65.31185
722.45        65.27818
722.87        65.24975
723.29        65.25323
723.71        65.32379
724.13        65.46613
724.55        65.67217
724.97        65.90141
725.39        66.08476
725.81        66.20039
726.23        66.25786
726.65        66.29565
727.07        66.38152
727.49        66.52985
727.91        66.71867
728.33        66.90099
728.75        66.99802
729.17        66.99489
729.59        66.92201
730.01        66.81993
730.43        66.79513
730.85        66.87748
731.27        66.95124
731.69        66.97446
732.10        67.32979
732.52        67.30422
732.94        67.43801
733.36        67.48468
733.78        67.49575
734.20        67.49728
734.62        67.17984
735.04        67.04691
735.46        67.09129
735.88        66.99813
736.30        66.91383
736.72        67.08262
737.13        67.25671
737.55        67.47274
737.97        67.86665
738.39        68.27975
738.81        68.21619
739.23        67.80328
739.65        67.64246
740.06        67.65793
740.48        68.18195
740.90        67.75892
741.32        67.47083
741.74        67.43919
742.16        67.59441
742.57        67.70061
742.99        67.85612
743.41        68.15652
743.83        68.32824
744.25        68.40832
744.67         68.4015
745.08        68.33932
745.50        68.23502
745.92        68.12052
746.34        67.99652
746.75        67.87962
747.17        67.79752
747.59        67.76722
748.01        67.79847
748.42         67.8955
748.84        68.06412
749.26        68.30201
749.68        68.46658
750.09        68.58285
750.51         68.9047
750.93        69.26006
751.35        69.20993
751.76        68.86598
752.18        68.25953
752.60        68.06687
753.01        68.46394
753.43        67.84025
753.85        67.93378
754.27        68.19067
754.68        68.75875
755.10        69.42525
755.52        69.30995
755.93         69.0611
756.35        68.84067
756.77        68.92088
757.18         68.9458
757.60        68.98042
758.02        69.23265
758.43        69.55645
758.85        69.62777
759.26        69.91039
759.68        68.99483
760.10        69.07243
760.51          68.712
760.93        68.59497
761.34        68.67682
761.76        69.14184
762.18        68.99657
762.59        68.46967
763.01        68.40803
763.42        68.88559
763.84        69.31696
764.26        69.57669
764.67          69.432
765.09        69.12222
765.50        69.39813
765.92        70.16078
766.33        70.60757
766.75        70.54058
767.16        70.14648
767.58        69.54561
768.00        69.14629
768.41        69.13712
768.83        69.32259
769.24        69.63884
769.66        70.25854
770.07        70.89532
770.49        70.77557
770.90         70.0927
771.32        69.92683
771.73         70.3202
772.15        70.59429
772.56        70.64323
772.97        70.41531
773.39        69.96839
773.80        69.86613
774.22        70.04027
774.63        69.78243
775.05        69.21542
775.46        69.11629
775.88        69.51884
776.29        70.09458
776.70        70.61466
777.12        70.85779
777.53        70.75296
777.95        70.33938
778.36        69.83784
778.77        69.63004
779.19        69.81357
779.60        70.32379
780.02        70.88693
780.43        71.24467
780.84        71.32182
781.26        70.79623
781.67        70.03436
782.09        70.63737
782.50        72.18678
782.91        72.18973
783.33        70.80414
783.74        70.38502
784.15        71.02023
784.57        71.46189
784.98        71.51165
785.39        71.20767
785.81        70.65083
786.22        70.36906
786.63        70.40212
787.04        70.38823
787.46        70.35949
787.87        70.47665
788.28        70.66527
788.70        71.26094
789.11         71.1947
789.52        71.36146
789.93        71.48011
790.35        71.57884
790.76        71.66788
791.17        71.77084
791.58        71.86293
792.00        71.78528
792.41        71.55379
792.82        71.38793
793.23         71.2801
793.65        70.94735
794.06        70.60857
794.47        70.74606
794.88        71.19532
795.29        71.97316
795.71        72.25325
796.12        71.45473
796.53        72.34396
796.94        71.71853
797.35        70.73038
797.76        70.48716
798.18        71.01345
798.59        71.30237
799.00         71.2601
799.41        71.49743
799.82        71.94849
800.23        72.26395
800.64        72.40157
801.06        72.20464
801.47        72.14533
801.88        72.07362
802.29        72.12974
802.70        72.23046
803.11        72.31741
803.52        72.28403
803.93        72.11385
804.34        71.92368
804.75        71.73309
805.17        71.49586
805.58        71.31994
805.99        71.24792
806.40        71.33749
806.81        71.86016
807.22        72.68456
807.63        72.71141
808.04        72.10954
808.45        71.95272
808.86        72.36826
809.27        72.88604
809.68        73.34752
810.09        73.61266
810.50        73.59958
810.91        73.41167
811.32        73.14388
811.73        72.85831
812.14        72.59412
812.55        72.43332
812.96        72.32118
813.37        71.96091
813.78        71.44581
814.19        71.27065
814.60        71.41743
815.01        71.47836
815.42        71.43397
815.83        71.50031
816.24        71.69617
816.65        71.93252
817.05        72.18896
817.46        72.42751
817.87        72.60879
818.28        72.63616
818.69        72.52125
819.10        72.30978
819.51        72.08512
819.92        72.08813
820.33        72.38831
820.74        72.64621
821.14        72.88676
821.55        73.72376
821.96        74.83817
822.37        74.84343
822.78        73.86164
823.19         73.3559
823.60         73.4544
824.00        73.34458
824.41        72.97317
824.82        72.77509
825.23        72.77837
825.64         72.8911
826.04        73.08719
826.45         73.2657
826.86        73.40208
827.27        73.51828
827.68        73.61217
828.08        73.70113
828.49        73.73403
828.90        73.72787
829.31        73.68342
829.72        73.61221
830.12        73.54143
830.53        73.44218
830.94        73.33827
831.35        73.22852
831.75        73.13875
832.16         73.0369
832.57        72.94889
832.97        72.89214
833.38        72.85175
833.79         72.8196
834.20        72.80515
834.60         72.8126
835.01        72.85922
835.42        72.96211
835.82        73.07046
836.23        73.04673
836.64        72.89276
837.04        72.62652
837.45         72.4105
837.86         72.5563
838.26        73.12454
838.67        73.99624
839.08        74.86431
839.48        75.15765
839.89        74.74632
840.29        73.85233
840.70          72.906
841.11        72.46526
841.51        72.67829
841.92        73.31517
842.33        74.20765
842.73        75.05869
843.14        75.62352
843.54        76.04354
843.95        76.19509
844.35        75.96315
844.76        75.38316
845.17        74.51988
845.57        73.61845
845.98        73.08524
846.38         73.0162
846.79        73.31521
847.19        73.88531
847.60        74.38767
848.00        74.74578
848.41        74.96921
848.81        75.13414
849.22        75.28219
849.62        75.47057
850.03        75.61182
850.43        75.69923
850.84        75.64195
851.24        75.48188
851.65        75.20469
852.05        74.94039
852.46        74.77374
852.86        74.74191
853.27        74.84309
853.67         74.9521
854.07        75.00844
854.48        74.96181
854.88        74.86099
855.29        74.70486
855.69        74.64503
856.10        74.63199
856.50        74.71033
856.90            74.8
857.31         74.7986
857.71        74.75826
858.12        74.65639
858.52        74.57278
858.92        74.51524
859.33        74.47514
859.73        74.47281
860.13         74.5136
860.54        74.62064
860.94        74.83752
861.34        75.10544
861.75        75.28549
862.15        75.25716
862.55        74.95945
862.96        74.47129
863.36        73.92141
863.76        73.50034
864.17         73.2776
864.57        73.22548
864.97        73.33603
865.38        73.57101
865.78        73.94034
866.18        74.37405
866.58           74.74
866.99        74.81367
867.39        74.57413
867.79        74.04964
868.19        73.27753
868.60        72.30869
869.00        71.17949
869.40        69.96207
869.80        68.91563
870.21        68.44949
870.61        68.70908
871.01        69.52833
871.41        70.56838
871.81        71.27198
872.22        71.49857
872.62        71.39691
873.02        71.07824
873.42        70.95609
873.82        70.93993
874.22        70.40981
874.63        69.66029
875.03        69.40921
875.43        69.78417
875.83        71.58998
876.23        71.72474
876.63        71.28784
877.03        69.70943
877.44        67.12138
877.84        130.7712
878.24        67.05151
878.64        68.79526
879.04        73.20669
879.44        70.50841
879.84        68.83759
880.24        72.66692
880.64        72.29255
881.04        68.78288
881.44        66.58286
881.84         66.5237
882.24        67.84774
882.65        69.73879
883.05        70.64064
883.45        70.07065
883.85        68.82117
884.25        67.60313
884.65        67.19054
885.05        67.79221
885.45        69.11143
885.85        70.59943
886.25        71.37497
886.65        71.18458
887.05        70.31904
887.45        69.27254
887.85         68.7722
888.25        69.00516
888.65        69.75687
889.04        70.67329
889.44        71.07813
889.84        70.81702
890.24        70.10521
890.64        69.31247
891.04        68.97451
891.44        69.18439
891.84        69.72831
892.24        70.28514
892.64        70.32284
893.04        69.73776
893.44        68.80971
893.83        67.76426
894.23        66.93136
894.63        66.40009
895.03        66.04494
895.43        65.96056
895.83        66.31708
896.23        67.07913
896.63        68.18655
897.02        69.27303
897.42        69.65367
897.82        69.19575
898.22        68.11216
898.62        66.82827
899.01        66.00902
899.41          65.866
899.81        66.18816
900.21        66.80041
900.61        67.43101
901.00         67.9576
901.40        68.43185
901.80        68.83279
902.20        69.09743
902.59        69.22131
902.99        69.19814
903.39        69.01133
903.79        68.66307
904.18        68.18788
904.58        67.64764
904.98        67.23935
905.38        67.25902
905.77        67.72947
906.17        68.56293
906.57        69.43697
906.96         69.8659
907.36        69.69467
907.76         69.0498
908.15        68.26276
908.55        67.81567
908.95         67.8606
909.34        68.30492
909.74        68.80608
910.14        68.76357
910.53        68.04281
910.93        66.89896
911.33        65.86502
911.72        65.77817
912.12        66.73842
912.52        68.38304
912.91        70.10275
913.31          70.885
913.70        70.54606
914.10        69.37463
914.49        67.75581
914.89         66.5643
915.29        66.14457
915.68        66.23864
916.08        66.70081
916.47        67.30819
916.87        67.91161
917.26        68.58282
917.66        69.14171
918.05        69.31292
918.45        69.03773
918.84        68.44017
919.24        67.65421
919.64         66.9383
920.03         66.4158
920.42        66.03786
920.82        65.99716
921.21        66.53658
921.61        67.58305
922.00        69.07391
922.40        70.48291
922.79        71.18725
923.19        71.02084
923.58        69.94858
923.98        68.27391
924.37        67.29427
924.77        67.54353
925.16        65.29243
925.55        66.76432
925.95        66.69656
926.34        66.91608
926.74         67.2646
927.13        67.76283
927.52        68.22632
927.92        68.56875
928.31        68.89085
928.70        69.07287
929.10        68.97861
929.49        68.60245
929.89        67.96302
930.28        67.38002
930.67        67.36227
931.07        67.96481
931.46         69.0988
931.85         70.2437
932.24        70.61534
932.64        70.03901
933.03        68.62708
933.42        66.92703
933.82        66.06643
934.21        66.33611
934.60        67.39727
934.99        68.37924
935.39        68.38948
935.78         67.3041
936.17        64.83395
936.56        61.42308
936.96        62.13018
937.35        61.57672
937.74        63.88724
938.13        66.31673
938.53        67.95239
938.92        68.66496
939.31        68.80002
939.70        68.60983
940.09        68.39058
940.49        68.31918
940.88        68.30347
941.27        68.36882
941.66        68.61729
942.05        69.03152
942.44        69.56319
942.84           70.18
943.23        70.81309
943.62        71.37821
944.01          71.918
944.40         72.1673
944.79        71.71364
945.18        70.51348
945.57        68.64559
945.97        66.76749
946.36        66.03146
946.75         66.7841
947.14        68.62311
947.53        70.65048
947.92        71.62928
948.31        71.32706
948.70        70.10588
949.09        68.53378
949.48        67.61115
949.87         67.6487
950.26        68.32208
950.65        69.20449
951.04        69.59978
951.43         69.3055
951.82         68.5998
952.21        67.76022
952.60        67.19405
952.99        67.02831
953.38        67.08688
953.77        67.28564
954.16        67.51842
954.55        67.72005
954.94        67.95023
955.33        68.11933
955.72        68.05325
956.11          67.744
956.50        67.23792
956.89        66.72321
957.28        66.58404
957.66        66.91975
958.05         67.4878
958.44        68.13586
958.83        68.65347
959.22        68.97158
959.61         69.1991
960.00        69.13773
960.39        68.45502
960.78        67.17249
961.16        65.39372
961.55        63.75863
961.94        63.12203
962.33         63.6344
962.72        65.07296
963.11        66.77174
963.49        67.56113
963.88        67.03501
964.27         65.5765
964.66        63.82701
965.04        62.85979
965.43        62.97756
965.82        63.85334
966.21        65.06258
966.60        65.91911
966.98        66.21153
967.37        66.14182
967.76        65.95399
968.15        65.99879
968.53        66.37763
968.92        66.84234
969.31        67.24077
969.69        67.35711
970.08        67.07111
970.47         66.5284
970.86        65.77287
971.24        64.81557
971.63        63.78789
972.02        62.74658
972.40        61.85679
972.79        61.42241
973.17        61.53018
973.56        61.98009
973.95        62.74167
974.33        63.72015
974.72        64.66466
975.11        65.56928
975.49         66.0434
975.88        65.49816
976.26        63.92133
976.65        61.57082
977.04        59.05678
977.42         57.4478
977.81         57.1061
978.19        57.75326
978.58        59.07233
978.96        60.47672
979.35          61.625
979.74        62.73895
980.12        63.65864
980.51        63.87261
980.89        63.44641
981.28        62.39881
981.66        61.30686
982.05        61.03973
982.43        61.70359
982.82        63.04612
983.20        64.58788
983.59        65.15009
983.97        64.49784
984.35        62.91505
984.74        61.03395
985.12        59.73563
985.51         59.2844
985.89        59.40526
986.28        59.83417
986.66        60.09509
987.04        59.94352
987.43         59.6482
987.81        59.17158
988.20         58.4004
988.58        57.25088
988.96        55.53006
989.35        53.59629
989.73         52.6255
990.12         53.1858
990.50        55.00856
990.88        56.94635
991.27        57.65008
991.65         57.1419
992.03        55.75914
992.42         54.3528
992.80        54.51867
993.18        56.65487
993.56        59.91059
993.95        63.24622
994.33        65.68794
994.71        66.82231
995.10        67.02087
995.48        66.48032
995.86        65.38831
996.24        63.88833
996.63        61.88302
997.01        59.59712
997.39        57.90521
997.77        57.28382
998.15        57.59771
998.54        58.41014
998.92         59.1401
999.30         59.6469
999.68        60.11031
1000.06        60.22608
1000.45        59.34975
1000.83        57.61877
1001.21         55.4363
1001.59        53.58789
1001.97        52.59686
1002.35        52.29462
1002.73        52.49487
1003.12        52.84124
1003.50        52.64262
1003.88        51.62136
1004.26        50.15899
1004.64        48.59058
1005.02        47.29414
1005.40        46.39841
1005.78         45.7255
1006.16        45.68446
1006.54        46.97095
1006.92        49.27378
1007.30        51.91858
1007.69        53.98452
1008.07        54.78352
1008.45        54.12268
1008.83        51.96745
1009.21        47.93611
1009.59        42.64938
1009.97        37.74474
1010.35        34.10947
1010.73        32.96656
1011.11        34.61364
1011.49        38.31001
1011.86        43.79734
1012.24        48.75854
1012.62        51.24564
1013.00         51.1309
1013.38        49.10547
1013.76         46.2449
1014.14        44.49745
1014.52        44.46746
1014.90        45.54751
1015.28         47.0112
1015.66        47.62503
1016.04        46.93808
1016.41        45.36131
1016.79        43.17416
1017.17        41.16356
1017.55        39.97981
1017.93        39.40667
1018.31        39.37831
1018.69        39.89191
1019.06        40.77831
1019.44        41.80845
1019.82        42.70866
1020.20        42.64498
1020.58        41.29281
1020.95        39.03988
1021.33        35.87209
1021.71        30.80143
1022.09        22.48837
1022.46        6.784941
1022.84       -16.58112
1023.22       -24.45537
1023.60       -3.592658
1023.97        20.96563
1024.35        34.99809
1024.73        39.51603
