SpectraSmart Spectrum 2.9.0.0
--------- Device Information -----------
Spectrum Name :  反射率_0
Saving Time :  2024/04/20 00:58:29
Spectro-Module Model Name : SE2030-DUVN
Spectro-Module Serial Number : OS361AC55029948
Wavelength Start : 200
Wavelength End : 1025
Wavelength Unit : Wavelength(nm)
Spectrum Unit : Reflectance(%)
-----------Spectrum Setting ------------
Integration Time : 30ms
Average : 10
Boxcar : 0
Background removal :  enabled
linearity correction :  enabled
SC :  disabled
Intensity correction :  disabled
DWT denoise :  enabled
savitzky-golay :  disabled
FFT :  disabled
Running average :  disabled
Kalman :  disabled
High pass :  disabled
---------------BEGIN--------------------
Wavelength(nm)             Reflectance(%)
200.29               0
200.75        49.88589
201.21        47.26565
201.67        46.00307
202.13         48.2046
202.58        54.87252
203.04        66.38111
203.50        79.16696
203.96        83.55464
204.42        78.15604
204.88        68.57741
205.34        59.61827
205.80        53.35331
206.26        48.78082
206.72        44.23701
207.18        39.22654
207.64        35.39889
208.10        35.28419
208.55        39.16964
209.01        44.22406
209.47        48.52725
209.93        51.69717
210.39        53.95457
210.85        55.02758
211.31        54.71212
211.77         52.9549
212.23        49.43639
212.69         44.5985
213.14        41.67957
213.60        42.17318
214.06        45.03279
214.52        47.98863
214.98        49.70972
215.44        50.36173
215.90        50.12169
216.36         49.9901
216.81        51.86591
217.27        55.89698
217.73        61.26807
218.19        65.23215
218.65        64.21064
219.11         57.6146
219.57        45.76245
220.02        31.79099
220.48          24.185
220.94        26.00537
221.40        35.72446
221.86        47.52934
222.32        52.26783
222.77         48.0881
223.23        38.35199
223.69        28.41035
224.15        25.78986
224.61        30.43594
225.06        38.06612
225.52        44.83177
225.98        47.72158
226.44        46.71175
226.90        43.30513
227.36        38.63784
227.81        34.68422
228.27        32.71701
228.73         32.0183
229.19        32.35144
229.65        33.45502
230.10        34.97659
230.56        36.78591
231.02        38.57771
231.48        39.93924
231.93         40.7775
232.39        41.21874
232.85        41.17788
233.31        40.56833
233.77         39.4623
234.22        37.89928
234.68        36.31028
235.14        35.35899
235.60        35.24797
236.05        35.85239
236.51        36.80385
236.97        37.47699
237.43        37.73096
237.88        37.81641
238.34        37.81655
238.80        38.26187
239.26        39.29024
239.71        40.41645
240.17        41.47611
240.63        42.80885
241.08        44.48591
241.54        46.53669
242.00        47.86658
242.46        46.26752
242.91        40.52946
243.37           29.17
243.83        12.91233
244.28        2.073982
244.74        7.513791
245.20        27.73469
245.66        48.67692
246.11        58.08813
246.57        55.32392
247.03        41.76466
247.48        21.50912
247.94        15.84374
248.40        27.75441
248.85        42.38198
249.31        52.85456
249.77        57.90449
250.22        59.03662
250.68        58.05785
251.14         55.4773
251.59        52.10216
252.05        49.00713
252.51        46.09404
252.96        43.65943
253.42        42.54104
253.88         42.8618
254.33        44.32804
254.79        47.24083
255.25        51.57763
255.70        56.72718
256.16        61.96891
256.62        65.80171
257.07        66.58832
257.53        64.65278
257.99        60.80382
258.44        56.27609
258.90        53.37457
259.35        51.97349
259.81        51.71251
260.27        51.44119
260.72         50.1759
261.18        48.16315
261.63        45.44792
262.09        43.10562
262.55        42.14166
263.00        42.49313
263.46        43.73055
263.91        44.68092
264.37        44.18876
264.83        42.28946
265.28        39.48657
265.74        36.98914
266.19        36.07663
266.65        36.87412
267.11        38.68159
267.56        40.56646
268.02        41.19697
268.47        40.34317
268.93        38.47833
269.38        36.15132
269.84        34.48225
270.30        33.79084
270.75         33.7538
271.21        33.99733
271.66        33.97051
272.12        33.49973
272.57        32.77455
273.03        32.01452
273.48        31.44876
273.94        31.17729
274.39        31.07141
274.85        30.96296
275.31        30.60525
275.76        29.94653
276.22        29.09075
276.67        28.24981
277.13        27.82723
277.58        27.81507
278.04        28.09773
278.49        28.30993
278.95        27.98919
279.40        27.06711
279.86        25.81873
280.31        24.54315
280.77        23.78457
281.22        23.57642
281.68        23.74524
282.13         24.0538
282.59        24.18314
283.04        24.03805
283.50         23.7571
283.95        23.38337
284.41        23.00494
284.86        22.64323
285.32         22.2783
285.77         21.9601
286.22        21.83748
286.68        21.91006
287.13        22.11869
287.59        22.32662
288.04        22.30931
288.50        22.05095
288.95        21.60313
289.41        21.11865
289.86        20.76398
290.32        20.63091
290.77        20.64867
291.22        20.77612
291.68        20.91954
292.13        21.04974
292.59         21.2018
293.04        21.39497
293.50        21.66783
293.95        22.01471
294.40        22.40314
294.86        22.78968
295.31        23.12514
295.77        23.39824
296.22        23.62542
296.68        23.83382
297.13        24.04328
297.58        24.27675
298.04        24.53885
298.49        24.83059
298.95        25.18597
299.40        25.59208
299.85        26.03508
300.31         26.4876
300.76        26.90993
301.21        27.28395
301.67        27.63639
302.12        27.93532
302.58        28.18172
303.03        28.36633
303.48        28.50811
303.94        28.67956
304.39        28.95832
304.84        29.35962
305.30        29.84328
305.75        30.31079
306.20        30.62735
306.66        30.78055
307.11         30.8031
307.57         30.7721
308.02        30.74075
308.47          30.755
308.93        30.79059
309.38        30.85792
309.83        31.01535
310.29         31.2516
310.74        31.55288
311.19        31.81852
311.65        31.88571
312.10        31.72812
312.55        31.39774
313.00        31.02868
313.46        30.83039
313.91        30.83589
314.36        30.99578
314.82         31.2022
315.27        31.29909
315.72        31.23065
316.18        31.05747
316.63        30.83844
317.08        30.66817
317.53        30.57138
317.99         30.5052
318.44        30.44754
318.89        30.35698
319.35        30.22206
319.80        30.06677
320.25        29.89466
320.70        29.70746
321.16        29.50779
321.61        29.29498
322.06         29.0894
322.51        28.92988
322.97        28.81443
323.42        28.73483
323.87        28.64556
324.32        28.47722
324.78         28.2099
325.23        27.87328
325.68        27.49999
326.13         27.1514
326.59         26.8557
327.04        26.62309
327.49        26.44735
327.94        26.31752
328.39        26.22494
328.85        26.15354
329.30        26.13735
329.75        26.19057
330.20        26.29849
330.66        26.42083
331.11        26.50205
331.56        26.40842
332.01        26.11393
332.46        25.65463
332.92        25.12257
333.37        24.68267
333.82        24.39985
334.27        24.25777
334.72        24.20609
335.17        24.14751
335.63        24.04043
336.08        23.91228
336.53        23.81725
336.98        23.85159
337.43        24.02306
337.88        24.29381
338.34        24.50714
338.79         24.4602
339.24        24.10012
339.69        23.49069
340.14        22.85595
340.59        22.57149
341.05         22.7109
341.50        23.16621
341.95        23.69225
342.40        23.90573
342.85        23.71936
343.30        23.26675
343.75        22.71953
344.20        22.35848
344.66        22.26204
345.11        22.30544
345.56        22.42896
346.01        22.53888
346.46        22.58377
346.91        22.61449
347.36        22.55199
347.81        22.25977
348.26        21.74994
348.72        21.09745
349.17        20.46484
349.62        20.20525
350.07        20.39465
350.52        20.91047
350.97         21.5621
351.42        22.06141
351.87        22.31383
352.32        22.38656
352.77        22.31333
353.22        22.15554
353.67        21.95063
354.13        21.69145
354.58        21.39396
355.03        21.12801
355.48        20.92003
355.93        20.77958
356.38        20.70247
356.83        20.66579
357.28        20.65253
357.73        20.65272
358.18        20.65725
358.63        20.65286
359.08        20.62898
359.53        20.58811
359.98         20.4962
360.43        20.30494
360.88        20.02007
361.33        19.66368
361.78         19.3235
362.23        19.14279
362.68        19.14389
363.13        19.27036
363.58        19.42258
364.03        19.44521
364.48        19.29511
364.93        19.02045
365.38        18.66313
365.83        18.29943
366.28        17.97359
366.73        17.67305
367.18        17.42728
367.63        17.28005
368.08        17.23038
368.53        17.26542
368.98        17.33883
369.43        17.37088
369.88        17.34032
370.33        17.26817
370.78        17.16481
371.23        17.05663
371.68        16.95614
372.13        16.84403
372.58        16.75204
373.03        16.73679
373.48        16.79724
373.93        16.91396
374.38        17.00559
374.83        16.94394
375.28        16.71036
375.72        16.34271
376.17        15.95301
376.62        15.68162
377.07        15.57625
377.52        15.59532
377.97        15.69259
378.42         15.7946
378.87        15.86592
379.32        15.91635
379.77        15.94653
380.22        15.95571
380.67         15.9441
381.11        15.91302
381.56        15.83229
382.01        15.67654
382.46        15.44993
382.91        15.16219
383.36        14.89215
383.81         14.7533
384.26        14.76216
384.71        14.89557
385.15        15.03257
385.60        14.98588
386.05        14.72668
386.50        14.31508
386.95        13.91106
387.40        13.76771
387.85        13.92654
388.29        14.29029
388.74        14.68132
389.19        14.85426
389.64         14.7587
390.09        14.46966
390.54        14.11712
390.98        13.90318
391.43        13.89376
391.88        14.00913
392.33        14.14044
392.78        14.13383
393.23        13.96913
393.67        13.70456
394.12        13.45266
394.57        13.31457
395.02         13.3115
395.47        13.40232
395.91        13.52944
396.36        13.57945
396.81        13.52481
397.26        13.39641
397.71        13.25134
398.15        13.16167
398.60         13.1606
399.05         13.2151
399.50        13.27064
399.95        13.25052
400.39        13.13912
400.84        12.95857
401.29        12.77728
401.74        12.71977
402.18        12.81947
402.63        13.02682
403.08        13.23907
403.53        13.29218
403.97        13.15473
404.42        12.89093
404.87        12.60622
405.32        12.47498
405.76        12.53724
406.21        12.72879
406.66        12.96529
407.11        13.11562
407.55        13.14295
408.00        13.09472
408.45        12.99828
408.90        12.86723
409.34        12.73921
409.79        12.66658
410.24        12.64865
410.68        12.63243
411.13         12.6183
411.58        12.65122
412.03        12.70562
412.47        12.71634
412.92        12.66966
413.37        12.57813
413.81        12.49194
414.26         12.5017
414.71        12.61613
415.15        12.81446
415.60        13.00253
416.05         13.0497
416.49         12.9243
416.94        12.67676
417.39        12.40136
417.83        12.25045
418.28        12.26785
418.73        12.39623
419.17        12.56577
419.62        12.65549
420.07        12.63695
420.51        12.55089
420.96        12.43139
421.41        12.31387
421.85        12.21284
422.30         12.1253
422.74        12.06051
423.19        12.05686
423.64        12.10929
424.08        12.21695
424.53        12.32965
424.98        12.37839
425.42        12.34696
425.87        12.25922
426.31        12.14652
426.76        12.06803
427.21        12.03312
427.65        12.01734
428.10        12.03624
428.54        12.09396
428.99        12.18461
429.44        12.35898
429.88        12.53208
430.33        12.48405
430.77        12.25774
431.22        12.10882
431.66        12.08875
432.11         12.1396
432.56        12.25174
433.00         12.4759
433.45        12.67622
433.89        12.65143
434.34        12.47418
434.78         12.2743
435.23        12.05258
435.67        12.62607
436.12        12.23262
436.57        12.18481
437.01        12.00679
437.46        11.92248
437.90        11.94092
438.35        11.95988
438.79        11.96421
439.24        11.98325
439.68        12.01108
440.13        11.94208
440.57        11.82323
441.02         11.9232
441.46        12.12428
441.91        12.06628
442.35        11.50825
442.80        11.31174
443.24        11.36281
443.69        11.39723
444.13        11.37239
444.58        11.35321
445.02        11.33277
445.47        11.32595
445.91        11.32579
446.36        11.29553
446.80        11.23031
447.24        11.15292
447.69        11.07992
448.13        11.00986
448.58        10.95429
449.02        10.91594
449.47        10.88806
449.91        10.85369
450.36        10.81422
450.80        10.76842
451.25        10.74318
451.69        10.76694
452.13        10.84368
452.58        10.95364
453.02        11.05855
453.47        11.09631
453.91        11.05769
454.36        10.96169
454.80        10.84329
455.24        10.76432
455.69        10.74825
456.13        10.76288
456.58        10.80154
457.02        10.84791
457.46        10.89235
457.91        10.91599
458.35        10.91509
458.79        10.90552
459.24        10.88861
459.68        10.85941
460.13        10.86302
460.57        10.86326
461.01        10.85378
461.46        11.12146
461.90        11.22098
462.34        11.13039
462.79        11.21563
463.23        11.10902
463.68        11.00154
464.12        10.90881
464.56        10.93556
465.01        10.99273
465.45        11.05707
465.89        11.10208
466.34        11.12255
466.78        11.09419
467.22        11.04065
467.67        11.07864
468.11         11.1806
468.55        11.13122
468.99        10.97205
469.44        10.94831
469.88        11.07498
470.32        11.22201
470.77        11.33613
471.21        11.39435
471.65           11.38
472.10        11.30516
472.54        11.20496
472.98        11.16506
473.42        11.20313
473.87        11.26093
474.31        11.31949
474.75        11.41535
475.20         11.5161
475.64        11.50816
476.08        11.42931
476.52        11.43873
476.97        11.54582
477.41        11.67465
477.85        11.78669
478.29        11.85617
478.74        11.87213
479.18        11.82061
479.62         11.7516
480.06        11.74776
480.50        11.80876
480.95        11.85715
481.39        11.86632
481.83        11.85178
482.27        11.81212
482.72        11.74626
483.16        11.68741
483.60        11.68784
484.04        11.74301
484.48        11.91439
484.93        12.22027
485.37         12.3352
485.81        12.27239
486.25        12.92008
486.69        12.92603
487.14        12.60098
487.58        12.49647
488.02        13.49974
488.46         13.0139
488.90         13.1156
489.34        12.97463
489.79        13.08294
490.23        13.38483
490.67        13.56893
491.11        13.60353
491.55        13.50634
491.99         13.3368
492.43        13.26266
492.88        13.31827
493.32        13.38329
493.76        13.46356
494.20        13.62769
494.64        13.86964
495.08        14.15778
495.52        14.44196
495.96        14.65889
496.41        14.79297
496.85        14.83427
497.29        14.82751
497.73        14.91813
498.17        15.10436
498.61        15.21616
499.05        15.25752
499.49        15.38857
499.93        15.61272
500.37        15.79818
500.82        15.93729
501.26        16.15092
501.70        16.39532
502.14        16.45214
502.58         16.3511
503.02        16.32932
503.46        16.40686
503.90        16.46209
504.34        16.48087
504.78        16.49427
505.22        16.50175
505.66         16.5037
506.10        16.51221
506.54        16.54202
506.98        16.59836
507.42        16.67853
507.86        16.77777
508.30        16.88755
508.74        17.00001
509.18        17.11005
509.62        17.21492
510.06        17.31127
510.50        17.39859
510.94        17.48176
511.38         17.5463
511.82        17.57031
512.26         17.5536
512.70        17.50079
513.14        17.45624
513.58        17.48671
514.02        17.59531
514.46        17.76292
514.90        17.92559
515.34         17.9256
515.78        17.76397
516.22        17.56466
516.66        17.42266
517.10        17.13347
517.54        16.72328
517.98        17.35821
518.42        17.26709
518.86        17.53961
519.30        17.62811
519.74        17.71428
520.18        17.77643
520.62        17.75777
521.06        17.67722
521.50         17.5325
521.93        17.36814
522.37        17.26752
522.81        17.24878
523.25        17.29308
523.69        17.36228
524.13        17.39373
524.57        17.36888
525.01        17.30351
525.45        17.22256
525.89        17.16547
526.32        17.14158
526.76        17.13948
527.20         17.1309
527.64        17.07648
528.08        16.96861
528.52        16.81959
528.96        16.66936
529.40        16.57608
529.83        16.55057
530.27        16.58048
530.71        16.61251
531.15        16.56308
531.59        16.42027
532.03        16.21457
532.46        16.01275
532.90        15.93401
533.34        15.99224
533.78        16.14162
534.22        16.31239
534.66        16.39846
535.09        16.36874
535.53        16.26448
535.97        16.11777
536.41        15.97656
536.85        15.86502
537.28        15.77985
537.72        15.73607
538.16        15.70891
538.60        15.77335
539.04        15.85515
539.47        15.95246
539.91        16.06583
540.35        16.19518
540.79        16.20138
541.22        16.28935
541.66        16.33803
542.10        16.42669
542.54        16.29411
542.97        16.39442
543.41        16.46067
543.85        16.61627
544.29        16.80794
544.72        16.99199
545.16        17.14925
545.60        17.26395
546.04           17.29
546.47        17.29337
546.91        17.48936
547.35        17.83992
547.79        18.10467
548.22        18.24284
548.66        18.31636
549.10        18.35818
549.53        18.49961
549.97        18.75333
550.41         18.7937
550.84        18.96914
551.28         19.0923
551.72        19.28011
552.15        19.48758
552.59        19.71128
553.03        19.95081
553.46        20.16994
553.90        20.33364
554.34        20.43333
554.77        20.47781
555.21        20.50044
555.65        20.54348
556.08        20.61736
556.52        20.71379
556.96        20.81461
557.39        20.91766
557.83        21.01085
558.27        21.04611
558.70        21.05218
559.14        21.11429
559.57         21.2322
560.01        21.39011
560.45        21.53808
560.88        21.57234
561.32        21.52813
561.75        21.48464
562.19        21.55066
562.63        21.58816
563.06        21.62725
563.50        21.71423
563.93        21.83093
564.37        21.98774
564.80        22.07379
565.24        22.18571
565.68        22.28324
566.11        22.37895
566.55        22.49064
566.98        22.57081
567.42        22.61283
567.85        22.89454
568.29        22.82269
568.72        23.08926
569.16        23.45576
569.60        23.69028
570.03        23.76367
570.47        23.85785
570.90        23.86001
571.34         24.0643
571.77        23.86038
572.21        23.99874
572.64        24.32572
573.08        24.42229
573.51        24.67862
573.95        25.24924
574.38         25.2154
574.82        25.35568
575.25        25.38152
575.69        25.19826
576.12        25.10734
576.56        25.07977
576.99        25.20574
577.42        25.34802
577.86        25.37721
578.29        25.19668
578.73        25.63871
579.16        25.19661
579.60        24.89869
580.03        25.20998
580.47        25.28116
580.90        24.89341
581.33        24.66529
581.77        24.78199
582.20        24.86986
582.64        24.63163
583.07        24.14258
583.51        24.48842
583.94        24.12566
584.37        23.92966
584.81        23.71274
585.24        23.61521
585.68        23.69279
586.11         23.5172
586.54        23.35067
586.98        23.27915
587.41        23.37002
587.85        23.40444
588.28        23.33517
588.71        23.17321
589.15        22.99062
589.58         22.7917
590.01          22.975
590.45        23.26384
590.88        23.06011
591.31        22.99902
591.75        22.87418
592.18        22.99359
592.61        22.82904
593.05        23.04054
593.48        22.91467
593.91        23.40106
594.35        23.04553
594.78        23.16196
595.21        23.59611
595.65        23.89063
596.08         23.7041
596.51        23.75373
596.94        23.96016
597.38        24.12947
597.81        24.30044
598.24        24.39274
598.68        24.83902
599.11        25.04683
599.54        25.70191
599.97        25.53791
600.41        25.87056
600.84        26.28242
601.27        26.70324
601.70        27.01812
602.14        27.13921
602.57        27.48194
603.00        28.03814
603.43        28.49596
603.87        28.80596
604.30        29.14519
604.73        29.58164
605.16        29.63027
605.60         30.2181
606.03         30.6651
606.46        31.12128
606.89        31.57591
607.32        31.98909
607.76         32.0069
608.19        32.48344
608.62        32.75834
609.05        32.97147
609.48        33.11808
609.92        33.22876
610.35        33.52848
610.78        34.39717
611.21        34.89021
611.64        34.71642
612.07        34.97607
612.50        35.19248
612.94        35.03533
613.37        35.59605
613.80        35.88819
614.23        36.20892
614.66        36.67522
615.09         36.8965
615.52        37.15126
615.96        37.29818
616.39        37.48203
616.82        37.77415
617.25        37.61539
617.68        38.04805
618.11        38.32198
618.54        38.68007
618.97         38.7083
619.40        38.41982
619.84        38.76246
620.27        38.49981
620.70        38.78508
621.13        39.16251
621.56        39.32504
621.99        39.33784
622.42        39.40803
622.85        39.57891
623.28        39.66232
623.71        39.67022
624.14        39.78577
624.57        39.58434
625.00        39.66556
625.43        39.67958
625.86        39.02359
626.29        39.11573
626.72        38.90458
627.15        38.86439
627.58        38.82402
628.01        38.70814
628.44        38.84749
628.87        38.66906
629.30        38.15009
629.73        37.98928
630.16        37.74675
630.59        37.40572
631.02        37.15944
631.45        36.92858
631.88        36.67414
632.31        36.37174
632.74        36.13047
633.17        35.77936
633.60        35.41107
634.03        34.97919
634.46         34.4996
634.89        34.00318
635.32        33.54335
635.75        33.14028
636.18        32.78684
636.61        32.46279
637.04        32.12904
637.47        31.77368
637.89        31.40959
638.32        31.05349
638.75        30.75042
639.18         30.5114
639.61        30.32312
640.04        30.15402
640.47        29.95289
640.90        29.70912
641.33        29.44177
641.76        29.18361
642.18         28.9908
642.61        28.87377
643.04        28.81562
643.47        28.79816
643.90        28.79022
644.33        28.78288
644.76        28.79213
645.18        28.81544
645.61        28.85255
646.04        28.90567
646.47        28.96866
646.90        29.07228
647.33        29.27127
647.75        29.57539
648.18        29.95839
648.61        30.35897
649.04        30.71257
649.47        30.99192
649.89        31.13292
650.32        31.24179
650.75        31.61845
651.18        32.26932
651.61        32.91467
652.03        33.48705
652.46         34.1546
652.89        34.87134
653.32        35.21027
653.74        35.22048
654.17        35.90186
654.60        36.07304
655.03        36.89218
655.46        36.87244
655.88        38.43267
656.31        39.31478
656.74        44.67364
657.16        41.77364
657.59        38.27023
658.02        39.12347
658.45        39.95446
658.87        40.64047
659.30        41.33989
659.73        41.92903
660.15        42.14886
660.58        42.39937
661.01        42.28053
661.44        42.09936
661.86        42.35643
662.29        43.01009
662.72        43.67616
663.14        44.16735
663.57         44.1732
664.00        43.84624
664.42         43.8397
664.85        44.22679
665.27        44.55911
665.70        44.76451
666.13        45.04626
666.55        45.34045
666.98        45.39409
667.41        45.27655
667.83        45.30091
668.26        45.49382
668.69        45.70147
669.11        45.87874
669.54        46.00009
669.96        46.05399
670.39        46.09016
670.82        46.13636
671.24        46.15709
671.67        46.20857
672.09         46.4245
672.52        46.74992
672.94        47.01789
673.37        47.16064
673.80        47.08921
674.22        46.89194
674.65        46.84216
675.07        46.98498
675.50        47.15909
675.92        47.31297
676.35        47.40028
676.77        47.40547
677.20        47.35405
677.62         47.2765
678.05        47.22789
678.47        47.21906
678.90        47.23283
679.32        47.28115
679.75        47.36771
680.17        47.48222
680.60        47.68296
681.02        47.90773
681.45         47.8965
681.87        47.71165
682.30        47.70277
682.72         47.8802
683.15        47.96537
683.57        47.96523
684.00         47.9698
684.42        48.14559
684.85        48.24492
685.27        48.30361
685.70        48.41219
686.12        48.46021
686.54        48.54844
686.97        48.63803
687.39        48.72519
687.82        48.79245
688.24        48.83926
688.66        48.85901
689.09        48.85485
689.51        48.83664
689.94        48.80185
690.36        48.77522
690.78        48.73771
691.21        48.69633
691.63        48.77922
692.06        49.00959
692.48        48.97354
692.90         49.1305
693.33        49.52351
693.75        49.43493
694.17        49.59052
694.60        49.69836
695.02        49.59518
695.44        49.31548
695.87        49.21299
696.29        49.30077
696.71         49.2474
697.14        49.15701
697.56        49.42184
697.98        49.86883
698.41        50.48917
698.83        50.12191
699.25        49.95631
699.68        49.77168
700.10        49.66842
700.52        49.70778
700.94        49.83152
701.37        49.96621
701.79        50.16707
702.21        50.41756
702.64         50.1166
703.06        50.37601
703.48        50.38839
703.90        50.48793
704.33        50.62134
704.75        50.74885
705.17        50.76817
705.59        50.65478
706.01        50.45463
706.44        50.26012
706.86         50.2192
707.28        50.35622
707.70        50.61894
708.12        50.91174
708.55        51.07956
708.97        51.08331
709.39        50.97743
709.81        50.81752
710.23        50.70298
710.66        50.67301
711.08        50.70165
711.50        50.77329
711.92        50.86402
712.34        50.96126
712.76        51.10166
713.19        51.26034
713.61         51.3021
714.03        51.40755
714.45        51.41064
714.87        51.40697
715.29        51.44857
715.71        51.54697
716.13        51.68438
716.56        51.80474
716.98        51.87772
717.40         51.8677
717.82        51.79734
718.24        51.71025
718.66        51.66422
719.08        51.67349
719.50        51.76425
719.92        51.81835
720.34        51.84569
720.76        51.80829
721.19         51.7289
721.61        51.64128
722.03         51.5743
722.45        51.55876
722.87        51.57416
723.29        51.62318
723.71        51.70218
724.13        51.80803
724.55        51.94273
724.97        52.09619
725.39        52.25081
725.81        52.39436
726.23          52.516
726.65        52.61878
727.07        52.71585
727.49        52.80568
727.91         52.8814
728.33         52.9171
728.75        52.87333
729.17        52.74936
729.59         52.5667
730.01        52.37504
730.43        52.25368
730.85        52.22559
731.27         52.2676
731.69        52.35896
732.10        52.47368
732.52        52.58428
732.94        52.68994
733.36        52.77688
733.78        52.82153
734.20        52.83179
734.62        52.83099
735.04        52.81472
735.46        52.81137
735.88        52.82964
736.30        52.75499
736.72         52.6785
737.13        52.96159
737.55        53.46249
737.97        53.74246
738.39        53.71436
738.81        53.43035
739.23        53.05679
739.65        53.01195
740.06        53.20946
740.48        53.30111
740.90        53.28836
741.32        52.60838
741.74        52.87378
742.16        52.83993
742.57        52.98774
742.99        53.23189
743.41        53.50902
743.83        53.68578
744.25        53.71008
744.67        53.62152
745.08        53.47286
745.50        53.33855
745.92        53.26286
746.34        53.22427
746.75         53.2116
747.17         53.2068
747.59        53.20367
748.01        53.21642
748.42         53.2578
748.84        53.31882
749.26         53.4018
749.68        53.49273
750.09        53.57907
750.51        53.64252
750.93         53.6805
751.35        53.69959
751.76        53.69497
752.18        53.68045
752.60        53.65651
753.01        53.62373
753.43          53.602
753.85        53.65898
754.27        53.80023
754.68        54.01139
755.10        54.21072
755.52        54.27588
755.93        54.18903
756.35        53.99623
756.77        53.78499
757.18        53.71457
757.60        53.82578
758.02        54.01238
758.43        54.18246
758.85        54.42259
759.26        54.39198
759.68        54.37097
760.10        54.25613
760.51        54.10612
760.93        53.62379
761.34         53.5587
761.76        53.66295
762.18        53.66851
762.59         53.6311
763.01        53.38275
763.42        53.86143
763.84        54.16302
764.26        54.48842
764.67        54.47374
765.09        54.26723
765.50        54.51614
765.92        55.10884
766.33        55.20788
766.75         54.7827
767.16        54.54169
767.58        54.50698
768.00        54.34092
768.41        54.11362
768.83        54.05771
769.24        54.20499
769.66        54.52595
770.07          54.894
770.49        55.07615
770.90        55.05711
771.32        55.00606
771.73        54.97676
772.15        54.90402
772.56         54.8189
772.97        54.79405
773.39        54.77343
773.80        54.65812
774.22        54.42917
774.63        54.13503
775.05        53.89303
775.46        53.89703
775.88        54.16168
776.29         54.6558
776.70        55.17067
777.12         55.3754
777.53        55.19887
777.95        54.71778
778.36        54.15303
778.77        53.88093
779.19        54.00156
779.60        54.44397
780.02        54.95889
780.43        55.29944
780.84        55.38672
781.26        54.95031
781.67        54.31794
782.09        54.85692
782.50        56.22935
782.91           56.36
783.33        55.31542
783.74         54.9757
784.15        55.40919
784.57        55.48793
784.98        55.17024
785.39        54.98718
785.81        54.91774
786.22        54.66973
786.63        54.33249
787.04        54.20893
787.46        54.32138
787.87        54.53962
788.28        54.79494
788.70        55.00197
789.11        55.11726
789.52        55.15401
789.93        55.14964
790.35        55.18118
790.76        55.25246
791.17        55.28596
791.58        55.26412
792.00         55.1571
792.41        54.97261
792.82        54.85254
793.23        54.80085
793.65        54.52714
794.06        54.22319
794.47        54.51972
794.88        55.21278
795.29        55.71278
795.71        55.74677
796.12        55.12367
796.53        55.42952
796.94        55.14268
797.35        54.83199
797.76        54.75053
798.18        54.89623
798.59        55.02111
799.00        55.07547
799.41        55.23431
799.82        55.44617
800.23        55.54656
800.64        55.50963
801.06        55.35209
801.47        55.17609
801.88        55.10006
802.29        55.15248
802.70        55.28334
803.11        55.42655
803.52        55.47445
803.93        55.40747
804.34        55.27562
804.75        55.11117
805.17        55.01596
805.58        55.04504
805.99        54.97632
806.40        54.86701
806.81        55.30183
807.22        56.05561
807.63        55.98832
808.04        55.26966
808.45        55.17379
808.86        55.78698
809.27        56.39192
809.68        56.80561
810.09        57.04827
810.50        57.04135
810.91        56.78047
811.32        56.37179
811.73        55.98853
812.14        55.69682
812.55          55.475
812.96        55.31718
813.37        55.19629
813.78        55.11181
814.19        55.10058
814.60        55.15263
815.01        55.23537
815.42        55.33384
815.83        55.43151
816.24        55.52887
816.65        55.63324
817.05        55.74349
817.46        55.82548
817.87        55.85368
818.28        55.75244
818.69         55.5239
819.10        55.20002
819.51        54.89898
819.92        54.83015
820.33        55.04439
820.74        55.46748
821.14        55.97883
821.55        56.35125
821.96        56.52504
822.37        56.55463
822.78        56.47277
823.19        56.34106
823.60        56.19669
824.00        56.03481
824.41        55.86798
824.82        55.79361
825.23        55.82616
825.64        55.94493
826.04        56.11218
826.45        56.21751
826.86        56.24051
827.27        56.21301
827.68        56.12412
828.08         55.9754
828.49        55.74963
828.90        55.47234
829.31        55.23804
829.72        55.21365
830.12        55.44582
830.53        55.84117
830.94        56.28553
831.35        56.57924
831.75        56.68485
832.16        56.61787
832.57        56.44146
832.97        56.24945
833.38        56.07616
833.79         55.8945
834.20         55.7342
834.60        55.63347
835.01        55.61132
835.42        55.67785
835.82        55.77106
836.23         55.7336
836.64        55.55059
837.04        55.25224
837.45        54.95846
837.86        54.90332
838.26        55.13968
838.67        55.58075
839.08        56.03897
839.48        56.16462
839.89        55.87885
840.29        55.32129
840.70         54.7521
841.11        54.49831
841.51        54.65137
841.92        55.06547
842.33        55.64355
842.73        56.21779
843.14        56.62484
843.54        56.94916
843.95        57.10941
844.35        57.03626
844.76        56.75283
845.17        56.31499
845.57        55.84799
845.98        55.56707
846.38        55.52716
846.79        55.65343
847.19        55.97331
847.60        56.41765
848.00         56.9609
848.41        57.55602
848.81        58.06032
849.22        58.17734
849.62        57.89653
850.03         57.2497
850.43        56.49892
850.84        56.07854
851.24        56.15697
851.65        56.57317
852.05        57.14568
852.46        57.46096
852.86        57.41108
853.27        57.15184
853.67        56.75101
854.07        56.40344
854.48        56.15519
854.88        55.97324
855.29        55.83018
855.69        55.80982
856.10        55.85551
856.50        56.01297
856.90        56.24642
857.31        56.49142
857.71          56.766
858.12        57.01019
858.52         57.1774
858.92        57.10151
859.33         56.7573
859.73        56.20009
860.13         55.5922
860.54        55.26239
860.94        55.34522
861.34        55.73837
861.75        56.20149
862.15        56.41105
862.55        56.24377
862.96        55.84667
863.36        55.36095
863.76         55.0171
864.17          54.894
864.57        54.91994
864.97        55.11026
865.38        55.48835
865.78        56.06302
866.18        56.75771
866.58         57.3615
866.99        57.50406
867.39        57.11546
867.79        56.28757
868.19        55.18258
868.60        54.05569
869.00        52.99561
869.40        52.03144
869.80        51.34042
870.21        51.18124
870.61        51.63497
871.01        52.58091
871.41        53.72829
871.81        54.59922
872.22         55.0815
872.62         55.2684
873.02        55.19915
873.42        55.28981
873.82        55.33792
874.22        54.49125
874.63          53.235
875.03        52.67472
875.43        53.05427
875.83        55.59143
876.23         55.5604
876.63        54.84148
877.03        52.59419
877.44        49.10844
877.84          147.12
878.24        49.56059
878.64        51.67551
879.04        57.66304
879.44        52.56385
879.84        49.92945
880.24        56.99256
880.64        57.83412
881.04        54.03719
881.44        51.62454
881.84         51.4483
882.24        52.57416
882.65        54.30849
883.05        55.07958
883.45        54.43951
883.85        53.34448
884.25        52.40782
884.65        52.12189
885.05        52.64452
885.45        53.75245
885.85        54.98725
886.25        55.61979
886.65         55.4449
887.05        54.70945
887.45        53.80671
887.85        53.31986
888.25        53.40393
888.65        53.87583
889.04        54.51301
889.44        54.87992
889.84        54.85945
890.24        54.58904
890.64        54.22372
891.04        53.98359
891.44        53.90874
891.84        53.88553
892.24        53.82306
892.64        53.58734
893.04        53.17123
893.44        52.70527
893.83        52.20345
894.23        51.67209
894.63        51.13439
895.03        50.56653
895.43        50.16729
895.83        50.26999
896.23        50.90574
896.63        51.97412
897.02        53.06832
897.42        53.46133
897.82        52.99775
898.22        51.90975
898.62        50.67283
899.01         50.0247
899.41        50.15661
899.81        50.81181
900.21        51.70048
900.61        52.38578
901.00        52.71697
901.40        52.80307
901.80         52.7385
902.20        52.65007
902.59         52.6009
902.99         52.5633
903.39        52.46314
903.79        52.19956
904.18        51.77836
904.58        51.29068
904.98        50.98083
905.38        51.21328
905.77        52.00887
906.17        53.21709
906.57         54.4395
906.96         55.0783
907.36        54.94734
907.76        54.21849
908.15        53.27027
908.55        52.65997
908.95        52.57277
909.34        52.89278
909.74        53.31105
910.14        53.25701
910.53        52.59465
910.93        51.57128
911.33        50.66263
911.72        50.61461
912.12        51.50324
912.52        53.00266
912.91        54.54998
913.31        55.19509
913.70         54.7661
914.10        53.53228
914.49        51.87217
914.89        50.69338
915.29        50.33022
915.68        50.55056
916.08        51.11938
916.47        51.70709
916.87        52.14941
917.26        52.54738
917.66        52.87647
918.05        53.12183
918.45        53.26043
918.84        53.30833
919.24        53.16502
919.64        52.70134
920.03        51.95139
920.42        51.00369
920.82        50.24224
921.21        50.21213
921.61         50.9355
922.00        52.26608
922.40        53.63097
922.79        54.33561
923.19         54.2275
923.58        53.17484
923.98         51.4369
924.37         50.6334
924.77        51.37558
925.16        48.14726
925.55        50.31042
925.95        50.13231
926.34        50.39248
926.74        50.83927
927.13        51.48486
927.52        52.05421
927.92        52.42891
928.31        52.74412
928.70        52.92788
929.10        52.93126
929.49        52.74692
929.89        52.36972
930.28        52.01476
930.67        52.04078
931.07        52.47414
931.46        53.27856
931.85        54.04923
932.24        54.17567
932.64        53.53987
933.03        52.19471
933.42        50.62212
933.82        49.80232
934.21        49.98354
934.60        50.89783
934.99        51.69965
935.39        51.67931
935.78        50.76203
936.17        48.30545
936.56         44.6784
936.96        46.40655
937.35        45.54298
937.74        48.21398
938.13        50.82655
938.53        52.41523
938.92        52.86115
939.31        52.54721
939.70        51.88479
940.09        51.42031
940.49        51.41664
940.88        51.69331
941.27        52.13113
941.66        52.60843
942.05        53.04673
942.44        53.46873
942.84        53.88504
943.23        54.28411
943.62        54.62717
944.01        54.93478
944.40        54.98313
944.79        54.42913
945.18        53.24657
945.57        51.52127
945.97        49.86208
946.36        49.26601
946.75        50.04366
947.14        51.80437
947.53        53.72914
947.92        54.69852
948.31        54.49739
948.70        53.46652
949.09        52.06224
949.48        51.09272
949.87        50.84121
950.26         51.0539
950.65        51.50666
951.04        51.83743
951.43        51.90889
951.82        51.86786
952.21        51.75985
952.60        51.62739
952.99        51.48407
953.38         51.2582
953.77        50.97066
954.16        50.68154
954.55          50.408
954.94        50.18736
955.33        49.93985
955.72        49.50948
956.11        48.89286
956.50        48.14044
956.89        47.51013
957.28        47.47449
957.66        48.13467
958.05         49.2014
958.44        50.30158
958.83        50.94261
959.22        51.02308
959.61        50.69968
960.00        50.05701
960.39        49.28491
960.78         48.5198
961.16        47.69571
961.55          47.034
961.94         46.7612
962.33        46.89668
962.72        47.40873
963.11        47.99976
963.49        48.14038
963.88        47.64052
964.27         46.6776
964.66        45.60966
965.04        45.04168
965.43        45.13765
965.82        45.73279
966.21        46.54286
966.60        47.09513
966.98        47.26019
967.37        47.15646
967.76        47.01083
968.15        47.16883
968.53        47.70835
968.92        48.39911
969.31        49.03909
969.69        49.31415
970.08        49.08525
970.47        48.51122
970.86        47.67542
971.24         46.6626
971.63        45.63627
972.02        44.62727
972.40         43.7874
972.79        43.41912
973.17        43.59281
973.56        44.15615
973.95         45.0437
974.33        46.10729
974.72        47.09015
975.11        47.96221
975.49        48.42394
975.88        48.03597
976.26        46.78886
976.65        44.89447
977.04        42.75618
977.42        41.09188
977.81        40.20527
978.19        39.91934
978.58        40.20497
978.96        40.91544
979.35        41.89128
979.74        43.26768
980.12        44.71315
980.51        45.39979
980.89          45.265
981.28        44.40773
981.66         43.5282
982.05        43.63976
982.43        44.88324
982.82        46.89218
983.20        49.08196
983.59        50.11145
983.97        49.64656
984.35        48.04813
984.74        45.93999
985.12        44.17365
985.51        43.05642
985.89        42.27021
986.28        41.80281
986.66        41.61203
987.04        41.63302
987.43        41.96844
987.81        42.21562
988.20        41.74749
988.58        40.36283
988.96        37.89735
989.35        34.96083
989.73        33.32521
990.12        33.97288
990.50        36.40743
990.88        39.02337
991.27         39.9031
991.65        39.04919
992.03        36.95776
992.42        34.82598
992.80        34.84035
993.18        37.58476
993.56        41.89476
993.95        46.35979
994.33        49.58397
994.71         51.0288
995.10        51.21222
995.48        50.41308
995.86        48.90746
996.24        46.88172
996.63        44.20308
997.01         41.1482
997.39         38.9503
997.77        38.26262
998.15        38.90317
998.54        40.15034
998.92        41.12356
999.30        41.58685
999.68        41.74849
1000.06        41.46755
1000.45        40.59289
1000.83        39.36295
1001.21        37.95576
1001.59        36.76344
1001.97        36.02478
1002.35        35.58927
1002.73        35.32745
1003.12        35.11036
1003.50        34.63918
1003.88        33.87909
1004.26        33.11871
1004.64        32.27327
1005.02        31.10202
1005.40        29.61951
1005.78        27.78334
1006.16        26.49264
1006.54        27.47336
1006.92        30.56084
1007.30         34.4841
1007.69        37.69308
1008.07        38.92331
1008.45        37.80362
1008.83        34.36588
1009.21        27.84553
1009.59        18.76318
1009.97         9.56227
1010.35        1.881165
1010.73       -1.523988
1011.11        0.659082
1011.49         7.20179
1011.86        17.24975
1012.24        26.68467
1012.62        31.55807
1013.00        31.50642
1013.38        27.75638
1013.76        22.40261
1014.14        19.18252
1014.52        19.26435
1014.90         21.6824
1015.28        24.60893
1015.66        24.91115
1016.04        21.61234
1016.41        15.45672
1016.79        8.676802
1017.17        6.113194
1017.55        9.286835
1017.93        15.60401
1018.31        22.02972
1018.69         26.0843
1019.06        27.54512
1019.44        26.98281
1019.82        24.67984
1020.20        21.27365
1020.58        17.40004
1020.95         13.2429
1021.33        8.332529
1021.71       0.4245023
1022.09       -12.94102
1022.46       -37.84457
1022.84        -74.7256
1023.22       -87.81866
1023.60       -55.80408
1023.97       -17.62696
1024.35        4.462182
1024.73        12.23964
