SpectraSmart Spectrum 2.9.0.0
--------- Device Information -----------
Spectrum Name :  反射率_0
Saving Time :  2024/04/20 00:52:17
Spectro-Module Model Name : SE2030-DUVN
Spectro-Module Serial Number : OS361AC55029948
Wavelength Start : 200
Wavelength End : 1025
Wavelength Unit : Wavelength(nm)
Spectrum Unit : Reflectance(%)
-----------Spectrum Setting ------------
Integration Time : 30ms
Average : 10
Boxcar : 0
Background removal :  enabled
linearity correction :  enabled
SC :  disabled
Intensity correction :  disabled
DWT denoise :  enabled
savitzky-golay :  disabled
FFT :  disabled
Running average :  disabled
Kalman :  disabled
High pass :  disabled
---------------BEGIN--------------------
Wavelength(nm)             Reflectance(%)
200.29               0
200.75        60.05786
201.21        60.59386
201.67        63.55836
202.13        69.66536
202.58        78.90514
203.04        91.60764
203.50        103.4729
203.96        104.4687
204.42        94.91614
204.88        81.71334
205.34        70.48534
205.80        63.54981
206.26        59.67023
206.72        57.25889
207.18        56.52135
207.64        58.59584
208.10        63.49736
208.55        70.33384
209.01        75.48245
209.47        77.24271
209.93        76.22882
210.39        73.12661
210.85        69.39491
211.31        66.64685
211.77        64.93486
212.23        63.72749
212.69        62.61074
213.14        61.18522
213.60        59.47559
214.06        58.63754
214.52        58.50131
214.98        58.76572
215.44        59.28016
215.90        59.78656
216.36        60.61535
216.81        62.29503
217.27        64.62684
217.73        67.47665
218.19        69.37634
218.65        68.38963
219.11        64.24467
219.57        56.92517
220.02        48.61852
220.48        45.39675
220.94        49.07325
221.40          58.481
221.86         68.7226
222.32        72.29636
222.77        67.84267
223.23        58.22113
223.69        48.39661
224.15        45.40549
224.61        49.29578
225.06        56.22724
225.52        62.58994
225.98        65.38097
226.44        64.56857
226.90        61.51897
227.36        57.46516
227.81        54.51643
228.27        53.75119
228.73        54.21489
229.19        55.24807
229.65        56.11931
230.10        56.58809
230.56        56.98166
231.02        57.30775
231.48        57.56786
231.93        57.70711
232.39        57.65501
232.85        57.36375
233.31        56.84215
233.77        56.10015
234.22        55.19034
234.68        54.08224
235.14         52.6421
235.60        50.98184
236.05         49.2698
236.51        47.84686
236.97        47.13129
237.43        47.26213
237.88        48.41235
238.34        50.39234
238.80        52.58419
239.26        54.26389
239.71        55.20511
240.17        55.51751
240.63        56.16953
241.08        57.49705
241.54        59.18518
242.00        60.49861
242.46        60.00348
242.91        56.95662
243.37        50.62493
243.83        41.67714
244.28        36.48593
244.74        41.20967
245.20        54.42289
245.66        67.36713
246.11        72.87227
246.57        70.46771
247.03        60.78313
247.48        46.14436
247.94        40.77735
248.40        47.45668
248.85         56.6422
249.31        63.39566
249.77        66.50472
250.22        66.90233
250.68        65.77339
251.14        63.69903
251.59         61.8251
252.05        61.09279
252.51        61.19664
252.96         61.5152
253.42        61.29491
253.88        60.34747
254.33        59.06578
254.79        58.61988
255.25        59.74487
255.70        62.09488
256.16        64.94841
256.62        67.06361
257.07        67.07443
257.53         65.1892
257.99        61.94682
258.44        58.25074
258.90        55.99395
259.35        54.88888
259.81        54.67261
260.27        54.27871
260.72        52.78963
261.18        50.48708
261.63        47.41876
262.09        44.63504
262.55        43.12178
263.00        42.88462
263.46        43.55449
263.91        44.08125
264.37        43.44081
264.83        41.63453
265.28        39.07848
265.74        36.84834
266.19        36.04294
266.65        36.76865
267.11        38.40855
267.56        40.09687
268.02        40.59138
268.47        39.69045
268.93        37.82796
269.38        35.57526
269.84        34.09322
270.30        33.67976
270.75        33.97969
271.21        34.52399
271.66        34.62028
272.12        34.07719
272.57        33.14018
273.03        32.09795
273.48        31.29715
273.94        30.88126
274.39        30.68343
274.85         30.5568
275.31        30.28147
275.76        29.79003
276.22        29.18241
276.67        28.56923
277.13        28.19821
277.58        28.05274
278.04        28.07672
278.49        28.04136
278.95        27.68606
279.40        26.96071
279.86        26.04633
280.31         25.1242
280.77        24.57479
281.22        24.39726
281.68        24.48694
282.13        24.64666
282.59        24.61659
283.04        24.33211
283.50        23.91356
283.95        23.43921
284.41        23.05191
284.86        22.77045
285.32        22.55704
285.77        22.39337
286.22        22.31941
286.68        22.31474
287.13        22.35388
287.59        22.36045
288.04        22.19938
288.50        21.87226
288.95        21.39959
289.41        20.89919
289.86        20.48299
290.32        20.23498
290.77        20.11818
291.22        20.11374
291.68        20.15582
292.13        20.22737
292.59         20.3507
293.04        20.56125
293.50        20.92183
293.95        21.42514
294.40        22.03397
294.86        22.65854
295.31         23.1757
295.77        23.56377
296.22        23.86122
296.68        24.16055
297.13        24.58837
297.58         25.1897
298.04        25.93385
298.49        26.75245
298.95        27.57165
299.40        28.35306
299.85        29.11966
300.31        29.89255
300.76        30.70333
301.21        31.54801
301.67        32.41784
302.12        33.25353
302.58        34.03102
303.03        34.72386
303.48        35.36336
303.94        36.00708
304.39        36.70138
304.84        37.46006
305.30        38.24765
305.75        38.99281
306.20        39.61289
306.66         40.1059
307.11        40.48494
307.57        40.79241
308.02        41.01494
308.47        41.19226
308.93        41.32321
309.38        41.45864
309.83        41.73056
310.29        42.14101
310.74        42.64557
311.19        43.09766
311.65        43.26026
312.10        43.08826
312.55        42.66496
313.00        42.16496
313.46         41.8582
313.91        41.79538
314.36        41.91018
314.82        42.08197
315.27        42.13711
315.72        42.01214
316.18        41.78389
316.63        41.50326
317.08        41.25595
317.53        41.06626
317.99        40.88736
318.44        40.71726
318.89        40.54885
319.35         40.3739
319.80        40.20431
320.25        40.00945
320.70        39.73682
321.16        39.37657
321.61        38.94989
322.06        38.50831
322.51        38.14268
322.97         37.8701
323.42        37.67492
323.87        37.50024
324.32        37.25753
324.78        36.91595
325.23        36.51291
325.68        36.08243
326.13        35.68956
326.59        35.35855
327.04        35.09534
327.49        34.87413
327.94        34.65962
328.39        34.43649
328.85        34.18963
329.30        33.98585
329.75        33.88263
330.20        33.88517
330.66        33.95239
331.11        34.00306
331.56        33.85152
332.01        33.46011
332.46        32.87362
332.92        32.22976
333.37        31.78131
333.82        31.60437
334.27        31.65389
334.72        31.79229
335.17        31.77637
335.63        31.52403
336.08        31.10776
336.53        30.67598
336.98        30.48846
337.43        30.60223
337.88        30.93706
338.34        31.26236
338.79        31.25396
339.24        30.82367
339.69        30.07589
340.14        29.28639
340.59        28.91612
341.05        29.06088
341.50         29.5726
341.95        30.16729
342.40        30.40732
342.85        30.19125
343.30        29.67976
343.75        29.05122
344.20        28.59543
344.66        28.40202
345.11        28.33873
345.56        28.38184
346.01        28.49638
346.46        28.63253
346.91        28.81994
347.36        28.90698
347.81        28.64499
348.26         28.0235
348.72        27.14766
349.17        26.25311
349.62        25.81736
350.07        25.95157
350.52        26.49665
350.97        27.20314
351.42        27.69144
351.87         27.8463
352.32        27.76992
352.77         27.5374
353.22        27.27297
353.67        27.03151
354.13        26.78091
354.58        26.51036
355.03        26.25461
355.48        26.02584
355.93        25.84277
356.38        25.70837
356.83        25.60891
357.28        25.53179
357.73        25.46557
358.18        25.39367
358.63        25.29465
359.08        25.15951
359.53        24.99369
359.98        24.78823
360.43        24.52961
360.88         24.2253
361.33        23.88704
361.78        23.55844
362.23        23.31199
362.68        23.16042
363.13        23.07367
363.58        23.00766
364.03        22.89183
364.48        22.69972
364.93        22.44961
365.38        22.14095
365.83        21.77919
366.28        21.38619
366.73        20.97449
367.18        20.59202
367.63        20.31008
368.08        20.14263
368.53        20.07022
368.98        20.05447
369.43        20.02957
369.88        19.97279
370.33         19.8995
370.78        19.80934
371.23        19.70692
371.68        19.59785
372.13        19.47154
372.58        19.35179
373.03        19.28547
373.48        19.27406
373.93        19.29624
374.38        19.30613
374.83        19.23111
375.28        19.05424
375.72        18.79257
376.17        18.49575
376.62        18.20216
377.07        17.94294
377.52        17.71876
377.97        17.55012
378.42        17.46609
378.87        17.46135
379.32        17.51526
379.77        17.60148
380.22        17.67731
380.67        17.72559
381.11        17.76049
381.56        17.74342
382.01        17.63318
382.46        17.42948
382.91        17.13789
383.36        16.84966
383.81          16.704
384.26        16.72204
384.71        16.87287
385.15        17.02242
385.60        16.96364
386.05        16.66336
386.50        16.19106
386.95        15.71769
387.40        15.51227
387.85        15.62453
388.29        15.95606
388.74         16.3272
389.19        16.48521
389.64         16.3779
390.09        16.08084
390.54        15.73295
390.98        15.54855
391.43        15.59313
391.88        15.77932
392.33         15.9758
392.78        15.99842
393.23        15.82391
393.67        15.51917
394.12        15.22734
394.57        15.08678
395.02        15.12691
395.47        15.30031
395.91        15.52161
396.36        15.62349
396.81        15.56691
397.26        15.39973
397.71        15.22134
398.15        15.16568
398.60        15.27324
399.05        15.48004
399.50        15.68813
399.95        15.76151
400.39        15.67251
400.84         15.4636
401.29        15.22613
401.74        15.12443
402.18        15.21047
402.63        15.42653
403.08        15.66471
403.53        15.75222
403.97         15.6543
404.42        15.43915
404.87        15.21623
405.32        15.16371
405.76        15.31704
406.21        15.60495
406.66        15.92669
407.11        16.12894
407.55        16.17084
408.00        16.10671
408.45        15.97847
408.90        15.81858
409.34        15.67814
409.79         15.6223
410.24        15.63819
410.68        15.63953
411.13        15.62471
411.58        15.65514
412.03        15.71908
412.47        15.76868
412.92        15.79137
413.37        15.78951
413.81        15.79667
414.26         15.8817
414.71        16.04646
415.15        16.27596
415.60        16.47873
416.05        16.53287
416.49        16.40997
416.94        16.15516
417.39        15.86795
417.83        15.70861
418.28        15.72349
418.73        15.85847
419.17        16.03304
419.62        16.10858
420.07        16.05724
420.51        15.92892
420.96        15.78262
421.41        15.68883
421.85        15.66538
422.30         15.6954
422.74        15.76211
423.19        15.87245
423.64        16.01081
424.08        16.18464
424.53         16.3472
424.98         16.4408
425.42        16.45139
425.87         16.3947
426.31        16.29791
426.76        16.21621
427.21        16.15835
427.65        16.10529
428.10        16.08038
428.54          16.096
428.99        16.15438
429.44        16.32412
429.88        16.50862
430.33        16.44374
430.77        16.18378
431.22        16.05724
431.66        16.10874
432.11         16.2212
432.56        16.37084
433.00        16.63289
433.45        16.85086
433.89        16.79875
434.34        16.58704
434.78        16.38125
435.23        16.15705
435.67        16.94465
436.12        16.43353
436.57         16.3451
437.01        16.08102
437.46        15.97346
437.90        16.04316
438.35        16.14207
438.79        16.21938
439.24        16.26835
439.68        16.27246
440.13        16.10398
440.57        15.86715
441.02         15.9839
441.46        16.30891
441.91        16.33851
442.35        15.69494
442.80        15.48031
443.24        15.53619
443.69        15.51904
444.13        15.41483
444.58        15.37683
445.02        15.41119
445.47        15.51553
445.91        15.63912
446.36         15.6647
446.80        15.57095
447.24        15.41291
447.69         15.2493
448.13        15.13687
448.58         15.1014
449.02        15.12193
449.47        15.16387
449.91        15.16385
450.36        15.11299
450.80        15.03224
451.25        14.95867
451.69        14.93158
452.13        14.96438
452.58        15.02984
453.02        15.11183
453.47        15.18775
453.91        15.24823
454.36        15.29992
454.80        15.32522
455.24        15.29439
455.69        15.21491
456.13        15.08353
456.58         14.9584
457.02        14.91723
457.46        14.96946
457.91        15.05462
458.35        15.13593
458.79        15.19337
459.24        15.21121
459.68        15.20173
460.13        15.21915
460.57        15.20068
461.01        15.13935
461.46        15.44124
461.90        15.51019
462.34        15.36659
462.79        15.52291
463.23        15.45796
463.68        15.40872
464.12        15.35082
464.56        15.41386
465.01        15.49113
465.45        15.55859
465.89        15.59506
466.34         15.6002
466.78        15.53146
467.22        15.43552
467.67        15.49834
468.11        15.68346
468.55        15.68328
468.99        15.52381
469.44        15.50021
469.88        15.62467
470.32        15.73145
470.77        15.78141
471.21        15.79544
471.65        15.76638
472.10        15.69204
472.54        15.60675
472.98        15.60052
473.42        15.68498
473.87        15.78703
474.31        15.87569
474.75        15.99902
475.20        16.11345
475.64        16.06185
476.08        15.90609
476.52        15.88156
476.97        16.00649
477.41        16.17331
477.85        16.33159
478.29        16.44782
478.74        16.50507
479.18        16.48347
479.62        16.44196
480.06         16.4793
480.50        16.59188
480.95        16.67434
481.39        16.69995
481.83        16.70715
482.27        16.69763
482.72        16.66445
483.16        16.63571
483.60        16.65871
484.04         16.7393
484.48         16.9112
484.93        17.20044
485.37        17.34212
485.81        17.47557
486.25        17.91821
486.69        18.46849
487.14        17.95629
487.58        17.61233
488.02        18.49037
488.46        18.04282
488.90        18.18322
489.34         18.0101
489.79        18.13357
490.23        18.48139
490.67        18.66703
491.11        18.68615
491.55        18.67041
491.99        18.65977
492.43        18.68331
492.88        18.75981
493.32        18.84773
493.76        18.96167
494.20        19.14104
494.64        19.38273
495.08         19.6888
495.52        20.00243
495.96        20.19438
496.41         20.2777
496.85        20.36383
497.29        20.47778
497.73        20.64549
498.17        20.84421
498.61        20.92609
499.05         20.9142
499.49        21.02081
499.93        21.26048
500.37        21.45654
500.82        21.60065
501.26         21.8567
501.70        22.16541
502.14        22.23186
502.58        22.09595
503.02        22.07585
503.46         22.1961
503.90        22.29067
504.34        22.33336
504.78        22.35666
505.22        22.35769
505.66        22.33817
506.10        22.32398
506.54        22.35137
506.98        22.43091
507.42        22.55444
507.86        22.70434
508.30         22.8507
508.74        22.97882
509.18        23.08793
509.62        23.18539
510.06        23.28403
510.50        23.38724
510.94        23.49577
511.38        23.58189
511.82        23.60269
512.26        23.55531
512.70        23.45275
513.14        23.36063
513.58        23.37766
514.02        23.51275
514.46         23.7363
514.90        23.96225
515.34        23.99026
515.78        23.82786
516.22        23.58949
516.66        23.38757
517.10        23.06175
517.54        22.64829
517.98        23.22437
518.42        23.14017
518.86        23.40114
519.30        23.49481
519.74        23.59058
520.18        23.67174
520.62        23.68979
521.06        23.65954
521.50        23.57415
521.93        23.45788
522.37        23.36261
522.81        23.30286
523.25        23.27225
523.69        23.25918
524.13        23.24252
524.57        23.21399
525.01        23.17665
525.45        23.13999
525.89        23.11737
526.32        23.10904
526.76         23.1129
527.20        23.10128
527.64        23.03583
528.08        22.91154
528.52        22.73832
528.96        22.56642
529.40         22.4712
529.83        22.46559
530.27         22.5352
530.71        22.61023
531.15        22.58098
531.59        22.42994
532.03        22.19447
532.46        21.95945
532.90        21.87535
533.34         21.9613
533.78        22.16169
534.22        22.38544
534.66        22.49391
535.09        22.44894
535.53        22.30421
535.97        22.11258
536.41        21.95435
536.85        21.86037
537.28        21.81803
537.72        21.82471
538.16        21.80947
538.60        21.87028
539.04        21.91957
539.47        21.97344
539.91        22.06293
540.35        22.19791
540.79        22.17771
541.22        22.28787
541.66        22.37031
542.10         22.5296
542.54        22.40646
542.97        22.59719
543.41        22.68928
543.85         22.8457
544.29        23.00433
544.72        23.14439
545.16        23.30124
545.60        23.46486
546.04        23.55404
546.47        23.61881
546.91        23.88982
547.35        24.30187
547.79        24.54428
548.22        24.60107
548.66        24.62895
549.10        24.67584
549.53        24.86608
549.97        25.20094
550.41        25.24848
550.84         25.4633
551.28        25.59755
551.72        25.81775
552.15        26.02807
552.59        26.21725
553.03        26.61115
553.46        26.76435
553.90        26.94282
554.34        27.02087
554.77         27.0268
555.21        27.01226
555.65        27.05387
556.08        27.16987
556.52        27.33111
556.96        27.50627
557.39        27.68033
557.83        27.83003
558.27        27.89667
558.70        27.90026
559.14        27.92874
559.57        27.98502
560.01         28.0608
560.45         28.1345
560.88        28.13839
561.32        28.12775
561.75        28.18243
562.19         28.4016
562.63        28.53447
563.06         28.6007
563.50        28.68232
563.93        28.77683
564.37        28.93429
564.80         29.0203
565.24          29.148
565.68        29.26093
566.11        29.37355
566.55        29.50572
566.98        29.59858
567.42        29.63517
567.85        29.97593
568.29        29.85295
568.72        30.15911
569.16        30.57949
569.60        30.94376
570.03        31.02468
570.47        31.13697
570.90        31.09825
571.34        31.49027
571.77        31.30424
572.21         31.6257
572.64        31.74409
573.08        31.92525
573.51        31.87411
573.95        32.48434
574.38        32.75874
574.82        33.06236
575.25        33.13261
575.69         32.9416
576.12        32.84304
576.56        32.76367
576.99        32.76363
577.42        33.29336
577.86        32.95122
578.29        32.97105
578.73        33.36754
579.16        33.02788
579.60        32.74918
580.03        32.73201
580.47        32.77261
580.90        32.49179
581.33        32.28333
581.77        32.47258
582.20        33.02274
582.64         32.4142
583.07        32.02808
583.51        31.85605
583.94        31.42085
584.37        31.51152
584.81         31.0901
585.24        31.09569
585.68        31.21202
586.11        31.04838
586.54        30.90607
586.98        30.78133
587.41         30.7947
587.85         30.8678
588.28        30.92923
588.71        30.76328
589.15        30.44672
589.58        30.19622
590.01        30.42715
590.45        30.65818
590.88        30.69284
591.31         30.5651
591.75        30.25074
592.18        30.39371
592.61        30.28054
593.05        30.79832
593.48         30.6996
593.91        31.22543
594.35        30.70965
594.78        30.99932
595.21        31.27613
595.65        31.66109
596.08        31.47397
596.51        31.49164
596.94        31.62065
597.38        31.78144
597.81         32.0388
598.24        32.11092
598.68        32.97435
599.11        32.97395
599.54        34.01327
599.97        33.99455
600.41        33.90033
600.84        34.68118
601.27        35.00476
601.70        35.34345
602.14        35.70038
602.57         36.1007
603.00        36.65448
603.43        37.15948
603.87        37.61422
604.30        37.98526
604.73        38.30861
605.16          38.757
605.60        39.43861
606.03        39.78398
606.46        40.17252
606.89        40.94237
607.32        41.34146
607.76        41.39145
608.19        41.80182
608.62        42.29848
609.05        42.31059
609.48        42.60584
609.92        43.17828
610.35        43.09256
610.78        44.04402
611.21        44.82891
611.64        44.38062
612.07        45.06031
612.50        45.25834
612.94         45.1394
613.37        45.82956
613.80        46.15866
614.23        46.52326
614.66        47.01553
615.09         47.2266
615.52        47.57716
615.96        47.89357
616.39        48.13516
616.82        48.35229
617.25        48.41175
617.68        48.71494
618.11        49.12809
618.54        49.35163
618.97        49.34568
619.40        49.07645
619.84        49.14613
620.27        48.95526
620.70        49.40174
621.13        50.11206
621.56        50.27872
621.99        50.02607
622.42        50.05629
622.85        50.45504
623.28        50.65715
623.71        50.58506
624.14        50.87667
624.57        50.60942
625.00        50.37375
625.43        50.48796
625.86         50.0766
626.29        49.87374
626.72        49.73529
627.15        49.60569
627.58        49.61022
628.01        49.58633
628.44        49.52005
628.87        49.20732
629.30        48.77679
629.73        48.27835
630.16         47.9897
630.59        47.93505
631.02        47.66246
631.45        47.17773
631.88        46.76678
632.31        46.42935
632.74          45.982
633.17        45.44344
633.60         44.9425
634.03        44.49645
634.46        44.07309
634.89        43.65603
635.32         43.2176
635.75         42.7547
636.18        42.28872
636.61        41.83818
637.04        41.42324
637.47        41.04572
637.89        40.70138
638.32        40.38464
638.75        40.06768
639.18        39.74134
639.61        39.49746
640.04        39.34142
640.47        38.84981
640.90         38.7024
641.33        38.36425
641.76        38.07634
642.18        37.88967
642.61        37.81463
643.04        37.82298
643.47         37.8684
643.90        37.89181
644.33        37.87496
644.76        37.84457
645.18        37.81609
645.61        37.81642
646.04        37.86142
646.47        37.94065
646.90        38.08392
647.33        38.34493
647.75         38.7243
648.18        39.18597
648.61        39.66874
649.04        40.09578
649.47        40.43916
649.89        40.67672
650.32        40.87547
650.75        41.22746
651.18        41.78499
651.61        42.35438
652.03         42.9264
652.46        43.84573
652.89        44.93954
653.32        45.27911
653.74        45.06543
654.17        45.64038
654.60        46.40347
655.03        47.83823
655.46        46.96486
655.88        49.03573
656.31        50.18372
656.74         57.1706
657.16        53.85541
657.59        49.39204
658.02        50.17953
658.45        51.20742
658.87        52.25724
659.30        52.47402
659.73        53.56304
660.15        53.85551
660.58        54.00194
661.01        53.89642
661.44        53.77683
661.86        54.17786
662.29        55.01154
662.72        55.80168
663.14        56.35337
663.57        56.42966
664.00        56.19204
664.42        56.23658
664.85        56.64131
665.27        57.01803
665.70         57.2837
666.13         57.5202
666.55        57.71243
666.98        57.84026
667.41        57.94527
667.83        58.07126
668.26        58.22392
668.69        58.42738
669.11         58.6725
669.54        58.78149
669.96        58.98565
670.39        59.12871
670.82        59.29991
671.24        59.42113
671.67        59.52926
672.09        59.82979
672.52        60.23223
672.94        60.35437
673.37         60.2177
673.80        60.12218
674.22        60.14432
674.65        60.19665
675.07        60.31031
675.50        60.54585
675.92        60.83366
676.35        60.98473
676.77        60.97205
677.20        60.85219
677.62        60.70587
678.05        60.66952
678.47         60.7738
678.90        60.98306
679.32        61.23069
679.75        61.41198
680.17        61.49235
680.60         61.5145
681.02        61.53622
681.45        61.57141
681.87        61.66526
682.30        61.94292
682.72        62.31387
683.15        62.38045
683.57        62.19508
684.00        62.13607
684.42        62.36471
684.85        62.50431
685.27        62.58958
685.70        62.79478
686.12        63.06062
686.54        63.22248
686.97        63.25636
687.39        63.21127
687.82        63.11704
688.24        63.08208
688.66        63.13116
689.09        63.10404
689.51        63.26361
689.94         63.3306
690.36        63.36127
690.78        63.51908
691.21        63.83642
691.63        63.58657
692.06        63.99929
692.48         64.1506
692.90         64.0116
693.33        64.45497
693.75        64.26646
694.17        64.39422
694.60        64.47281
695.02        64.34193
695.44        64.04848
695.87        64.09991
696.29        64.45257
696.71        64.33915
697.14         63.9492
697.56        64.31234
697.98        65.22614
698.41        65.78283
698.83        65.60201
699.25        65.16489
699.68        65.16016
700.10        65.07117
700.52         65.1475
700.94        65.37418
701.37        65.65627
701.79        65.87571
702.21        65.95966
702.64         65.9502
703.06        65.91153
703.48        65.95836
703.90        66.11787
704.33        66.34345
704.75        66.55651
705.17         66.6016
705.59        66.45383
706.01        66.17475
706.44        65.89988
706.86        65.84193
707.28        66.03962
707.70        66.41231
708.12        66.84644
708.55        67.15993
708.97        67.29757
709.39         67.3222
709.81         67.2617
710.23        67.16867
710.66         67.0792
711.08        66.98418
711.50        66.91457
711.92        66.93774
712.34         67.0659
712.76        67.28966
713.19        67.54024
713.61        67.75612
714.03        67.88086
714.45         67.9101
714.87        67.92835
715.29         67.9866
715.71         68.1144
716.13        68.28853
716.56        68.43978
716.98        68.53346
717.40        68.52499
717.82         68.4352
718.24        68.33147
718.66        68.31265
719.08        68.39789
719.50        68.57639
719.92         68.7617
720.34        68.76466
720.76        68.58291
721.19        68.37391
721.61        68.21809
722.03        68.10897
722.45        68.09609
722.87        68.19925
723.29        68.37937
723.71        68.53035
724.13        68.62779
724.55        68.70298
724.97        68.78256
725.39        68.90891
725.81        69.08759
726.23         69.2888
726.65        69.48545
727.07        69.64467
727.49        69.75557
727.91        69.82986
728.33        69.87126
728.75        69.88587
729.17         69.8819
729.59        69.85934
730.01        69.83317
730.43        69.83975
730.85        69.88808
731.27        69.94697
731.69        69.99197
732.10        70.12708
732.52        70.12128
732.94        70.14739
733.36        70.13934
733.78        70.16323
734.20        70.23933
734.62        70.22575
735.04         70.1819
735.46        70.44308
735.88        70.28704
736.30        70.30289
736.72        70.31321
737.13        70.39552
737.55        70.50397
737.97        70.74579
738.39         71.0239
738.81        70.96277
739.23        70.64444
739.65        70.56034
740.06        70.69738
740.48        70.86441
740.90        70.95387
741.32        70.67463
741.74         70.3483
742.16         70.2838
742.57        70.60199
742.99        70.98464
743.41        71.31665
743.83        71.51866
744.25        71.54062
744.67         71.3987
745.08        71.18524
745.50        71.02774
745.92        70.98373
746.34        71.00742
746.75         71.0621
747.17        71.09263
747.59        71.08994
748.01        71.09386
748.42        71.10819
748.84        71.14849
749.26        71.23627
749.68        71.19205
750.09        71.08598
750.51         71.3996
750.93        71.96425
751.35        71.93673
751.76        71.38514
752.18        71.14217
752.60        71.24548
753.01        71.23461
753.43        71.11475
753.85        71.17134
754.27        71.41479
754.68        71.77144
755.10        72.12778
755.52        72.31125
755.93        72.27726
756.35        72.10251
756.77        71.90914
757.18        71.82088
757.60        71.88872
758.02        72.27812
758.43        72.46099
758.85        72.58733
759.26        72.71261
759.68         72.3433
760.10        72.27616
760.51         72.1722
760.93         72.3147
761.34        71.65805
761.76        71.96497
762.18         71.7474
762.59        71.62233
763.01        71.81514
763.42        72.30269
763.84        72.63535
764.26        72.74718
764.67        72.51204
765.09        72.19354
765.50        72.58452
765.92        73.49889
766.33        73.76582
766.75        73.27467
767.16        72.83632
767.58        72.55058
768.00        72.20865
768.41        71.98382
768.83        72.13112
769.24         72.5672
769.66        73.14953
770.07        73.63297
770.49         73.4213
770.90        72.73458
771.32        72.75883
771.73        73.44944
772.15        73.68172
772.56        73.41752
772.97        73.28584
773.39        73.27459
773.80        73.14321
774.22        72.86247
774.63        72.51002
775.05        72.20486
775.46        72.18604
775.88        72.46928
776.29        73.01421
776.70         73.5864
777.12        73.82361
777.53        73.64912
777.95        73.13792
778.36        72.53613
778.77        72.26785
779.19        72.43858
779.60        72.96832
780.02        73.56242
780.43           73.92
780.84        73.95494
781.26        73.39705
781.67        72.62583
782.09        73.17797
782.50        74.68629
782.91        74.83461
783.33        73.71473
783.74        73.47646
784.15        74.01934
784.57        74.36529
784.98        74.30502
785.39        73.87875
785.81        73.20463
786.22        72.81676
786.63        72.77956
787.04        72.70419
787.46        72.61425
787.87        72.78222
788.28        73.15781
788.70        73.50216
789.11        73.76378
789.52        73.90484
789.93        74.09885
790.35        74.21037
790.76        74.27994
791.17        74.24091
791.58        74.12058
792.00        73.90688
792.41        73.63182
792.82        73.57706
793.23        73.64294
793.65        73.15619
794.06        72.44386
794.47        72.69972
794.88         73.6615
795.29        74.89134
795.71        74.47031
796.12        74.44279
796.53        74.60283
796.94        74.29516
797.35        73.75386
797.76        73.64775
798.18        73.96579
798.59        74.11219
799.00        74.04622
799.41          74.161
799.82        74.41799
800.23         74.5519
800.64        74.53165
801.06        74.38937
801.47        74.24972
801.88        74.25713
802.29        74.43153
802.70        74.69584
803.11        74.92374
803.52        74.91286
803.93        74.64211
804.34        74.21902
804.75        73.73489
805.17        73.42556
805.58        73.39669
805.99        73.24688
806.40        73.09657
806.81        73.93937
807.22        75.36568
807.63        75.53757
808.04         74.5547
808.45        74.24527
808.86        74.79395
809.27        75.47722
809.68        76.06605
810.09        76.33714
810.50        76.18599
810.91        75.81496
811.32        75.39181
811.73        75.01169
812.14        74.73512
812.55         74.6983
812.96        74.79156
813.37        74.47884
813.78        73.89677
814.19        73.82706
814.60         74.1913
815.01        74.37336
815.42        74.37211
815.83        73.97547
816.24        74.29328
816.65        74.34504
817.05        74.46159
817.46        74.60599
817.87        74.75508
818.28        74.80483
818.69        74.74195
819.10        74.60474
819.51        74.47559
819.92        74.55377
820.33        74.88322
820.74        75.25191
821.14        75.59708
821.55        76.11107
821.96        76.60513
822.37        76.38601
822.78        75.60099
823.19        75.15984
823.60        75.17654
824.00        75.20511
824.41        75.14242
824.82        75.13332
825.23        75.15789
825.64        75.19078
826.04        75.27001
826.45        75.40347
826.86        75.59442
827.27        75.82625
827.68        76.02833
828.08        76.11072
828.49        75.99657
828.90        75.74568
829.31        75.44744
829.72        75.26405
830.12        75.26578
830.53        75.37148
830.94        75.52768
831.35        75.61707
831.75        75.62676
832.16        75.55264
832.57        75.43983
832.97         75.3391
833.38        75.25298
833.79        75.16596
834.20        75.08909
834.60        75.02987
835.01        75.00753
835.42        75.04745
835.82        75.12309
836.23        75.08648
836.64        75.00703
837.04        74.84167
837.45        74.71492
837.86        74.84379
838.26        75.27473
838.67        75.91359
839.08        76.53444
839.48        76.71561
839.89        76.36089
840.29        75.63283
840.70        74.88576
841.11        74.56428
841.51        74.78545
841.92        75.36068
842.33        76.12891
842.73        76.80628
843.14        77.17437
843.54        77.37936
843.95         77.3648
844.35        77.12829
844.76        76.71667
845.17        76.14731
845.57        75.57968
845.98        75.29314
846.38        75.34492
846.79        75.66927
847.19        76.17634
847.60        76.54491
848.00        76.72579
848.41        76.72916
848.81        76.68538
849.22        76.71703
849.62        76.90129
850.03        77.14364
850.43        77.39466
850.84        77.46716
851.24        77.37299
851.65        77.11826
852.05        76.86372
852.46        76.75006
852.86        76.82114
853.27        77.03639
853.67        77.25066
854.07        77.38498
854.48        77.38018
854.88        77.30251
855.29        77.12473
855.69         76.9548
856.10        76.74206
856.50         76.5485
856.90        76.37537
857.31        76.26547
857.71        76.30748
858.12        76.43606
858.52        76.62836
858.92        76.73071
859.33        76.68784
859.73        76.55995
860.13        76.41094
860.54        76.37924
860.94         76.5603
861.34        76.86822
861.75        77.12629
862.15        77.15236
862.55        76.86967
862.96        76.38058
863.36        75.85713
863.76        75.55472
864.17        75.54054
864.57        75.73664
864.97        76.07174
865.38        76.41724
865.78        76.76109
866.18        77.07341
866.58        77.23257
866.99        77.03624
867.39         76.5108
867.79        75.70134
868.19        74.73738
868.60        73.80936
869.00        72.96704
869.40        72.22276
869.80        71.72219
870.21        71.67036
870.61        72.13028
871.01        72.98195
871.41        73.88686
871.81        74.30279
872.22        74.13439
872.62        73.55273
873.02        72.80225
873.42        72.49058
873.82        72.58195
874.22        72.44724
874.63        72.26534
875.03        72.47981
875.43        73.08655
875.83        74.81668
876.23        74.96848
876.63        74.61006
877.03         73.2637
877.44        71.01247
877.84        127.1792
878.24        70.66126
878.64        71.82161
879.04        75.37688
879.44        72.46832
879.84        70.72752
880.24        74.43226
880.64        74.37549
881.04        71.50056
881.44        69.72826
881.84         69.7204
882.24        70.82148
882.65        72.39027
883.05        73.21357
883.45        72.89125
883.85        72.07566
884.25        71.28311
884.65        71.04435
885.05        71.50967
885.45        72.45673
885.85        73.50356
886.25        74.03973
886.65        73.89312
887.05        73.29122
887.45        72.54269
887.85        72.09224
888.25        72.07491
888.65        72.35697
889.04        72.82497
889.44        73.20724
889.84        73.42938
890.24        73.55019
890.64        73.61264
891.04        73.68333
891.44        73.75426
891.84        73.74635
892.24        73.60098
892.64        73.24272
893.04        72.70061
893.44        72.10739
893.83        71.46461
894.23        70.78732
894.63        70.09754
895.03        69.38687
895.43        68.90809
895.83        69.07756
896.23        69.92758
896.63        71.30936
897.02        72.72712
897.42        73.28062
897.82        72.77063
898.22        71.48315
898.62         69.9414
899.01        68.95145
899.41        68.77174
899.81        69.14989
900.21        69.85741
900.61        70.54739
901.00        71.07518
901.40        71.50776
901.80         71.8755
902.20        72.19864
902.59        72.47594
902.99        72.65716
903.39        72.62344
903.79         72.2117
904.18        71.43995
904.58        70.46534
904.98        69.60267
905.38        69.31629
905.77        69.68613
906.17        70.57352
906.57        71.66188
906.96        72.47183
907.36        72.80604
907.76        72.75928
908.15        72.54127
908.55        72.44852
908.95        72.58492
909.34        72.89211
909.74        73.10699
910.14        72.79766
910.53        71.90143
910.93        70.64844
911.33        69.54926
911.72        69.39569
912.12        70.27492
912.52        71.84213
912.91        73.50778
913.31        74.28097
913.70         73.9752
914.10        72.86623
914.49        71.28598
914.89        70.00606
915.29        69.37252
915.68        69.18963
916.08        69.41359
916.47        69.95474
916.87        70.68275
917.26        71.60049
917.66        72.49052
918.05        73.01513
918.45        73.06155
918.84        72.76126
919.24        72.14552
919.64         71.3139
920.03        70.38728
920.42        69.38588
920.82        68.68858
921.21        68.82039
921.61         69.7759
922.00        71.42018
922.40        73.11267
922.79        74.02296
923.19        73.90804
923.58        72.82169
923.98         71.1097
924.37        70.07318
924.77        70.25784
925.16        68.19025
925.55        69.58501
925.95        69.64753
926.34        70.03817
926.74        70.60033
927.13        71.28667
927.52        71.82466
927.92        72.12144
928.31        72.30388
928.70        72.31522
929.10         72.1336
929.49          71.796
929.89        71.28561
930.28        70.88129
930.67        71.02502
931.07        71.73769
931.46        72.93282
931.85        74.09731
932.24        74.45782
932.64        73.84371
933.03        72.38321
933.42        70.58631
933.82        69.52726
934.21        69.52579
934.60        70.29333
934.99        71.09241
935.39        71.17366
935.78        70.42329
936.17        68.57014
936.56        65.96875
936.96        66.92567
937.35        66.63752
937.74        68.70344
938.13        70.76863
938.53        72.09676
938.92         72.6026
939.31        72.58733
939.70        72.24637
940.09        71.80894
940.49        71.45296
940.88         71.1299
941.27        70.98047
941.66        71.25387
942.05        71.94176
942.44        72.95023
942.84        74.06055
943.23         74.8916
943.62        75.28767
944.01         75.3829
944.40        75.14146
944.79        74.53082
945.18        73.60722
945.57        72.33886
945.97        71.18375
946.36          70.914
946.75        71.72093
947.14        73.32377
947.53        74.96021
947.92        75.56892
948.31        74.98017
948.70        73.51617
949.09         71.7386
949.48        70.64937
949.87        70.57072
950.26        71.19865
950.65         72.1424
951.04        72.75072
951.43        72.79244
951.82        72.47542
952.21        71.97612
952.60        71.55186
952.99        71.30128
953.38        71.13213
953.77         70.9677
954.16        70.71757
954.55        70.36926
954.94        69.98023
955.33        69.67814
955.72        69.64165
956.11        69.91709
956.50        70.46876
956.89        71.10742
957.28        71.47661
957.66        71.47378
958.05        71.12369
958.44        70.69122
958.83        70.54127
959.22        70.72724
959.61        71.15052
960.00         71.5171
960.39        71.31385
960.78        70.44051
961.16        69.07647
961.55        67.70061
961.94        66.90276
962.33        66.82412
962.72        67.30036
963.11        67.99078
963.49        68.32159
963.88        68.04689
964.27        67.38847
964.66        66.65619
965.04        66.35816
965.43        66.62189
965.82        67.27954
966.21        68.08728
966.60        68.66148
966.98        68.89671
967.37        68.88905
967.76        68.82172
968.15        68.96508
968.53        69.39146
968.92        69.90103
969.31        70.36208
969.69        70.56985
970.08        70.40139
970.47        69.97829
970.86        69.32143
971.24        68.41843
971.63        67.39085
972.02        66.30523
972.40        65.33567
972.79        64.79667
973.17        64.79028
973.56        65.11665
973.95        65.77013
974.33         66.6917
974.72        67.63952
975.11        68.60473
975.49        69.16916
975.88        68.69817
976.26        67.16719
976.65        64.84093
977.04        62.35011
977.42        60.80169
977.81        60.56168
978.19        61.33647
978.58        62.77835
978.96        64.26186
979.35         65.4269
979.74        66.50717
980.12         67.3635
980.51        67.51508
980.89        67.04873
981.28        65.98854
981.66        64.89958
982.05        64.64066
982.43        65.31682
982.82        66.68545
983.20        68.29639
983.59        69.01016
983.97        68.59318
984.35        67.29434
984.74          65.694
985.12        64.60984
985.51        64.27453
985.89        64.42353
986.28        64.77515
986.66        64.87249
987.04         64.4929
987.43        63.94637
987.81        63.22062
988.20        62.20747
988.58         60.8223
988.96        58.88757
989.35        56.79762
989.73        55.86507
990.12        56.67762
990.50        58.85585
990.88        61.18768
991.27        62.31667
991.65         62.2502
992.03        61.34446
992.42        60.27118
992.80        60.30484
993.18        61.80443
993.56        64.09235
993.95         66.4733
994.33        68.42626
994.71        69.60217
995.10        70.21511
995.48        70.24567
995.86         69.5421
996.24        68.15491
996.63        66.10936
997.01        63.65087
997.39        61.69785
997.77         60.8065
998.15        60.79235
998.54        61.42395
998.92        62.39367
999.30        63.61119
999.68        65.32583
1000.06        66.90995
1000.45         66.4584
1000.83        63.61618
1001.21        59.48226
1001.59        55.79016
1001.97        53.74151
1002.35         53.1487
1002.73        53.64072
1003.12        54.78616
1003.50         55.6427
1003.88        55.68305
1004.26        55.23804
1004.64        54.65816
1005.02         54.4602
1005.40        54.80276
1005.78         55.4235
1006.16        56.26897
1006.54         57.2355
1006.92        58.03555
1007.30        58.55631
1007.69         58.6675
1008.07        58.36294
1008.45        57.51197
1008.83        56.05431
1009.21        53.51448
1009.59        49.55812
1009.97        44.87508
1010.35        40.35812
1010.73        38.03163
1011.11         39.4515
1011.49        44.01204
1011.86        50.90941
1012.24        57.12902
1012.62        59.90758
1013.00         59.0713
1013.38        55.64715
1013.76          51.276
1014.14        48.85384
1014.52        49.25225
1014.90         51.5982
1015.28        54.52148
1015.66        55.71725
1016.04        54.37867
1016.41        51.09048
1016.79        46.68879
1017.17        43.49446
1017.55        42.69239
1017.93        43.37554
1018.31        44.63251
1018.69        45.63207
1019.06        46.15047
1019.44        46.30153
1019.82        45.93675
1020.20        44.62693
1020.58        42.38203
1020.95        39.45148
1021.33        36.01825
1021.71        31.41023
1022.09        24.54176
1022.46        12.21758
1022.84       -5.252675
1023.22       -9.875529
1023.60        7.453751
1023.97        26.98576
1024.35         37.9354
1024.73        41.52912
