SpectraSmart Spectrum 2.9.0.0
--------- Device Information -----------
Spectrum Name :  反射率_0
Saving Time :  2024/04/20 00:41:51
Spectro-Module Model Name : SE2030-DUVN
Spectro-Module Serial Number : OS361AC55029948
Wavelength Start : 200
Wavelength End : 1025
Wavelength Unit : Wavelength(nm)
Spectrum Unit : Reflectance(%)
-----------Spectrum Setting ------------
Integration Time : 30ms
Average : 10
Boxcar : 0
Background removal :  enabled
linearity correction :  enabled
SC :  disabled
Intensity correction :  disabled
DWT denoise :  enabled
savitzky-golay :  disabled
FFT :  disabled
Running average :  disabled
Kalman :  disabled
High pass :  disabled
---------------BEGIN--------------------
Wavelength(nm)             Reflectance(%)
200.29               0
200.75        57.12743
201.21        55.72083
201.67        55.66859
202.13        58.72808
202.58        65.71404
203.04        76.67634
203.50         88.4948
203.96        92.78877
204.42         88.3109
204.88        80.00764
205.34        71.99918
205.80        65.96262
206.26        60.88378
206.72        54.93064
207.18        47.61602
207.64        41.91611
208.10        41.84694
208.55        47.48883
209.01        54.08199
209.47        57.71473
209.93        58.32589
210.39        57.14557
210.85        55.32208
211.31        54.16553
211.77        53.87267
212.23        54.00425
212.69        54.37434
213.14        54.61045
213.60         54.2807
214.06        54.36261
214.52        54.82006
214.98        55.69397
215.44        56.99237
215.90        58.35198
216.36        60.36599
216.81        63.84842
217.27        68.27048
217.73        73.21326
218.19        76.34264
218.65         74.5442
219.11        67.44991
219.57        55.38502
220.02        41.43772
220.48        33.99745
220.94        36.16908
221.40        46.36684
221.86        59.47615
222.32         67.3576
222.77        67.96031
223.23        64.03885
223.69        58.87724
224.15        57.17225
224.61        59.33269
225.06         62.9011
225.52        66.29754
225.98        68.45457
226.44        69.36234
226.90         69.7291
227.36        69.69518
227.81        69.19874
228.27         68.6535
228.73        67.95573
229.19        67.43248
229.65        67.51338
230.10        68.08216
230.56        68.99413
231.02          69.903
231.48        70.45271
231.93        70.52346
232.39        70.26467
232.85        69.71049
233.31        68.96233
233.77        68.07919
234.22          67.067
234.68        65.90858
235.14        64.52914
235.60        63.02142
236.05        61.50348
236.51        60.25525
236.97        59.60282
237.43        59.62618
237.88        60.50574
238.34        61.81982
238.80        62.74999
239.26        62.60892
239.71        61.35662
240.17        59.57518
240.63        58.70434
241.08        59.10421
241.54        60.45572
242.00        61.53927
242.46        59.96148
242.91        54.40403
243.37        43.43053
243.83        27.51373
244.28        15.96335
244.74        18.87536
245.20        35.40759
245.66        52.72338
246.11        58.74858
246.57         52.2728
247.03        34.26025
247.48        9.782164
247.94        4.109159
248.40        19.96199
248.85        39.04131
249.31        52.96345
249.77        60.47626
250.22        63.62179
250.68        64.50922
251.14        63.98487
251.59        63.13346
252.05        62.74151
252.51          62.502
252.96        61.46769
253.42        58.66116
253.88        54.49041
254.33        50.05278
254.79        47.91241
255.25        50.07763
255.70        55.76398
256.16        63.24755
256.62         69.6875
257.07        71.94421
257.53        70.24851
257.99        65.97874
258.44        60.98989
258.90        58.32433
259.35        57.67017
259.81        58.21767
260.27        58.52127
260.72         57.3919
261.18        55.19801
261.63        52.15088
262.09        49.45461
262.55        48.23999
263.00         48.4829
263.46        49.70673
263.91        50.75274
264.37         50.5384
264.83        49.04625
265.28        46.72524
265.74        44.66572
266.19         43.9407
266.65        44.68552
267.11        46.27893
267.56        47.91258
268.02        48.44502
268.47        47.67931
268.93        46.03928
269.38        44.01009
269.84        42.59799
270.30        42.07653
270.75        42.14528
271.21        42.46341
271.66        42.52283
272.12        42.16119
272.57        41.53677
273.03        40.83229
273.48        40.21803
273.94         39.8003
274.39        39.48026
274.85         39.1539
275.31        38.64006
275.76        37.90149
276.22        37.03222
276.67        36.21014
277.13        35.80742
277.58        35.79158
278.04        36.05916
278.49        36.24311
278.95        35.90361
279.40        34.95768
279.86        33.67977
280.31         32.3337
280.77        31.44165
281.22        31.02849
281.68        30.94694
282.13        30.98746
282.59        30.89004
283.04        30.56641
283.50        30.14752
283.95        29.64803
284.41        29.12582
284.86        28.58849
285.32        28.03461
285.77         27.5208
286.22        27.21642
286.68        27.12718
287.13        27.17425
287.59        27.22331
288.04        27.04073
288.50        26.60815
288.95        25.97898
289.41        25.28878
289.86        24.67439
290.32        24.23586
290.77        23.91692
291.22         23.7245
291.68        23.63458
292.13        23.62312
292.59        23.69858
293.04        23.82986
293.50        23.98083
293.95        24.12369
294.40        24.24911
294.86        24.34013
295.31        24.38674
295.77        24.39925
296.22        24.39628
296.68        24.40295
297.13         24.4366
297.58        24.52282
298.04        24.66427
298.49        24.89502
298.95        25.29592
299.40        25.84538
299.85        26.50287
300.31        27.14915
300.76        27.60684
301.21        27.84309
301.67        27.93998
302.12        27.97082
302.58        28.09507
303.03        28.33642
303.48        28.65774
303.94        29.06544
304.39        29.53546
304.84        30.04776
305.30        30.59112
305.75        31.08038
306.20        31.40003
306.66        31.54998
307.11        31.55749
307.57        31.50462
308.02        31.45543
308.47        31.46261
308.93        31.50385
309.38        31.60073
309.83        31.82648
310.29        32.16393
310.74        32.58392
311.19        32.95682
311.65        33.07608
312.10        32.90298
312.55        32.50342
313.00        32.02563
313.46        31.70105
313.91        31.57837
314.36        31.61283
314.82        31.71248
315.27        31.74572
315.72         31.6633
316.18        31.51817
316.63        31.36227
317.08        31.27776
317.53        31.27646
317.99        31.30965
318.44        31.32833
318.89        31.25057
319.35        31.05669
319.80        30.78154
320.25        30.45967
320.70        30.14518
321.16        29.85936
321.61        29.59495
322.06        29.36001
322.51        29.16836
322.97        29.01238
323.42        28.89545
323.87        28.78438
324.32        28.62724
324.78        28.40585
325.23        28.13808
325.68        27.84112
326.13        27.55334
326.59        27.29379
327.04        27.07836
327.49        26.90458
327.94        26.76933
328.39        26.66953
328.85        26.58773
329.30        26.56709
329.75        26.63642
330.20        26.78407
330.66        26.96672
331.11        27.11741
331.56        27.08244
332.01        26.82965
332.46        26.39883
332.92        25.88824
333.37        25.47494
333.82        25.22887
334.27        25.13282
334.72        25.13104
335.17        25.11795
335.63        25.04843
336.08        24.94884
336.53        24.88758
336.98        24.98404
337.43        25.24873
337.88        25.63935
338.34        25.96272
338.79        25.95848
339.24        25.56453
339.69        24.86045
340.14        24.12883
340.59        23.84345
341.05        24.09823
341.50        24.75243
341.95        25.49004
342.40        25.81978
342.85        25.63116
343.30         25.0925
343.75         24.4325
344.20        24.02478
344.66        23.97374
345.11        24.12373
345.56        24.37515
346.01        24.57195
346.46        24.64417
346.91        24.66457
347.36        24.57706
347.81        24.27805
348.26         23.7889
348.72        23.17155
349.17         22.5761
349.62        22.33632
350.07        22.52375
350.52        23.02607
350.97        23.66205
351.42        24.15646
351.87        24.41664
352.32         24.5008
352.77        24.44139
353.22        24.29823
353.67        24.10619
354.13        23.86216
354.58        23.56615
355.03        23.26411
355.48        22.98207
355.93        22.73688
356.38         22.5597
356.83        22.48307
357.28        22.49944
357.73        22.58272
358.18        22.67868
358.63        22.69872
359.08        22.61483
359.53        22.45406
359.98         22.2281
360.43        21.95782
360.88        21.66545
361.33        21.35171
361.78        21.07196
362.23        20.91752
362.68        20.89775
363.13        20.97553
363.58        21.07619
364.03        21.08091
364.48        20.95472
364.93        20.73026
365.38        20.43162
365.83        20.10726
366.28        19.79151
366.73        19.48111
367.18        19.21169
367.63        19.03675
368.08        18.95964
368.53        18.96277
368.98        19.00392
369.43        19.01046
369.88        18.96131
370.33        18.87812
370.78         18.7617
371.23        18.62021
371.68        18.46539
372.13        18.28716
372.58        18.13379
373.03        18.08983
373.48        18.15961
373.93        18.30877
374.38         18.4469
374.83        18.43276
375.28          18.239
375.72        17.90691
376.17        17.52778
376.62        17.21016
377.07        17.00145
377.52        16.87206
377.97        16.82015
378.42        16.84062
378.87        16.91233
379.32        17.02756
379.77        17.14227
380.22        17.18629
380.67        17.14443
381.11        17.03719
381.56        16.87469
382.01        16.69933
382.46        16.53037
382.91        16.35232
383.36        16.19719
383.81        16.10972
384.26        16.09108
384.71        16.13981
385.15        16.17628
385.60        16.07679
386.05         15.8266
386.50        15.46527
386.95         15.1152
387.40        14.97226
387.85        15.06689
388.29        15.32373
388.74        15.60441
389.19        15.71352
389.64         15.6113
390.09        15.35984
390.54        15.05721
390.98        14.85435
391.43        14.81013
391.88        14.86405
392.33        14.94723
392.78        14.96292
393.23         14.8921
393.67         14.7604
394.12        14.64076
394.57        14.58029
395.02        14.58955
395.47        14.64647
395.91        14.70947
396.36        14.69345
396.81         14.5879
397.26         14.4185
397.71        14.24978
398.15        14.16302
398.60        14.19053
399.05        14.29578
399.50        14.40997
399.95        14.43478
400.39        14.34877
400.84        14.17635
401.29         13.9917
401.74        13.93124
402.18        14.03241
402.63        14.24315
403.08        14.45399
403.53        14.49063
403.97         14.3218
404.42        14.01741
404.87        13.69852
405.32        13.56305
405.76        13.65473
406.21        13.90136
406.66        14.19789
407.11        14.38166
407.55        14.40728
408.00        14.32872
408.45        14.19083
408.90        14.03583
409.34        13.91201
409.79        13.87064
410.24        13.88864
410.68        13.87375
411.13        13.82225
411.58        13.79451
412.03        13.79426
412.47        13.80365
412.92        13.81773
413.37        13.82956
413.81        13.85441
414.26        13.93125
414.71        14.05481
415.15         14.2191
415.60        14.34815
416.05        14.34446
416.49         14.1885
416.94        13.92006
417.39         13.6288
417.83        13.45969
418.28        13.45421
418.73        13.56216
419.17        13.71266
419.62        13.78031
420.07        13.73818
420.51        13.62957
420.96        13.49665
421.41         13.3869
421.85        13.31613
422.30        13.27617
422.74        13.26883
423.19        13.32452
423.64         13.4338
424.08        13.59581
424.53         13.7568
424.98        13.84299
425.42        13.83508
425.87        13.75617
426.31        13.63675
426.76        13.53599
427.21        13.46531
427.65        13.40278
428.10         13.3739
428.54        13.39808
428.99        13.47488
429.44        13.65702
429.88        13.84757
430.33        13.79927
430.77        13.55585
431.22        13.40123
431.66        13.38719
432.11         13.4408
432.56         13.5497
433.00         13.7701
433.45        13.96154
433.89        13.92123
434.34        13.73499
434.78        13.54039
435.23         13.3249
435.67        13.97557
436.12         13.5389
436.57        13.47279
437.01        13.26237
437.46        13.17375
437.90        13.22145
438.35         13.2862
438.79        13.33703
439.24        13.38486
439.68        13.41744
440.13        13.32169
440.57        13.16475
441.02        13.26849
441.46         13.5063
441.91        13.47017
442.35        12.87145
442.80         12.6458
443.24        12.66429
443.69         12.6402
444.13        12.54913
444.58        12.49709
445.02        12.48446
445.47        12.51686
445.91        12.56607
446.36         12.5576
446.80        12.47816
447.24        12.36486
447.69         12.2521
448.13        12.16401
448.58        12.11856
449.02        12.10772
449.47        12.11437
449.91        12.10509
450.36        12.07605
450.80        12.03245
451.25        12.00263
451.69        12.01563
452.13        12.07816
452.58        12.16978
453.02        12.25971
453.47        12.29911
453.91         12.2803
454.36        12.21902
454.80        12.13883
455.24        12.08067
455.69        12.06368
456.13         12.0616
456.58        12.07997
457.02        12.12041
457.46        12.17674
457.91        12.21992
458.35        12.24089
458.79        12.25252
459.24        12.25237
459.68        12.23755
460.13        12.25282
460.57        12.24844
461.01        12.21694
461.46         12.4861
461.90        12.56374
462.34        12.44301
462.79        12.53603
463.23        12.42613
463.68        12.32248
464.12        12.23511
464.56        12.27691
465.01        12.35258
465.45        12.42918
465.89        12.46807
466.34        12.46453
466.78         12.3931
467.22        12.29756
467.67        12.33651
468.11        12.48416
468.55        12.49071
468.99        12.37659
469.44        12.37729
469.88        12.50127
470.32        12.61597
470.77        12.68188
471.21        12.70451
471.65        12.67575
472.10        12.59815
472.54        12.50803
472.98        12.49472
473.42        12.57197
473.87        12.67586
474.31        12.77328
474.75        12.88895
475.20        12.98362
475.64        12.93261
476.08        12.79269
476.52        12.76412
476.97        12.86273
477.41         12.9994
477.85         13.1215
478.29        13.18325
478.74        13.16992
479.18        13.07396
479.62        12.96348
480.06        12.94801
480.50         13.0291
480.95         13.1116
481.39        13.15537
481.83        13.16245
482.27        13.12866
482.72        13.05729
483.16        12.98194
483.60        12.97194
484.04        13.02646
484.48        13.15425
484.93         13.4093
485.37        13.55149
485.81        13.56374
486.25        14.12751
486.69        14.19268
487.14        13.51067
487.58        13.61219
488.02         14.3204
488.46        14.11299
488.90        14.24508
489.34        14.10837
489.79        14.17827
490.23        14.41268
490.67        14.55923
491.11        14.58688
491.55        14.49591
491.99        14.33237
492.43        14.25093
492.88        14.28135
493.32        14.31302
493.76        14.36143
494.20        14.49836
494.64        14.71954
495.08        15.01249
495.52        15.31537
495.96        15.49855
496.41        15.56558
496.85        15.61607
497.29        15.67925
497.73        15.78675
498.17        15.92666
498.61          15.985
499.05        15.97611
499.49        16.05374
499.93        16.22776
500.37        16.36984
500.82        16.47363
501.26        16.66364
501.70        16.89515
502.14        16.94221
502.58         16.8413
503.02         16.8457
503.46        16.97305
503.90        17.08937
504.34        17.16169
504.78        17.19448
505.22        17.18095
505.66        17.13187
506.10        17.07274
506.54        17.04037
506.98        17.05119
507.42        17.09947
507.86        17.18679
508.30        17.31376
508.74        17.46928
509.18        17.64086
509.62         17.8104
510.06         17.9496
510.50        18.04921
510.94         18.1202
511.38        18.14665
511.82        18.10703
512.26        18.00873
512.70        17.86098
513.14        17.73129
513.58         17.7219
514.02        17.84255
514.46        18.06402
514.90        18.30003
515.34        18.35364
515.78        18.21457
516.22        18.01534
516.66        17.85863
517.10        17.55536
517.54        17.13786
517.98        17.76057
518.42        17.66572
518.86        17.94643
519.30        18.05802
519.74        18.18006
520.18        18.28075
520.62        18.28588
521.06        18.21012
521.50        18.05553
521.93        17.87557
522.37        17.76891
522.81        17.75784
523.25        17.81895
523.69        17.90751
524.13        17.95049
524.57        17.92756
525.01        17.85953
525.45        17.77663
525.89        17.72628
526.32        17.71941
526.76        17.73995
527.20        17.75754
527.64         17.7298
528.08        17.64675
528.52        17.52194
528.96        17.38955
529.40        17.29907
529.83         17.2613
530.27        17.26672
530.71        17.27435
531.15        17.22073
531.59         17.0975
532.03        16.92896
532.46        16.76754
532.90        16.70936
533.34        16.76351
533.78        16.89302
534.22        17.03968
534.66        17.11508
535.09        17.09318
535.53        17.00884
535.97        16.88974
536.41        16.77752
536.85        16.69185
537.28        16.62989
537.72        16.60394
538.16        16.58177
538.60        16.64253
539.04        16.71157
539.47        16.78845
539.91        16.87713
540.35        16.98049
540.79        16.95186
541.22        17.01728
541.66        17.06711
542.10        17.18466
542.54        17.09068
542.97        17.23779
543.41        17.30909
543.85        17.42737
544.29        17.54841
544.72        17.65281
545.16        17.76072
545.60         17.8649
546.04        17.90571
546.47        17.93166
546.91        18.13417
547.35         18.4651
547.79        18.68578
548.22        18.77023
548.66        18.80457
549.10        18.82721
549.53        18.96548
549.97        19.22008
550.41        19.23871
550.84        19.37512
551.28        19.44535
551.72         19.5835
552.15        19.76644
552.59        19.99505
553.03        20.25947
553.46        20.50921
553.90        20.68826
554.34        20.78275
554.77        20.80935
555.21        20.80634
555.65        20.82434
556.08        20.87719
556.52        20.95152
556.96        21.03484
557.39        21.13458
557.83        21.23813
558.27        21.29542
558.70        21.31876
559.14        21.36735
559.57        21.43841
560.01         21.5266
560.45        21.60567
560.88        21.60851
561.32        21.57802
561.75        21.58068
562.19        21.70595
562.63         21.7843
563.06        21.83544
563.50        21.91285
563.93        22.00825
564.37        22.14807
564.80        22.22532
565.24        22.33267
565.68        22.41873
566.11         22.4817
566.55        22.53703
566.98        22.54108
567.42        22.50917
567.85        22.75026
568.29        22.68293
568.72        22.98789
569.16        23.39427
569.60        23.63191
570.03        23.65423
570.47        23.64235
570.90        23.54387
571.34        23.76646
571.77        23.54786
572.21        24.00449
572.64        24.09693
573.08         24.2239
573.51        24.57483
573.95        24.92661
574.38        25.01494
574.82        25.23838
575.25        25.44856
575.69        25.26401
576.12        25.00602
576.56        24.96286
576.99        25.24386
577.42        25.30146
577.86        25.31831
578.29        25.27091
578.73        25.61231
579.16        25.31912
579.60        25.20079
580.03        25.15541
580.47        25.34441
580.90        24.96261
581.33        24.77094
581.77        24.96254
582.20        25.22478
582.64        24.61138
583.07        24.43689
583.51        24.56839
583.94        24.26273
584.37        24.25759
584.81        23.81718
585.24        23.78682
585.68        23.96512
586.11        23.86897
586.54        23.76347
586.98        23.57069
587.41        23.56519
587.85        23.63549
588.28        23.73835
588.71        23.62199
589.15        23.37375
589.58        22.94137
590.01        23.21816
590.45        23.42271
590.88        23.47032
591.31        23.34892
591.75        23.04719
592.18        23.15191
592.61        23.08035
593.05         23.5044
593.48        23.47786
593.91         23.5336
594.35        23.44307
594.78        23.67515
595.21        23.83702
595.65        24.13997
596.08        24.04633
596.51          24.062
596.94        24.10924
597.38        24.24514
597.81        24.52859
598.24        24.55784
598.68        25.05917
599.11        25.19201
599.54        26.01566
599.97        25.69053
600.41        26.11575
600.84        26.57012
601.27        26.93276
601.70          27.255
602.14        27.37922
602.57        27.67295
603.00        28.13768
603.43        28.53222
603.87        28.82563
604.30        29.19685
604.73        29.68545
605.16        29.72775
605.60        30.27121
606.03        30.67469
606.46        31.12797
606.89        31.67887
607.32        32.08821
607.76        32.38433
608.19        32.68373
608.62        33.02736
609.05        33.12171
609.48        33.36592
609.92        33.69187
610.35        33.81702
610.78        34.50519
611.21        35.18105
611.64        34.88176
612.07        35.45867
612.50        35.58305
612.94        35.69035
613.37        36.09822
613.80        36.50523
614.23        36.79888
614.66        37.15289
615.09         37.4627
615.52        37.74278
615.96         37.9595
616.39        38.15414
616.82        38.38083
617.25        38.50385
617.68        38.67317
618.11        39.21295
618.54        39.42839
618.97        39.47125
619.40        39.20505
619.84        39.35231
620.27        39.36045
620.70        39.64745
621.13        39.97146
621.56        40.11895
621.99        40.18439
622.42        40.31587
622.85        40.53905
623.28        40.70033
623.71        40.78979
624.14        40.78766
624.57        40.75254
625.00        40.61298
625.43        40.69935
625.86        40.28351
626.29        40.26541
626.72        40.14632
627.15        40.11388
627.58         40.1184
628.01        40.05795
628.44        40.00266
628.87        39.96571
629.30        39.10326
629.73        39.11144
630.16         38.5702
630.59        38.38963
631.02        38.17204
631.45        37.99602
631.88         37.7538
632.31        37.40563
632.74        36.99258
633.17        36.53402
633.60        36.07469
634.03        35.63269
634.46        35.19664
634.89        34.76527
635.32        34.33622
635.75        33.91294
636.18        33.50977
636.61        33.12524
637.04        32.74925
637.47        32.37827
637.89        32.01096
638.32        31.65992
638.75        31.36565
639.18        31.13506
639.61        30.96024
640.04        30.79583
640.47        30.56717
640.90        30.26189
641.33        29.90424
641.76        29.55709
642.18        29.32662
642.61        29.23232
643.04        29.24198
643.47        29.29863
643.90         29.3068
644.33        29.24202
644.76        29.14107
645.18        29.03647
645.61        28.98356
646.04        29.00193
646.47        29.07083
646.90         29.1991
647.33        29.40259
647.75        29.67594
648.18        30.01264
648.61        30.36952
649.04        30.67011
649.47        30.90528
649.89        31.10221
650.32        31.31565
650.75        31.63964
651.18        32.10773
651.61        32.64877
652.03        33.23074
652.46        33.94744
652.89        34.71165
653.32        35.07683
653.74        35.12762
654.17        35.68722
654.60        36.11491
655.03        37.10036
655.46        36.59272
655.88        38.26491
656.31        39.25435
656.74         44.2453
657.16        41.81036
657.59         38.7976
658.02        39.46462
658.45         40.4455
658.87        41.13959
659.30        41.94541
659.73        42.11105
660.15        42.95156
660.58        43.09294
661.01        43.23471
661.44        43.15164
661.86        43.30526
662.29        43.73445
662.72        44.37849
663.14        45.07861
663.57         45.2275
664.00        44.94876
664.42        45.02163
664.85        45.50637
665.27        45.92084
665.70        46.18439
666.13        46.42451
666.55        46.62912
666.98        46.76534
667.41        46.86839
667.83        46.99056
668.26        47.13921
668.69        47.30872
669.11        47.49221
669.54        47.64719
669.96        47.76556
670.39        47.93299
670.82         48.1417
671.24        48.18826
671.67        48.15845
672.09        48.45724
672.52        48.98438
672.94        49.24193
673.37        49.18839
673.80        49.02387
674.22        48.86668
674.65        48.84893
675.07        49.02053
675.50         49.3049
675.92        49.61335
676.35        49.79507
676.77        49.81525
677.20        49.72388
677.62        49.59029
678.05        49.53375
678.47         49.5871
678.90        49.71821
679.32        49.89873
679.75        50.09094
680.17        50.27283
680.60         50.4496
681.02        50.62226
681.45        50.77221
681.87        50.90459
682.30        51.02706
682.72        51.12817
683.15        51.15544
683.57         51.1162
684.00          51.103
684.42        51.27342
684.85        51.38778
685.27        51.48699
685.70        51.64092
686.12        51.82024
686.54        51.96067
686.97        52.04821
687.39        52.06598
687.82        52.09762
688.24         52.1184
688.66        52.15852
689.09        52.19884
689.51        52.25425
689.94        52.33705
690.36        52.44812
690.78        52.53876
691.21        52.61141
691.63        52.69135
692.06        53.00787
692.48        52.99098
692.90         53.1089
693.33         53.4612
693.75        53.26761
694.17        53.40075
694.60         53.5434
695.02        53.40432
695.44        53.04023
695.87        52.98442
696.29        53.20859
696.71        53.14093
697.14        52.96906
697.56        53.07969
697.98        54.08386
698.41        54.71861
698.83        54.39874
699.25        54.21654
699.68        54.09047
700.10        54.05046
700.52        54.14225
700.94        54.36786
701.37        54.63626
701.79        54.83335
702.21        54.89985
702.64        54.87433
703.06        54.81738
703.48        54.83066
703.90         54.9397
704.33        55.11053
704.75        55.28429
705.17        55.32698
705.59         55.2133
706.01        55.06096
706.44        54.84699
706.86        54.83319
707.28         55.0097
707.70        55.32032
708.12        55.66777
708.55        55.89919
708.97        55.97392
709.39         55.9431
709.81         55.8536
710.23        55.78931
710.66        55.78448
711.08         55.8162
711.50        55.87133
711.92        55.94436
712.34        56.03125
712.76        56.14489
713.19        56.25579
713.61        56.35666
714.03        56.41846
714.45        56.44387
714.87         56.4683
715.29        56.53811
715.71        56.65878
716.13        56.85252
716.56        57.05416
716.98        57.12101
717.40        57.05716
717.82        57.10664
718.24        57.26183
718.66        57.31145
719.08        57.25174
719.50         57.2073
719.92         57.1975
720.34        57.19088
720.76        57.19319
721.19        57.21735
721.61        57.25554
722.03        57.26221
722.45        57.24975
722.87        57.21744
723.29        57.20465
723.71        57.26847
724.13        57.41986
724.55        57.63685
724.97        57.87936
725.39        58.08114
725.81        58.21696
726.23        58.30025
726.65         58.3523
727.07        58.39859
727.49        58.47164
727.91        58.54375
728.33        58.60543
728.75        58.63061
729.17        58.61749
729.59        58.58352
730.01        58.55231
730.43        58.55753
730.85        58.60704
731.27        58.68531
731.69        58.77932
732.10        58.88105
732.52         58.9785
732.94         59.0536
733.36        59.06739
733.78        59.08809
734.20        59.16234
734.62        58.93122
735.04        58.69816
735.46        59.05661
735.88        58.99553
736.30        58.71882
736.72        59.07813
737.13        59.23758
737.55        59.46395
737.97        59.75545
738.39        60.02834
738.81        59.95428
739.23        59.60772
739.65        59.51487
740.06        59.67744
740.48        59.77988
740.90        59.76963
741.32        59.75175
741.74         59.7439
742.16        59.78632
742.57        59.88711
742.99        59.95337
743.41        59.98457
743.83         60.0101
744.25        60.02771
744.67        60.02044
745.08        60.00167
745.50        59.96875
745.92        59.93732
746.34        59.90782
746.75        59.88778
747.17        59.88839
747.59        59.91691
748.01        59.97789
748.42        60.06873
748.84        60.18192
749.26        60.32293
749.68        60.40004
750.09        60.43719
750.51        60.66344
750.93        60.98618
751.35        60.96955
751.76        60.67495
752.18        60.54889
752.60         60.5929
753.01        60.66994
753.43        60.80324
753.85        60.65016
754.27        60.63345
754.68        61.15059
755.10        61.19415
755.52        60.90935
755.93        61.12458
756.35        60.96082
756.77        60.82328
757.18        60.78224
757.60        60.89217
758.02        61.10509
758.43        61.34362
758.85         61.4064
759.26        61.69553
759.68        61.43853
760.10        61.47609
760.51         61.3086
760.93        61.25665
761.34        60.75544
761.76        61.27189
762.18        60.91718
762.59        60.34018
763.01        60.44669
763.42          61.227
763.84        61.87315
764.26        61.86104
764.67        61.82999
765.09        61.81094
765.50        61.96822
765.92        62.26228
766.33        62.43189
766.75        62.36765
767.16        62.01449
767.58          61.409
768.00         61.3563
768.41        60.97897
768.83        61.21492
769.24        61.67191
769.66        62.08128
770.07        62.31533
770.49        62.39178
770.90        62.37138
771.32        62.43053
771.73        62.57542
772.15        62.56926
772.56        62.43246
772.97        62.36396
773.39        62.33632
773.80        62.23375
774.22        62.03988
774.63        61.80744
775.05        61.63112
775.46        61.67085
775.88        61.93159
776.29        62.40017
776.70        62.87155
777.12        63.02582
777.53        62.80558
777.95        62.28223
778.36        61.70161
778.77        61.48222
779.19        61.72014
779.60        62.32679
780.02        63.00216
780.43        63.40852
780.84        63.44522
781.26        62.90495
781.67         62.1443
782.09        62.51482
782.50        63.73002
782.91        63.83543
783.33          62.899
783.74        62.65621
784.15         63.1482
784.57        63.42085
784.98        63.36657
785.39        63.14047
785.81        62.80784
786.22        62.61835
786.63        62.60727
787.04        62.58325
787.46        62.55445
787.87        62.65721
788.28        62.87804
788.70         63.0808
789.11        63.18711
789.52        63.36579
789.93        63.55761
790.35        63.46763
790.76        63.18825
791.17        63.20084
791.58        63.48566
792.00        63.52882
792.41          63.314
792.82        63.25521
793.23        63.27124
793.65        63.01368
794.06        62.75172
794.47        62.84209
794.88         62.9821
795.29        64.78995
795.71        63.76331
796.12        63.54623
796.53        63.92561
796.94        63.61368
797.35        63.04088
797.76        62.83379
798.18         63.0597
798.59        63.26369
799.00        63.42295
799.41        63.58378
799.82        64.11559
800.23        64.28661
800.64        64.18599
801.06        63.86852
801.47        63.51632
801.88        63.36594
802.29         63.4719
802.70        63.74323
803.11        64.05595
803.52        64.20776
803.93        64.15196
804.34        63.97594
804.75        63.72593
805.17        63.54824
805.58        63.52089
805.99        63.32744
806.40        63.07528
806.81        63.61293
807.22        64.63807
807.63        64.60166
808.04        63.67822
808.45        63.46191
808.86        64.08335
809.27        64.72249
809.68        65.19025
810.09        65.49842
810.50        65.55898
810.91        65.40246
811.32        65.12438
811.73        64.82264
812.14        64.54465
812.55         64.3578
812.96        64.23556
813.37        63.93895
813.78          63.556
814.19        63.53561
814.60        63.81061
815.01        63.92289
815.42        63.83859
815.83        63.77959
816.24        63.80234
816.65        63.90094
817.05        64.08932
817.46        64.31651
817.87        64.51782
818.28        64.55737
818.69        64.42599
819.10        64.17783
819.51        63.90951
819.92        63.84524
820.33        64.05157
820.74        64.30645
821.14        64.59551
821.55        65.19862
821.96        65.92192
822.37         66.0174
822.78        65.53573
823.19        65.25663
823.60        65.25079
824.00        65.07677
824.41        64.74007
824.82         64.5777
825.23        64.62273
825.64        64.79481
826.04        65.02446
826.45        65.14635
826.86        65.12833
827.27        65.02586
827.68        64.86868
828.08        64.72575
828.49        64.58468
828.90        64.44643
829.31        64.35888
829.72        64.40646
830.12        64.61324
830.53        64.92191
830.94        65.23766
831.35        65.38491
831.75        65.34943
832.16        65.13751
832.57        64.87204
832.97         64.7485
833.38        64.80331
833.79        64.96729
834.20        65.16097
834.60        65.25247
835.01        65.22078
835.42        65.12684
835.82        64.97733
836.23          64.731
836.64        64.42577
837.04        64.06497
837.45         63.7706
837.86        63.78172
838.26        64.14571
838.67        64.77676
839.08        65.45123
839.48        65.73963
839.89        65.53273
840.29        64.98199
840.70        64.38491
841.11        64.12433
841.51        64.30709
841.92        64.76009
842.33        65.37979
842.73        65.98848
843.14        66.40618
843.54        66.73866
843.95        66.87273
844.35        66.69638
844.76        66.23218
845.17        65.54715
845.57        64.84144
845.98        64.44331
846.38        64.43096
846.79        64.71851
847.19        65.23589
847.60        65.71827
848.00         66.1041
848.41        66.38889
848.81        66.61142
849.22        66.75928
849.62        66.87438
850.03        66.89324
850.43        66.84926
850.84        66.74092
851.24        66.62686
851.65        66.48024
852.05        66.36137
852.46        66.25159
852.86        66.16181
853.27        66.11192
853.67        66.06281
854.07        66.06783
854.48        66.10586
854.88        66.20401
855.29        66.26537
855.69        66.25718
856.10        66.09826
856.50        65.86705
856.90        65.66064
857.31        65.68158
857.71        66.03467
858.12        66.58407
858.52        67.16794
858.92        67.43414
859.33        67.28561
859.73        66.83092
860.13        66.23674
860.54         65.8412
860.94        65.81173
861.34        66.03264
861.75        66.28211
862.15         66.2841
862.55        65.93378
862.96        65.37519
863.36        64.79674
863.76        64.48094
864.17        64.50101
864.57        64.76041
864.97        65.16717
865.38        65.57471
865.78        65.96107
866.18        66.29488
866.58         66.4757
866.99        66.34229
867.39         65.9109
867.79        65.21407
868.19         64.3347
868.60        63.39341
869.00         62.4268
869.40        61.48478
869.80        60.76373
870.21        60.55407
870.61        60.95217
871.01        61.82502
871.41        62.83808
871.81        63.45225
872.22        63.55925
872.62        63.30127
873.02        62.85191
873.42        62.77687
873.82          62.954
874.22         62.6109
874.63        62.04163
875.03        61.93732
875.43        62.39628
875.83        64.45528
876.23        64.39508
876.63        63.82012
877.03        62.09627
877.44        59.40679
877.84        137.4658
878.24         60.0782
878.64        61.95013
879.04        66.84047
879.44        62.95391
879.84        60.76713
880.24        65.99117
880.64        66.23601
881.04        62.70744
881.44        60.33894
881.84        59.92129
882.24        60.66906
882.65        62.04541
883.05        62.83521
883.45        62.63457
883.85        62.20625
884.25        61.87789
884.65        61.80169
885.05        62.07043
885.45        62.57037
885.85        63.09932
886.25        63.37069
886.65        63.30698
887.05        63.01606
887.45        62.69245
887.85        62.61857
888.25        62.86217
888.65        63.33202
889.04        63.89192
889.44        64.23528
889.84        64.29389
890.24        64.14753
890.64        63.89844
891.04        63.70433
891.44        63.59256
891.84        63.47804
892.24        63.32296
892.64        63.07362
893.04        62.73559
893.44        62.40353
893.83        62.01865
894.23        61.50022
894.63        60.85131
895.03        60.08587
895.43        59.45488
895.83         59.3779
896.23        59.91538
896.63        60.94014
897.02        62.03467
897.42        62.44154
897.82        61.99268
898.22        60.93038
898.62        59.71135
899.01        59.03611
899.41          59.103
899.81         59.6711
900.21        60.48098
900.61         61.1442
901.00        61.52511
901.40        61.71661
901.80        61.80836
902.20        61.92159
902.59        62.09823
902.99        62.28273
903.39        62.36441
903.79        62.18211
904.18        61.72545
904.58        61.11746
904.98        60.60152
905.38        60.54365
905.77        60.99132
906.17        61.81228
906.57        62.70768
906.96        63.23549
907.36        63.22723
907.76        62.79768
908.15        62.18567
908.55        61.72026
908.95        61.53335
909.34        61.58522
909.74         61.6565
910.14        61.35944
910.53        60.62329
910.93        59.62557
911.33        58.83644
911.72        58.99094
912.12          60.137
912.52        61.95202
912.91        63.76664
913.31        64.47048
913.70        63.87263
914.10          62.272
914.49        60.20338
914.89        58.86069
915.29        58.67148
915.68        59.29742
916.08        60.34449
916.47        61.25076
916.87        61.80046
917.26        62.15276
917.66        62.33951
918.05        62.43874
918.45        62.46345
918.84        62.41041
919.24        62.15512
919.64        61.53825
920.03        60.60385
920.42        59.47779
920.82        58.61106
921.21        58.63099
921.61        59.56832
922.00        61.23823
922.40        62.99742
922.79        64.03128
923.19        64.11182
923.58        63.20602
923.98        61.60424
924.37        60.73721
924.77        61.17724
925.16         58.4705
925.55        60.11608
925.95        59.93308
926.34        60.14955
926.74        60.56743
927.13         61.1757
927.52         61.7019
927.92         62.0358
928.31        62.30413
928.70        62.43951
929.10         62.3974
929.49        62.18365
929.89        61.78861
930.28        61.43244
930.67        61.47616
931.07        61.94502
931.46        62.79409
931.85         63.6209
932.24        63.82161
932.64        63.26836
933.03        62.02219
933.42        60.52621
933.82        59.69969
934.21        59.78167
934.60        60.52639
934.99        61.17366
935.39        61.02823
935.78        60.01263
936.17        57.65637
936.56        54.33096
936.96        55.60509
937.35         54.9788
937.74        57.43671
938.13        59.93795
938.53        61.62691
938.92        62.38644
939.31        62.53939
939.70        62.34645
940.09        62.09965
940.49        61.97715
940.88        61.90366
941.27        61.88364
941.66        61.97476
942.05        62.16188
942.44         62.4153
942.84        62.77733
943.23        63.29705
943.62        63.91922
944.01        64.64881
944.40        65.13072
944.79         64.8051
945.18        63.58702
945.57        61.59416
945.97        59.54848
946.36        58.71259
946.75        59.48309
947.14        61.41105
947.53         63.5673
947.92          64.677
948.31        64.49606
948.70        63.41003
949.09        61.96513
949.48        61.11832
949.87         61.1678
950.26        61.78055
950.65        62.58844
951.04        63.00009
951.43        62.83023
951.82        62.33224
952.21         61.6674
952.60        61.05726
952.99         60.6031
953.38        60.19552
953.77        59.91334
954.16        59.90322
954.55        60.15891
954.94        60.67089
955.33        61.19366
955.72        61.29585
956.11        60.89177
956.50        60.08596
956.89        59.20837
957.28        58.91017
957.66        59.37577
958.05        60.27128
958.44          61.266
958.83         61.9168
959.22        62.11182
959.61        62.01807
960.00        61.60135
960.39        60.82129
960.78        59.76736
961.16        58.44446
961.55        57.25918
961.94        56.71473
962.33         56.9011
962.72        57.72599
963.11        58.75122
963.49        59.19839
963.88         58.7884
964.27        57.76181
964.66        56.61582
965.04         56.1893
965.43        56.67834
965.82        57.81215
966.21        59.11939
966.60        59.84027
966.98        59.78031
967.37        59.16816
967.76        58.38566
968.15        58.01828
968.53         58.2356
968.92        58.74831
969.31        59.32691
969.69        59.60497
970.08        59.40511
970.47        58.90267
970.86        58.14627
971.24        57.16016
971.63        56.07556
972.02         54.9141
972.40        53.83987
972.79        53.17725
973.17         53.0329
973.56        53.27305
973.95        53.85333
974.33        54.64621
974.72        55.42502
975.11        56.17916
975.49        56.68626
975.88        56.61529
976.26        55.95427
976.65        54.86119
977.04        53.58821
977.42        52.59855
977.81        52.09821
978.19        51.95543
978.58        52.23911
978.96        53.02851
979.35        54.20716
979.74        55.83178
980.12        57.47496
980.51        58.12785
980.89        57.69617
981.28        56.39437
981.66        54.98949
982.05        54.57024
982.43        55.30308
982.82        56.83058
983.20        58.61872
983.59        59.42128
983.97         58.9442
984.35        57.49462
984.74        55.68513
985.12        54.35151
985.51        53.76522
985.89        53.65472
986.28        53.78248
986.66        53.73425
987.04        53.33023
987.43        52.81012
987.81        52.20144
988.20        51.43772
988.58        50.43002
988.96        49.02327
989.35        47.42386
989.73        46.32888
990.12         46.2068
990.50        46.98973
990.88        48.03334
991.27        48.49865
991.65        48.44682
992.03        48.07653
992.42        47.87454
992.80        48.63883
993.18        50.51697
993.56        52.92333
993.95        55.27699
994.33        57.26134
994.71        58.57319
995.10        59.35912
995.48        59.50961
995.86         58.7466
996.24        57.08399
996.63        54.56949
997.01        51.60438
997.39        49.54834
997.77        49.09018
998.15        49.89681
998.54        51.27614
998.92        52.42694
999.30        53.16638
999.68        53.76215
1000.06        53.95144
1000.45        53.13658
1000.83        51.45084
1001.21        49.28617
1001.59        47.42806
1001.97        46.41284
1002.35          46.082
1002.73        46.25562
1003.12        46.64204
1003.50        46.61101
1003.88        45.90419
1004.26        44.85714
1004.64        43.67484
1005.02        42.56928
1005.40        41.63723
1005.78        40.72047
1006.16        40.28756
1006.54        41.22607
1006.92        43.28678
1007.30        45.70024
1007.69        47.49567
1008.07        47.88919
1008.45        46.57007
1008.83        43.46905
1009.21        37.86334
1009.59        29.99798
1009.97        21.86595
1010.35        15.01032
1010.73        12.00476
1011.11        14.18878
1011.49         20.4607
1011.86        29.90493
1012.24        38.74658
1012.62          43.419
1013.00         43.6215
1013.38        40.56646
1013.76         36.0612
1014.14        33.31376
1014.52        33.33905
1014.90        35.20031
1015.28        37.59716
1015.66        38.32789
1016.04        36.64001
1016.41        33.17724
1016.79        28.96365
1017.17        26.33168
1017.55        26.37069
1017.93        28.01231
1018.31        30.12795
1018.69        31.82318
1019.06        32.86266
1019.44        33.25307
1019.82        32.92212
1020.20        31.57132
1020.58          29.213
1020.95        26.20378
1021.33        22.18414
1021.71        15.32797
1022.09        3.586426
1022.46       -18.61051
1022.84       -51.72827
1023.22       -63.16774
1023.60       -33.81997
1023.97       0.8968289
1024.35        21.17049
1024.73         28.7553
