SpectraSmart Spectrum 2.9.0.0
--------- Device Information -----------
Spectrum Name :  反射率_0
Saving Time :  2024/04/20 00:15:09
Spectro-Module Model Name : SE2030-DUVN
Spectro-Module Serial Number : OS361AC55029948
Wavelength Start : 200
Wavelength End : 1025
Wavelength Unit : Wavelength(nm)
Spectrum Unit : Reflectance(%)
-----------Spectrum Setting ------------
Integration Time : 30ms
Average : 10
Boxcar : 0
Background removal :  enabled
linearity correction :  enabled
SC :  disabled
Intensity correction :  disabled
DWT denoise :  enabled
savitzky-golay :  disabled
FFT :  disabled
Running average :  disabled
Kalman :  disabled
High pass :  disabled
---------------BEGIN--------------------
Wavelength(nm)             Reflectance(%)
200.29               0
200.75        47.01016
201.21        47.90518
201.67        51.56675
202.13        57.32746
202.58        64.46455
203.04        73.36356
203.50         81.6543
203.96        83.49353
204.42        78.73761
204.88        71.15586
205.34         63.9333
205.80        58.18204
206.26        52.86203
206.72        46.31442
207.18         38.2412
207.64         32.5141
208.10        33.77304
208.55        41.40921
209.01        49.69744
209.47        54.16251
209.93        54.86865
210.39        53.32146
210.85        50.95469
211.31        49.34594
211.77        48.73331
212.23        48.58608
212.69        48.65955
213.14        48.60221
213.60        48.02598
214.06        47.86472
214.52        48.09493
214.98        48.69622
215.44        49.57642
215.90        50.33839
216.36        51.28834
216.81        52.87209
217.27        54.78566
217.73        56.97158
218.19        57.60368
218.65        54.04382
219.11        45.88623
219.57        33.29385
220.02        19.21487
220.48        11.77015
220.94         13.8704
221.40        24.07829
221.86        36.88276
222.32        43.59033
222.77        42.19233
223.23        35.55619
223.69        28.04869
224.15         25.9223
224.61        29.32456
225.06        34.89224
225.52        39.68048
225.98        41.47363
226.44        40.24522
226.90        37.18332
227.36        33.18187
227.81        29.76318
228.27        28.01249
228.73        27.38397
229.19        27.67261
229.65        28.64613
230.10        29.99747
230.56        31.54931
231.02        33.10254
231.48        34.38171
231.93        35.30202
232.39        35.95638
232.85        36.13455
233.31        35.54307
233.77        34.22118
234.22        32.25812
234.68        30.27875
235.14        29.27935
235.60        29.53241
236.05        30.81115
236.51        32.49113
236.97        33.56771
237.43        33.80774
237.88        33.51015
238.34        32.99281
238.80        33.43493
239.26        35.37066
239.71        38.15401
240.17        41.16124
240.63        44.13069
241.08        47.00013
241.54         49.8644
242.00        51.94194
242.46        51.66481
242.91        48.20003
243.37          40.404
243.83        28.82352
244.28        21.04557
244.74          24.875
245.20        39.32479
245.66        53.86375
246.11        58.94932
246.57        53.71916
247.03        38.88427
247.48        18.55284
247.94        13.70268
248.40        26.57643
248.85        42.14822
249.31        53.38488
249.77        59.10982
250.22        60.97201
250.68        60.75409
251.14        59.11171
251.59          57.049
252.05         55.5151
252.51        54.28097
252.96        53.02831
253.42        51.64052
253.88        50.24145
254.33        49.11252
254.79        49.45529
255.25        52.06324
255.70        56.30207
256.16        61.10139
256.62        64.63248
257.07        64.87745
257.53        62.12891
257.99        57.39154
258.44        52.08304
258.90         48.7171
259.35          47.187
259.81        46.94266
260.27        46.74466
260.72        45.54004
261.18        43.54428
261.63        40.84922
262.09         38.5154
262.55        37.55642
263.00        37.90702
263.46        39.09444
263.91         39.9838
264.37        39.43562
264.83        37.48299
265.28        34.62937
265.74        32.01579
266.19        30.84929
266.65        31.27299
267.11        32.66631
267.56         34.1857
268.02        34.60295
268.47         33.7105
268.93        31.92022
269.38        29.77754
269.84        28.39054
270.30        28.03178
270.75        28.36403
271.21        28.88185
271.66        28.84983
272.12        28.08678
272.57        26.86296
273.03        25.57412
273.48        24.74305
273.94        24.52617
274.39        24.68825
274.85        24.94591
275.31         24.8955
275.76        24.43475
276.22        23.72492
276.67         22.9485
277.13        22.44726
277.58         22.2445
278.04        22.24401
278.49        22.22385
278.95         21.9185
279.40        21.27619
279.86        20.47133
280.31        19.66273
280.77        19.17739
281.22        19.01458
281.68        19.07533
282.13        19.20015
282.59        19.17347
283.04        18.94914
283.50        18.63553
283.95        18.28796
284.41         18.0012
284.86         17.7978
285.32        17.65501
285.77        17.60111
286.22        17.73734
286.68        18.03832
287.13        18.44114
287.59        18.81144
288.04        18.94767
288.50        18.83239
288.95        18.51037
289.41        18.10917
289.86         17.7606
290.32        17.55795
290.77        17.45844
291.22        17.46581
291.68        17.54799
292.13        17.69652
292.59         17.9323
293.04        18.25522
293.50        18.66609
293.95        19.14839
294.40        19.67837
294.86        20.22015
295.31        20.73755
295.77        21.21913
296.22        21.66884
296.68        22.09997
297.13         22.5136
297.58        22.92429
298.04        23.33864
298.49        23.76302
298.95        24.24088
299.40        24.76515
299.85        25.32297
300.31        25.88596
300.76        26.41239
301.21        26.88588
301.67        27.33602
302.12         27.7403
302.58        28.11297
303.03        28.44317
303.48        28.73962
303.94        29.05948
304.39         29.4571
304.84        29.94112
305.30        30.47971
305.75        30.97783
306.20        31.30634
306.66        31.46136
307.11        31.47933
307.57        31.44938
308.02        31.44265
308.47        31.50476
308.93        31.59782
309.38        31.72461
309.83        31.93254
310.29        32.20106
310.74        32.51794
311.19        32.75734
311.65        32.71905
312.10        32.37778
312.55        31.80283
313.00        31.18228
313.46        30.80614
313.91        30.72848
314.36         30.8864
314.82        31.12594
315.27        31.21084
315.72        31.06616
316.18        30.77437
316.63        30.44603
317.08        30.25473
317.53        30.23469
317.99        30.30928
318.44        30.39052
318.89        30.33309
319.35        30.10046
319.80        29.75174
320.25        29.35003
320.70         28.9925
321.16        28.71085
321.61        28.47706
322.06        28.28108
322.51        28.11002
322.97        27.94534
323.42        27.79974
323.87        27.63829
324.32        27.40503
324.78         27.0864
325.23        26.70215
325.68        26.28971
326.13        25.92194
326.59         25.6278
327.04        25.41587
327.49         25.2638
327.94        25.13286
328.39        25.00678
328.85        24.87315
329.30        24.78527
329.75        24.79552
330.20        24.89962
330.66        25.04898
331.11        25.15859
331.56        25.04717
332.01        24.67886
332.46        24.10455
332.92        23.45527
333.37        22.95908
333.82        22.70046
334.27        22.64767
334.72        22.71091
335.17        22.72329
335.63        22.62289
336.08        22.45483
336.53        22.31127
336.98        22.35227
337.43        22.59973
337.88        22.98906
338.34        23.32721
338.79        23.35518
339.24         23.0035
339.69         22.3555
340.14        21.65212
340.59        21.29718
341.05        21.37877
341.50        21.78207
341.95        22.26868
342.40         22.4653
342.85        22.28358
343.30        21.85629
343.75        21.33978
344.20        20.98707
344.66        20.86986
345.11        20.87032
345.56        20.94186
346.01        21.01395
346.46        21.04157
346.91        21.06775
347.36        21.00695
347.81        20.71246
348.26        20.19344
348.72        19.53031
349.17         18.8842
349.62        18.60684
350.07        18.77387
350.52        19.25901
350.97         19.8812
351.42        20.36648
351.87        20.62245
352.32         20.7175
352.77        20.66267
353.22        20.48268
353.67        20.21205
354.13        19.85438
354.58         19.4708
355.03        19.20148
355.48        19.08109
355.93        19.09203
356.38        19.17165
356.83        19.20447
357.28        19.15454
357.73        19.04615
358.18        18.91518
358.63         18.8249
359.08        18.78893
359.53        18.77961
359.98        18.75412
360.43        18.65163
360.88        18.46504
361.33        18.22405
361.78        17.97773
362.23        17.80406
362.68        17.72012
363.13        17.69097
363.58        17.68433
364.03          17.651
364.48        17.57032
364.93        17.46003
365.38        17.30169
365.83        17.06694
366.28        16.76679
366.73         16.4179
367.18        16.09085
367.63        15.89496
368.08        15.84828
368.53        15.91585
368.98        16.02625
369.43        16.06433
369.88        16.00071
370.33        15.87095
370.78        15.70901
371.23        15.57705
371.68        15.49679
372.13        15.43747
372.58        15.40452
373.03        15.41102
373.48        15.44669
373.93         15.5088
374.38        15.54171
374.83        15.45684
375.28        15.24264
375.72        14.91759
376.17        14.58054
376.62        14.35109
377.07        14.26734
377.52        14.29844
377.97        14.38594
378.42        14.43587
378.87        14.41985
379.32        14.36087
379.77        14.29965
380.22        14.29611
380.67        14.35969
381.11        14.46982
381.56        14.56116
382.01        14.54459
382.46        14.40038
382.91        14.15481
383.36        13.89255
383.81        13.74015
384.26        13.72265
384.71         13.8085
385.15        13.89797
385.60        13.83839
386.05        13.60468
386.50        13.24971
386.95        12.89713
387.40         12.7402
387.85        12.81284
388.29        13.04275
388.74        13.29505
389.19        13.38557
389.64        13.27674
390.09         13.0271
390.54        12.73659
390.98        12.55875
391.43        12.54739
391.88        12.63959
392.33        12.75332
392.78        12.77326
393.23        12.68018
393.67        12.51009
394.12        12.34808
394.57        12.26398
395.02        12.27349
395.47        12.34988
395.91          12.443
396.36        12.45461
396.81        12.36551
397.26        12.20049
397.71         12.0306
398.15        11.94827
398.60        11.98412
399.05        12.10087
399.50        12.21264
399.95        12.19586
400.39        12.02789
400.84        11.74219
401.29        11.44636
401.74        11.33714
402.18        11.46739
402.63        11.76611
403.08        12.08257
403.53        12.17892
403.97        12.00844
404.42        11.66035
404.87        11.28022
405.32        11.10576
405.76        11.19392
406.21        11.45806
406.66        11.78439
407.11        11.99852
407.55        12.04947
408.00        11.99514
408.45        11.87811
408.90        11.74106
409.34        11.62684
409.79        11.57066
410.24        11.55621
410.68        11.51293
411.13        11.43955
411.58        11.39149
412.03        11.36234
412.47        11.32029
412.92        11.26255
413.37        11.18923
413.81        11.14221
414.26        11.19895
414.71        11.35955
415.15        11.60485
415.60        11.82765
416.05        11.87452
416.49        11.71178
416.94        11.39859
417.39        11.04892
417.83         10.8493
418.28        10.85218
418.73        10.98741
419.17        11.18031
419.62        11.29984
420.07        11.31019
420.51          11.257
420.96         11.1537
421.41        11.00372
421.85        10.82397
422.30         10.6259
422.74        10.45798
423.19        10.41588
423.64        10.50533
424.08        10.70583
424.53        10.93985
424.98        11.08336
425.42        11.09723
425.87        11.01982
426.31        10.88757
426.76         10.7705
427.21        10.68494
427.65        10.59868
428.10        10.54566
428.54        10.56507
428.99        10.65778
429.44        10.86312
429.88        11.06913
430.33        11.02239
430.77        10.75629
431.22        10.51543
431.66        10.38646
432.11        10.38944
432.56        10.53346
433.00        10.84374
433.45        11.15709
433.89         11.2061
434.34        11.02658
434.78        10.76593
435.23        10.47155
435.67        10.91066
436.12        10.57282
436.57        10.57083
437.01        10.47225
437.46        10.43867
437.90        10.46642
438.35        10.47956
438.79        10.46754
439.24        10.45982
439.68        10.45392
440.13        10.35217
440.57        10.20706
441.02        10.26844
441.46        10.43604
441.91        10.39777
442.35        9.923409
442.80         9.72435
443.24        9.697944
443.69        9.629287
444.13         9.51068
444.58        9.443498
445.02        9.431331
445.47        9.471517
445.91         9.53258
446.36        9.542613
446.80        9.484725
447.24        9.389976
447.69         9.28688
448.13        9.195557
448.58        9.132637
449.02        9.092896
449.47         9.06465
449.91         9.02447
450.36        8.973479
450.80        8.918349
451.25        8.887573
451.69        8.912002
452.13        8.995738
452.58         9.11344
453.02        9.234424
453.47        9.308196
453.91         9.32382
454.36        9.295687
454.80        9.232727
455.24        9.154417
455.69        9.078691
456.13        8.993596
456.58         8.92858
457.02        8.919733
457.46        8.969238
457.91        9.045866
458.35        9.122486
458.79        9.173053
459.24        9.187845
459.68        9.171782
460.13        9.175662
460.57        9.186563
461.01        9.203839
461.46        9.462075
461.90        9.572622
462.34        9.498755
462.79        9.550555
463.23        9.420484
463.68        9.288235
464.12        9.192575
464.56        9.229074
465.01        9.314141
465.45        9.410278
465.89         9.46897
466.34        9.482106
466.78        9.437775
467.22        9.371661
467.67        9.408517
468.11        9.529757
468.55        9.540432
468.99        9.459079
469.44         9.47166
469.88        9.585154
470.32        9.697262
470.77        9.766354
471.21        9.780169
471.65        9.730381
472.10        9.627327
472.54        9.514605
472.98        9.488807
473.42        9.566651
473.87        9.688654
474.31        9.815833
474.75        9.944707
475.20        10.03852
475.64        10.00674
476.08        9.897776
476.52        9.873917
476.97        9.951042
477.41        10.06009
477.85        10.15963
478.29         10.2139
478.74        10.21164
479.18        10.14553
479.62        10.07451
480.06        10.09318
480.50        10.20157
480.95        10.32029
481.39         10.3996
481.83        10.41504
482.27        10.35927
482.72         10.2441
483.16        10.12022
483.60        10.08073
484.04        10.13929
484.48        10.30548
484.93        10.59327
485.37        10.78956
485.81        10.85035
486.25        11.35366
486.69        11.23655
487.14        10.83864
487.58        11.10207
488.02        11.83497
488.46          11.558
488.90        11.54238
489.34        11.34036
489.79        11.49136
490.23        11.91844
490.67        12.14224
491.11        12.11619
491.55        11.99933
491.99        11.85568
492.43        11.78452
492.88        11.82047
493.32        11.87396
493.76        11.95049
494.20        12.10688
494.64        12.33718
495.08        12.61276
495.52        12.88656
495.96        13.09993
496.41         13.2376
496.85        13.28932
497.29        13.29653
497.73        13.39363
498.17        13.58009
498.61         13.7027
499.05        13.76094
499.49         13.8925
499.93        14.10007
500.37        14.26729
500.82         14.3942
501.26        14.60177
501.70        14.85216
502.14         14.9424
502.58          14.891
503.02        14.90166
503.46        14.98916
503.90        15.04606
504.34        15.06034
504.78        15.06232
505.22        15.05404
505.66        15.03621
506.10        15.02538
506.54        15.04384
506.98        15.09845
507.42        15.18497
507.86        15.29382
508.30        15.40795
508.74        15.51654
509.18        15.61595
509.62        15.70605
510.06        15.78796
510.50        15.86287
510.94        15.93524
511.38        15.98852
511.82        15.99748
512.26        15.96241
512.70        15.89013
513.14        15.83099
513.58        15.86088
514.02        15.98371
514.46        16.17544
514.90        16.36412
515.34        16.38135
515.78        16.21984
516.22        16.01203
516.66        15.85556
517.10        15.54613
517.54        15.11304
517.98        15.74543
518.42        15.63963
518.86        15.90941
519.30        15.99701
519.74        16.08672
520.18        16.15764
520.62         16.1527
521.06        16.09051
521.50        15.96922
521.93        15.82616
522.37        15.73368
522.81        15.70811
523.25        15.73192
523.69        15.78055
524.13         15.8137
524.57         15.8145
525.01        15.78967
525.45        15.74384
525.89        15.68381
526.32        15.61346
526.76        15.53589
527.20         15.4414
527.64        15.31979
528.08        15.17477
528.52        15.01111
528.96        14.86855
529.40        14.80379
529.83        14.82348
530.27        14.91487
530.71         15.0107
531.15        15.00452
531.59        14.87809
532.03        14.66391
532.46        14.44357
532.90        14.36157
533.34        14.43727
533.78        14.61783
534.22        14.81625
534.66        14.89951
535.09        14.83317
535.53        14.66928
535.97        14.46146
536.41        14.29104
536.85        14.18943
537.28        14.14076
537.72        14.14185
538.16        14.14313
538.60        14.20473
539.04        14.27108
539.47        14.34742
539.91        14.44381
540.35         14.5643
540.79        14.57787
541.22        14.67336
541.66        14.75035
542.10         14.8785
542.54        14.81634
542.97        14.96042
543.41        15.04309
543.85        15.17227
544.29        15.30908
544.72        15.42877
545.16        15.53674
545.60        15.62686
546.04        15.65248
546.47        15.67125
546.91        15.87463
547.35        16.22415
547.79        16.50002
548.22        16.66057
548.66        16.75536
549.10        16.81275
549.53        16.95424
549.97        17.18826
550.41         17.2115
550.84        17.34478
551.28        17.41943
551.72        17.55659
552.15        17.73807
552.59        17.96413
553.03        18.22739
553.46        18.47784
553.90        18.65563
554.34        18.74887
554.77        18.77694
555.21         18.7821
555.65        18.82195
556.08        18.91037
556.52        19.02845
556.96        19.16009
557.39        19.30592
557.83        19.44987
558.27        19.54602
558.70        19.59721
559.14        19.64506
559.57        19.68723
560.01        19.72463
560.45        19.74807
560.88        19.71919
561.32        19.68398
561.75        19.69806
562.19        19.83464
562.63        19.92388
563.06        19.97992
563.50        20.05705
563.93        20.15244
564.37        20.29757
564.80        20.39514
565.24         20.5241
565.68        20.63492
566.11        20.72348
566.55        20.80298
566.98        20.83602
567.42        20.83197
567.85        21.06813
568.29        21.00741
568.72        21.28505
569.16        21.66351
569.60        21.91592
570.03        22.00852
570.47        22.08107
570.90        22.05208
571.34        22.34885
571.77        22.26328
572.21        22.54178
572.64        22.62167
573.08        22.87143
573.51        23.06579
573.95        23.41583
574.38         23.6507
574.82         23.7223
575.25        23.62815
575.69        23.48432
576.12        23.52467
576.56        23.52348
576.99        23.60001
577.42        23.48138
577.86        23.48433
578.29        23.65722
578.73        23.89938
579.16        23.50124
579.60        23.43885
580.03        23.60189
580.47        23.41376
580.90        23.20229
581.33        23.07302
581.77        23.03311
582.20         23.1444
582.64        22.79248
583.07        22.46428
583.51        22.75779
583.94        22.37744
584.37        22.33778
584.81        21.93889
585.24        21.82033
585.68        21.86778
586.11        21.82049
586.54        21.90588
586.98        21.60934
587.41        21.74288
587.85        21.68344
588.28        21.63468
588.71        21.47807
589.15        21.30392
589.58        21.02728
590.01        21.39725
590.45        21.60206
590.88        21.46082
591.31        21.34266
591.75        21.17909
592.18        21.26007
592.61        21.09177
593.05        21.42074
593.48        21.34339
593.91        21.66262
594.35        21.52861
594.78        21.46563
595.21        21.90793
595.65         22.1445
596.08         21.9866
596.51        21.99531
596.94         22.1142
597.38          22.282
597.81        22.52143
598.24        22.68856
598.68        23.13143
599.11        23.36209
599.54        23.87553
599.97        23.80709
600.41        24.10587
600.84        24.58732
601.27        24.96122
601.70        25.28954
602.14        25.43963
602.57         25.8521
603.00        26.48692
603.43        26.86849
603.87        27.01098
604.30        27.35909
604.73        27.93925
605.16        28.10166
605.60        28.59503
606.03        28.94397
606.46        29.29126
606.89        29.81451
607.32        30.15523
607.76        30.38835
608.19        30.57451
608.62        31.03679
609.05        31.05364
609.48        31.30624
609.92        31.59688
610.35        31.66195
610.78        32.50355
611.21        32.86679
611.64        32.81302
612.07        33.29262
612.50        33.45369
612.94        33.51254
613.37         33.9329
613.80        34.14745
614.23        34.35268
614.66        34.75179
615.09        34.98923
615.52        35.33142
615.96        35.61283
616.39        35.83341
616.82        36.02622
617.25         35.9901
617.68        36.16728
618.11        36.45567
618.54        36.86338
618.97        36.88387
619.40        36.54765
619.84        36.69445
620.27        36.58927
620.70        36.93793
621.13        37.39491
621.56        37.63743
621.99        37.69678
622.42        37.67006
622.85        37.64262
623.28        37.65053
623.71        37.73397
624.14        37.78097
624.57         37.8109
625.00        37.89151
625.43         37.9289
625.86        37.51506
626.29        37.55069
626.72        37.39936
627.15        37.35283
627.58        37.30342
628.01        37.19072
628.44        37.23347
628.87        36.90192
629.30        36.56954
629.73        36.24618
630.16        35.95797
630.59          35.794
631.02         35.5871
631.45          35.331
631.88        35.05442
632.31         34.7447
632.74        34.36374
633.17        33.93803
633.60        33.53904
634.03         33.1817
634.46        32.84845
634.89        32.51148
635.32        32.12527
635.75        31.68542
636.18         31.2171
636.61        30.75757
637.04        30.35953
637.47        30.03322
637.89        29.76005
638.32        29.51183
638.75         29.2575
639.18        28.98755
639.61        28.71954
640.04        28.45034
640.47        28.17142
640.90        27.88833
641.33        27.60381
641.76        27.35381
642.18        27.20091
642.61        27.15074
643.04        27.18574
643.47        27.25897
643.90        27.29042
644.33        27.26087
644.76        27.19743
645.18        27.13296
645.61        27.12704
646.04        27.19771
646.47        27.32452
646.90        27.50599
647.33        27.74025
647.75        28.02045
648.18        28.34525
648.61        28.68642
649.04        29.00022
649.47        29.28435
649.89        29.53228
650.32        29.78715
650.75        30.18102
651.18        30.71431
651.61        31.19436
652.03        31.61933
652.46        32.26917
652.89        33.09596
653.32        33.51047
653.74        33.53251
654.17        34.24541
654.60        34.65428
655.03        35.30466
655.46        35.13434
655.88         36.4056
656.31        37.40779
656.74        40.86939
657.16        39.41952
657.59        37.41436
658.02        37.68356
658.45        38.24361
658.87        39.24302
659.30        39.70483
659.73        39.98265
660.15        40.55397
660.58        40.87016
661.01        40.90791
661.44        40.65062
661.86        40.82647
662.29        41.41843
662.72         41.9727
663.14        42.36447
663.57        42.45218
664.00        42.33351
664.42        42.40596
664.85        42.71819
665.27        42.98838
665.70        43.16965
666.13        43.35532
666.55        43.53742
666.98        43.68452
667.41         43.8017
667.83        43.89482
668.26        43.96537
668.69        44.02433
669.11        44.08092
669.54        44.14523
669.96        44.22778
670.39        44.32252
670.82        44.44131
671.24        44.61582
671.67        44.84324
672.09        45.06193
672.52        45.22961
672.94        45.43046
673.37        45.49384
673.80        45.37032
674.22        45.11922
674.65        45.04232
675.07         45.1858
675.50        45.41376
675.92        45.65419
676.35        45.77436
676.77        45.73809
677.20        45.71748
677.62        45.54144
678.05        45.50321
678.47        45.55808
678.90        45.68184
679.32        45.83567
679.75        45.96886
680.17        46.06392
680.60        46.13315
681.02        46.19112
681.45        46.24725
681.87        46.31709
682.30        46.38168
682.72         46.4384
683.15        46.49276
683.57         46.5552
684.00        46.52545
684.42        46.59882
684.85        46.67325
685.27         46.8032
685.70          46.964
686.12        47.10805
686.54        47.20754
686.97        47.25271
687.39         47.1187
687.82        47.09897
688.24        47.06755
688.66        47.11555
689.09        47.21292
689.51        47.33158
689.94        47.40299
690.36        47.42366
690.78        47.39287
691.21        47.32735
691.63        47.36881
692.06        47.55133
692.48        47.47049
692.90         47.5722
693.33        47.91227
693.75        47.80499
694.17         47.9163
694.60        47.97975
695.02        47.95914
695.44        47.83656
695.87        47.71532
696.29        47.64848
696.71        47.55264
697.14        47.53978
697.56        47.91902
697.98         48.4952
698.41        48.95559
698.83        48.66503
699.25        48.38912
699.68        48.10822
700.10         47.9688
700.52        48.03637
700.94        48.27384
701.37        48.58064
701.79         48.8214
702.21         48.9267
702.64        48.94237
703.06        48.91911
703.48        48.94215
703.90        49.03507
704.33         49.1575
704.75        49.26713
705.17        49.28192
705.59        49.18846
706.01        49.02552
706.44        48.86165
706.86        48.80162
707.28        48.86673
707.70        49.01999
708.12        49.21491
708.55        49.37339
708.97        49.46881
709.39        49.52859
709.81        49.55415
710.23         49.5508
710.66        49.52731
711.08        49.48517
711.50        49.44984
711.92        49.44874
712.34        49.48719
712.76        49.61287
713.19        49.79728
713.61        49.75637
714.03        49.88959
714.45        49.86303
714.87         49.8474
715.29        49.89791
715.71        50.02801
716.13        50.21127
716.56        50.37859
716.98        50.48446
717.40         50.4895
717.82        50.41814
718.24        50.32086
718.66        50.27962
719.08        50.31517
719.50        50.39869
719.92        50.49626
720.34         50.5519
720.76        50.55077
721.19        50.51581
721.61        50.46614
722.03        50.40574
722.45        50.35966
722.87        50.31131
723.29        50.29132
723.71         50.3434
724.13        50.47247
724.55        50.66799
724.97         50.8792
725.39        51.01797
725.81        51.05977
726.23        51.03231
726.65        50.98952
727.07        50.99944
727.49        51.07538
727.91        51.28273
728.33        51.40548
728.75        51.50713
729.17         51.5163
729.59        51.47227
730.01        51.39174
730.43        51.30894
730.85        51.24765
731.27        51.17485
731.69        51.12934
732.10        51.23828
732.52        51.47116
732.94        51.67224
733.36        51.80131
733.78        51.91444
734.20        52.01097
734.62        52.00264
735.04        51.88839
735.46        51.84824
735.88        51.92411
736.30          51.514
736.72        51.65654
737.13        51.67559
737.55        51.82398
737.97        52.11114
738.39        52.41803
738.81        52.36116
739.23        52.00333
739.65         51.8858
740.06        52.01016
740.48        52.09533
740.90        52.06512
741.32        51.88799
741.74        51.65231
742.16        51.65249
742.57        51.92421
742.99        52.25139
743.41        52.53964
743.83        52.71362
744.25        52.73225
744.67        52.60738
745.08        52.40243
745.50         52.2099
745.92        52.08074
746.34         51.9937
746.75        51.94427
747.17        51.92133
747.59        51.92493
748.01        51.97223
748.42         52.0621
748.84        52.18972
749.26        52.35454
749.68         52.4512
750.09        52.49891
750.51        52.71704
750.93        53.00239
751.35        52.93258
751.76         52.5854
752.18        52.28558
752.60        52.40742
753.01        52.39413
753.43         52.3479
753.85        52.39787
754.27        52.53973
754.68        52.80441
755.10        53.07809
755.52        53.04682
755.93        52.75832
756.35        52.60321
756.77        52.64975
757.18        52.69983
757.60         52.7855
758.02        53.02418
758.43        53.31683
758.85        53.42721
759.26        53.69332
759.68        53.18791
760.10         53.2146
760.51         52.9763
760.93        52.96016
761.34        52.40477
761.76        52.87034
762.18        52.79416
762.59        52.67629
763.01        52.78674
763.42        53.14384
763.84        53.36396
764.26        53.40437
764.67        53.36935
765.09        53.36063
765.50        53.44999
765.92        53.64791
766.33        53.90643
766.75        54.08053
767.16        53.95224
767.58        53.55771
768.00        53.26744
768.41        53.21161
768.83        53.35025
769.24        53.61598
769.66        53.87092
770.07        54.01508
770.49        53.95287
770.90        53.77271
771.32        53.80782
771.73        54.04144
772.15        54.13021
772.56        54.04244
772.97        53.89359
773.39        53.69918
773.80        53.52813
774.22        53.39117
774.63        53.23058
775.05        53.11274
775.46         53.1996
775.88        53.48487
776.29        53.94561
776.70        54.39688
777.12        54.54716
777.53        54.34479
777.95        53.86438
778.36        53.31314
778.77        53.04503
779.19        53.14622
779.60         53.5446
780.02        54.02856
780.43        54.35935
780.84        54.45428
781.26        54.18768
781.67        53.78481
782.09        54.09548
782.50        54.92979
782.91        55.03736
783.33        54.45515
783.74        54.29276
784.15        54.57432
784.57        54.69604
784.98        54.59267
785.39         54.3733
785.81        54.08165
786.22        53.86346
786.63        53.77045
787.04          53.734
787.46        53.76975
787.87        53.95393
788.28        54.23076
788.70        54.44709
789.11        54.56395
789.52        54.60701
789.93         54.6255
790.35        54.72046
790.76        54.89209
791.17        55.04157
791.58        55.11547
792.00        55.04158
792.41        54.82813
792.82        54.60113
793.23        54.36755
793.65         54.0392
794.06        53.79131
794.47        53.81589
794.88        54.01318
795.29        54.93898
795.71        55.11695
796.12        54.95623
796.53        55.11574
796.94        54.76492
797.35        54.37631
797.76        54.33541
798.18        54.62968
798.59        54.77103
799.00        54.71518
799.41        54.82463
799.82        55.06591
800.23        55.18835
800.64        55.16377
801.06        55.03699
801.47        54.91463
801.88        54.91149
802.29        55.05342
802.70        55.29266
803.11        55.52202
803.52        55.56948
803.93         55.4008
804.34        55.07675
804.75        54.71481
805.17        54.52921
805.58        54.59448
805.99        54.74043
806.40        54.90277
806.81        55.25293
807.22        55.61761
807.63         55.3898
808.04        54.76243
808.45        54.62647
808.86         55.0698
809.27        55.62111
809.68        56.10065
810.09        56.39254
810.50         56.4044
810.91        56.17695
811.32        55.80182
811.73        55.42648
812.14        55.11363
812.55        54.83257
812.96        54.61223
813.37        54.49657
813.78        54.49638
814.19        54.62463
814.60        54.81123
815.01         54.9383
815.42        54.97544
815.83        54.92587
816.24        54.86012
816.65        54.92001
817.05         55.1381
817.46        55.42994
817.87        55.68379
818.28        55.69594
818.69        55.43798
819.10        54.98152
819.51        54.48661
819.92        54.26789
820.33         54.4215
820.74        54.76871
821.14        55.19873
821.55        55.69141
821.96        56.09273
822.37        56.02779
822.78         55.5998
823.19        55.37765
823.60        55.44113
824.00        55.50053
824.41        55.50579
824.82        55.57852
825.23        55.70504
825.64        55.85616
826.04        56.02151
826.45        56.13869
826.86        56.20054
827.27        56.22071
827.68        56.18022
828.08        56.06795
828.49        55.85577
828.90         55.5742
829.31        55.30209
829.72        55.17467
830.12        55.24577
830.53        55.45379
830.94        55.71255
831.35        55.85985
831.75        55.87314
832.16        55.75288
832.57        55.59819
832.97        55.55777
833.38        55.65667
833.79        55.83977
834.20         56.0207
834.60        56.06326
835.01        55.95311
835.42        55.74352
835.82        55.49997
836.23        55.28641
836.64        55.15134
837.04        55.06942
837.45        55.04575
837.86        55.12403
838.26        55.30565
838.67        55.55994
839.08        55.80087
839.48        55.85178
839.89        55.67934
840.29        55.35814
840.70        55.04216
841.11        54.91138
841.51        55.02534
841.92        55.28461
842.33        55.67476
842.73        56.16881
843.14        56.64796
843.54        57.15359
843.95        57.52203
844.35         57.5545
844.76        57.23314
845.17        56.64463
845.57        55.99311
845.98        55.60673
846.38        55.56892
846.79        55.79087
847.19        56.20514
847.60          56.575
848.00        56.85525
848.41        57.06552
848.81        57.24683
849.22        57.38659
849.62        57.51996
850.03        57.57359
850.43        57.60492
850.84        57.67747
851.24         57.8283
851.65        58.00541
852.05        58.12695
852.46        57.95911
852.86        57.49599
853.27        56.85493
853.67        56.18747
854.07        55.81188
854.48        55.77245
854.88        56.01018
855.29        56.35063
855.69        56.59803
856.10        56.60991
856.50         56.4987
856.90        56.34053
857.31        56.29534
857.71        56.47054
858.12        56.74198
858.52         57.0366
858.92        57.14888
859.33        57.02511
859.73        56.73957
860.13        56.40533
860.54        56.24289
860.94        56.34841
861.34        56.62921
861.75        56.89329
862.15        56.91199
862.55        56.60534
862.96         56.1176
863.36        55.58338
863.76        55.21672
864.17        55.08697
864.57        55.11521
864.97        55.34867
865.38        55.85637
865.78         56.6426
866.18        57.62027
866.58        58.45376
866.99        58.55523
867.39        57.81873
867.79        56.40838
868.19        54.70523
868.60        53.31565
869.00        52.40881
869.40        51.91006
869.80        51.80663
870.21        52.01679
870.61        52.51134
871.01        53.27989
871.41        54.12467
871.81        54.71688
872.22        55.00676
872.62        55.02886
873.02        54.85474
873.42        54.96688
873.82        55.14886
874.22        54.53202
874.63        53.51007
875.03         52.9841
875.43        53.14742
875.83          55.316
876.23        54.84498
876.63         53.7357
877.03        51.17575
877.44        47.42345
877.84        148.6769
878.24        48.13588
878.64        50.73316
879.04         57.3173
879.44        52.68148
879.84        50.32547
880.24        57.31297
880.64        57.94643
881.04        53.82819
881.44        51.07136
881.84        50.61712
882.24         51.5113
882.65        53.08853
883.05        53.78987
883.45        53.15989
883.85        52.17626
884.25        51.39457
884.65        51.19505
885.05         51.7119
885.45        52.75062
885.85        53.88209
886.25        54.43511
886.65        54.23659
887.05        53.52268
887.45        52.70145
887.85        52.38474
888.25        52.71942
888.65        53.49513
889.04         54.4578
889.44        55.10834
889.84        55.29003
890.24        55.15134
890.64        54.80412
891.04         54.4108
891.44        54.02591
891.84        53.56528
892.24        53.07047
892.64        52.63631
893.04        52.30833
893.44        52.14158
893.83        52.01013
894.23        51.71238
894.63        51.22049
895.03        50.57024
895.43        50.01584
895.83        49.98629
896.23        50.54489
896.63        51.54996
897.02        52.58772
897.42        52.92747
897.82        52.41157
898.22        51.29584
898.62        50.03445
899.01        49.32029
899.41        49.34514
899.81        49.86749
900.21        50.65646
900.61         51.3649
901.00        51.85808
901.40        52.21856
901.80        52.46104
902.20        52.58658
902.59        52.60843
902.99        52.49775
903.39        52.26371
903.79        51.94885
904.18        51.59138
904.58        51.26426
904.98        51.04852
905.38        51.05804
905.77        51.30527
906.17        51.74058
906.57        52.26002
906.96        52.72562
907.36        53.01875
907.76        53.13717
908.15         53.1235
908.55        53.00677
908.95        52.83504
909.34        52.65324
909.74        52.36728
910.14        51.79582
910.53        50.95383
910.93        49.96726
911.33         49.2556
911.72        49.48042
912.12        50.65859
912.52        52.49482
912.91        54.35917
913.31        55.18722
913.70        54.78814
914.10        53.44323
914.49        51.58973
914.89        50.27412
915.29        49.88498
915.68        50.15718
916.08        50.82106
916.47        51.49349
916.87        51.99315
917.26        52.44293
917.66        52.82144
918.05        53.10967
918.45        53.28858
918.84        53.37763
919.24        53.27381
919.64        52.85018
920.03        52.14117
920.42        51.22442
920.82        50.51345
921.21        50.60004
921.61        51.50541
922.00        53.07017
922.40        54.64305
922.79        55.39718
923.19        55.15367
923.58        53.83088
923.98          51.796
924.37        50.85257
924.77        51.66623
925.16        48.70348
925.55        51.14666
925.95        51.18798
926.34        51.51609
926.74        51.92434
927.13         52.4672
927.52        52.93748
927.92        53.23562
928.31        53.46967
928.70         53.5463
929.10        53.38966
929.49        52.99667
929.89        52.39226
930.28        51.83071
930.67         51.7191
931.07        52.09917
931.46        52.92426
931.85        53.76456
932.24        53.97079
932.64         53.4087
933.03        52.13077
933.42        50.62504
933.82        49.88224
934.21        50.14201
934.60        51.12102
934.99        51.94868
935.39        51.88448
935.78        50.85191
936.17         48.2178
936.56        44.38153
936.96         45.9929
937.35        45.09034
937.74        47.83065
938.13        50.54768
938.53        52.20792
938.92        52.68332
939.31        52.38008
939.70         51.7375
940.09        51.35031
940.49        51.48382
940.88        51.91685
941.27        52.50242
941.66        53.08998
942.05         53.5893
942.44         54.0364
942.84        54.41912
943.23        54.68719
943.62        54.81369
944.01        54.84911
944.40        54.64277
944.79        53.96616
945.18        52.82142
945.57        51.26055
945.97        49.85357
946.36        49.50387
946.75        50.46509
947.14        52.36478
947.53        54.34524
947.92         55.2406
948.31         54.8479
948.70        53.51759
949.09        51.80744
949.48        50.71243
949.87        50.55896
950.26        51.03846
950.65        51.80582
951.04         52.2864
951.43        52.28262
951.82        52.01615
952.21        51.61251
952.60        51.23768
952.99        50.96893
953.38         50.7178
953.77        50.51452
954.16        50.43875
954.55        50.49182
954.94        50.67689
955.33        50.90592
955.72        51.00915
956.11         50.9537
956.50        50.78686
956.89        50.60069
957.28        50.58246
957.66        50.79791
958.05        51.08121
958.44         51.3822
958.83        51.63711
959.22        51.81566
959.61        51.96449
960.00        51.94267
960.39        51.51017
960.78        50.66283
961.16        49.46763
961.55        48.33324
961.94        47.76785
962.33        47.86957
962.72        48.51377
963.11        49.29769
963.49        49.52663
963.88         48.9506
964.27        47.79902
964.66        46.51667
965.04        45.83718
965.43        45.95469
965.82        46.66401
966.21         47.5714
966.60        48.03348
966.98        47.89569
967.37        47.34558
967.76        46.76365
968.15        46.73346
968.53        47.39077
968.92        48.43317
969.31        49.51908
969.69        50.10346
970.08        49.96795
970.47        49.31981
970.86         48.3346
971.24        47.25282
971.63         46.2795
972.02        45.39881
972.40        44.66601
972.79        44.22372
973.17        44.11601
973.56        44.26188
973.95        44.74193
974.33        45.64731
974.72         46.7828
975.11        48.02798
975.49        48.95993
975.88        48.95115
976.26        47.92968
976.65        46.16456
977.04         44.0622
977.42        42.34855
977.81        41.34763
978.19        40.86699
978.58        40.96199
978.96        41.64204
979.35        42.77886
979.74        44.47549
980.12        46.27158
980.51        47.09343
980.89        46.81481
981.28         45.6227
981.66        44.34354
982.05        44.15502
982.43        45.23458
982.82        47.17358
983.20        49.34948
983.59        50.35335
983.97        49.84299
984.35        48.22618
984.74        46.16184
985.12        44.55571
985.51        43.71896
985.89        43.27555
986.28         43.1945
986.66        43.38646
987.04        43.70245
987.43        44.24178
987.81        44.49799
988.20        43.69842
988.58        41.62341
988.96        38.10249
989.35        33.93809
989.73        31.59216
990.12        32.43393
990.50        35.72674
990.88        39.46624
991.27        41.32602
991.65        41.24052
992.03        39.82737
992.42        38.18688
992.80        38.30175
993.18        40.72568
993.56        44.37577
993.95        48.09338
994.33        50.83882
994.71        52.14484
995.10        52.44079
995.48        51.88421
995.86         50.5451
996.24        48.54326
996.63        45.80829
997.01        42.62818
997.39        40.26093
997.77        39.40504
998.15        39.87156
998.54        40.98588
998.92        41.92033
999.30        42.44426
999.68        42.77733
1000.06        42.76645
1000.45        42.12616
1000.83        40.98626
1001.21        39.54337
1001.59        38.26128
1001.97         37.4549
1002.35        36.98573
1002.73        36.70549
1003.12        36.46913
1003.50        35.96405
1003.88        35.15192
1004.26        34.33234
1004.64        33.45155
1005.02        32.31436
1005.40        30.92311
1005.78        29.19291
1006.16         27.9647
1006.54         28.8531
1006.92        31.70561
1007.30         35.3788
1007.69        38.31212
1008.07        39.16618
1008.45        37.53095
1008.83        33.32634
1009.21        25.99373
1009.59        16.98485
1009.97        9.380862
1010.35        4.511232
1010.73         3.80836
1011.11        7.042184
1011.49        12.91217
1011.86        21.15535
1012.24        28.46702
1012.62        31.82641
1013.00        31.07558
1013.38        27.17009
1013.76        22.05496
1014.14        19.25786
1014.52        19.84041
1014.90         22.8828
1015.28          26.613
1015.66         27.9962
1016.04         26.0446
1016.41        21.42599
1016.79        15.84787
1017.17        13.15675
1017.55         14.7695
1017.93        18.80728
1018.31        23.07306
1018.69        25.72875
1019.06        26.55685
1019.44        25.90449
1019.82        24.08396
1020.20        21.75014
1020.58        19.36435
1020.95        16.94636
1021.33         13.7458
1021.71        7.356593
1022.09        -4.52754
1022.46       -27.50773
1022.84        -62.7785
1023.22       -78.01082
1023.60       -51.17738
1023.97       -17.09824
1024.35        3.165718
1024.73        10.85356
