SpectraSmart Spectrum 2.9.0.0
--------- Device Information -----------
Spectrum Name :  反射率_0
Saving Time :  2024/04/20 01:01:33
Spectro-Module Model Name : SE2030-DUVN
Spectro-Module Serial Number : OS361AC55029948
Wavelength Start : 200
Wavelength End : 1025
Wavelength Unit : Wavelength(nm)
Spectrum Unit : Reflectance(%)
-----------Spectrum Setting ------------
Integration Time : 30ms
Average : 10
Boxcar : 0
Background removal :  enabled
linearity correction :  enabled
SC :  disabled
Intensity correction :  disabled
DWT denoise :  enabled
savitzky-golay :  disabled
FFT :  disabled
Running average :  disabled
Kalman :  disabled
High pass :  disabled
---------------BEGIN--------------------
Wavelength(nm)             Reflectance(%)
200.29               0
200.75        54.44333
201.21        51.28637
201.67        49.33735
202.13        51.64474
202.58        59.68361
203.04        73.66723
203.50        89.27307
203.96        94.76819
204.42        88.44631
204.88         77.2495
205.34        66.74068
205.80        59.25875
206.26        53.60708
206.72        47.58386
207.18        41.03603
207.64        37.61263
208.10        40.93001
208.55        50.09793
209.01         59.0656
209.47        63.34364
209.93        63.31816
210.39        60.57829
210.85        57.00517
211.31        54.69352
211.77        53.91974
212.23         54.0704
212.69        54.83432
213.14         55.3185
213.60        54.80714
214.06        54.54758
214.52          54.693
214.98        55.33792
215.44        56.45239
215.90        57.62939
216.36        59.28972
216.81        62.03455
217.27        65.36102
217.73          68.927
218.19        70.82785
218.65        68.44154
219.11        61.43945
219.57        50.17699
220.02        37.12805
220.48         29.3604
220.94        29.65214
221.40        36.91035
221.86        47.42944
222.32        55.15556
222.77        58.25608
223.23        58.43318
223.69        57.53957
224.15         58.2138
224.61        60.56578
225.06        63.14221
225.52        65.05263
225.98        65.76711
226.44         65.3587
226.90        64.30505
227.36        62.94664
227.81        61.70855
228.27        61.13685
228.73        61.02308
229.19        61.27984
229.65        61.79058
230.10        62.40862
230.56        63.15186
231.02        63.93787
231.48        64.74179
231.93        65.46049
232.39        66.07301
232.85        66.41323
233.31        66.28094
233.77        65.64758
234.22        64.60905
234.68        63.26185
235.14        61.71985
235.60        60.15909
236.05        58.66819
236.51        57.46043
236.97        56.76084
237.43        56.61222
237.88         57.1727
238.34         58.2002
238.80        59.29642
239.26        59.98983
239.71         60.1778
240.17        59.81458
240.63         59.4664
241.08        59.34365
241.54        59.22714
242.00         58.6933
242.46         56.7979
242.91        52.86178
243.37        45.94072
243.83        36.15499
244.28        28.58151
244.74        29.14686
245.20        38.01298
245.66        47.58111
246.11        50.24707
246.57        44.91977
247.03        31.83326
247.48        14.95612
247.94        12.93536
248.40        26.28604
248.85        41.36409
249.31        51.73012
249.77        56.32658
250.22        56.77569
250.68        54.59868
251.14        50.79533
251.59         47.5864
252.05        46.56522
252.51        47.26459
252.96         48.5058
253.42        48.38712
253.88        46.63618
254.33        44.45464
254.79        43.63241
255.25        45.55932
255.70        49.81654
256.16        55.05044
256.62        59.77646
257.07        62.43142
257.53        62.99316
257.99        62.01455
258.44         59.8503
258.90        57.71555
259.35        55.75883
259.81        54.42177
260.27        53.23927
260.72        51.78909
261.18        50.24595
261.63         48.3464
262.09        46.91331
262.55         46.5891
263.00        47.21812
263.46        48.53342
263.91        49.44721
264.37        48.92417
264.83        47.02588
265.28        44.22258
265.74        41.72038
266.19        40.77946
266.65        41.54129
267.11        43.31515
267.56        45.20942
268.02        45.95374
268.47        45.32071
268.93        43.77616
269.38        41.79313
269.84        40.35905
270.30        39.75599
270.75        39.68111
271.21        39.87272
271.66        39.94753
272.12        39.76192
272.57        39.44965
273.03        39.08094
273.48        38.64825
273.94         38.2178
274.39        37.73586
274.85        37.23009
275.31        36.71527
275.76        36.17607
276.22        35.63488
276.67         35.1091
277.13        34.73153
277.58        34.45325
278.04        34.28187
278.49        34.03413
278.95        33.52367
279.40        32.70555
279.86        31.73779
280.31        30.76192
280.77        30.12505
281.22        29.81106
281.68        29.73944
282.13        29.72735
282.59         29.5466
283.04        29.13841
283.50        28.62214
283.95        28.06154
284.41        27.59065
284.86        27.21816
285.32        26.90841
285.77        26.65456
286.22        26.51879
286.68        26.48434
287.13        26.51775
287.59         26.5078
288.04        26.25883
288.50        25.77047
288.95         25.0759
289.41         24.3571
289.86        23.82689
290.32        23.58129
290.77        23.53694
291.22        23.59251
291.68        23.55798
292.13        23.39075
292.59        23.16426
293.04         22.9672
293.50        22.94978
293.95        23.13108
294.40        23.44035
294.86        23.78667
295.31        24.04497
295.77        24.18102
296.22        24.23946
296.68        24.26163
297.13        24.28938
297.58        24.36011
298.04         24.4706
298.49        24.64009
298.95         24.9326
299.40        25.33612
299.85        25.82729
300.31        26.34536
300.76        26.79734
301.21        27.15217
301.67        27.44914
302.12        27.68012
302.58        27.88432
303.03        28.05891
303.48         28.2056
303.94        28.37901
304.39         28.6314
304.84        28.97174
305.30        29.37181
305.75        29.74119
306.20        29.95536
306.66        30.00893
307.11        29.93458
307.57         29.8151
308.02        29.71339
308.47        29.67479
308.93        29.67018
309.38        29.70263
309.83        29.81736
310.29        29.99759
310.74        30.23168
311.19        30.41681
311.65        30.38895
312.10        30.12412
312.55        29.67538
313.00        29.18496
313.46         28.8738
313.91        28.77887
314.36        28.85151
314.82         28.9794
315.27        28.99745
315.72         28.8508
316.18        28.60374
316.63        28.32689
317.08        28.12918
317.53        28.03619
317.99        27.99964
318.44        27.98034
318.89        27.91041
319.35        27.77103
319.80        27.59033
320.25        27.38865
320.70        27.19665
321.16        27.02144
321.61        26.84979
322.06        26.68197
322.51        26.52355
322.97        26.36679
323.42        26.21993
323.87        26.05318
324.32        25.82071
324.78        25.51502
325.23          25.158
325.68        24.79368
326.13        24.50114
326.59        24.30445
327.04        24.20217
327.49        24.15565
327.94        24.10035
328.39        24.01491
328.85        23.90067
329.30        23.80988
329.75        23.79747
330.20         23.8684
330.66        23.97255
331.11        24.06807
331.56        24.04288
332.01        23.86914
332.46        23.57946
332.92        23.22537
333.37        22.89567
333.82        22.63686
334.27        22.45045
334.72        22.33083
335.17        22.26293
335.63        22.23149
336.08        22.23859
336.53        22.31009
336.98        22.49259
337.43        22.77444
337.88         23.1328
338.34        23.41541
338.79        23.42547
339.24         23.1154
339.69        22.54397
340.14        21.94173
340.59        21.69813
341.05        21.88924
341.50        22.40487
341.95        22.99379
342.40        23.26171
342.85         23.1192
343.30        22.70445
343.75        22.19111
344.20        21.86248
344.66        21.79891
345.11        21.87479
345.56        22.03303
346.01         22.1849
346.46        22.27789
346.91        22.35859
347.36        22.34437
347.81        22.09326
348.26         21.6166
348.72        20.99388
349.17        20.38208
349.62          20.126
350.07        20.30163
350.52        20.78648
350.97        21.41143
351.42        21.92038
351.87        22.22223
352.32        22.37655
352.77        22.38006
353.22         22.2347
353.67         21.9682
354.13        21.59225
354.58        21.17253
355.03        20.85729
355.48        20.68771
355.93        20.64662
356.38        20.67941
356.83         20.6836
357.28        20.62378
357.73        20.51803
358.18        20.39647
358.63        20.31024
359.08        20.26985
359.53        20.25695
359.98        20.21842
360.43        20.07764
360.88         19.8297
361.33        19.50621
361.78        19.19482
362.23        19.03694
362.68        19.05368
363.13        19.18296
363.58        19.32844
364.03        19.34296
364.48        19.18464
364.93         18.9014
365.38        18.52647
365.83         18.1216
366.28        17.73033
366.73        17.34642
367.18        17.01773
367.63        16.81577
368.08        16.74453
368.53        16.78286
368.98         16.8645
369.43        16.87784
369.88        16.79541
370.33        16.65008
370.78        16.46958
371.23        16.30966
371.68        16.19323
372.13        16.09198
372.58        16.03101
373.03        16.05541
373.48        16.15584
373.93        16.31289
374.38        16.43926
374.83        16.39808
375.28        16.16969
375.72        15.79415
376.17        15.38478
376.62        15.08721
377.07        14.95128
377.52         14.9315
377.97        14.99306
378.42        15.07863
378.87        15.15463
379.32        15.23145
379.77        15.28271
380.22        15.26478
380.67        15.17493
381.11        15.02846
381.56        14.84379
382.01        14.67681
382.46        14.54612
382.91        14.42974
383.36        14.34752
383.81         14.3231
384.26        14.35119
384.71         14.4377
385.15         14.4965
385.60        14.39504
386.05        14.12241
386.50        13.71982
386.95        13.34062
387.40        13.22864
387.85        13.41838
388.29        13.81765
388.74        14.23903
389.19        14.42164
389.64        14.31419
390.09        13.99637
390.54        13.61051
390.98        13.37992
391.43        13.37679
391.88        13.51659
392.33        13.68293
392.78        13.71055
393.23        13.57509
393.67        13.33611
394.12        13.10989
394.57         13.0051
395.02        13.04306
395.47        13.17883
395.91        13.34363
396.36        13.40508
396.81        13.33151
397.26        13.16231
397.71        12.96992
398.15        12.84774
398.60        12.83629
399.05        12.90046
399.50        12.97893
399.95        12.98495
400.39        12.90038
400.84        12.74817
401.29        12.60588
401.74        12.61181
402.18        12.79634
402.63        13.09944
403.08        13.39181
403.53        13.47284
403.97        13.30641
404.42        12.96967
404.87        12.59728
405.32        12.41101
405.76        12.46491
406.21        12.68326
406.66        12.96252
407.11        13.13999
407.55        13.17016
408.00         13.1107
408.45        13.00143
408.90        12.87632
409.34        12.77736
409.79        12.74677
410.24        12.77245
410.68        12.78578
411.13        12.78491
411.58        12.82324
412.03        12.88135
412.47        12.90345
412.92        12.87825
413.37        12.81124
413.81        12.75571
414.26        12.80863
414.71        12.97631
415.15        13.23591
415.60        13.47245
416.05        13.52075
416.49        13.34414
416.94        13.00556
417.39        12.63081
417.83        12.42261
418.28        12.43839
418.73        12.60732
419.17        12.83718
419.62        12.97036
420.07        12.96784
420.51        12.88223
420.96        12.75826
421.41        12.64701
421.85        12.56729
422.30        12.50858
422.74        12.47538
423.19        12.50231
423.64        12.58211
424.08        12.71485
424.53        12.85071
424.98        12.92013
425.42        12.90577
425.87        12.83112
426.31         12.7218
426.76        12.62959
427.21        12.56268
427.65        12.49728
428.10        12.46385
428.54        12.49088
428.99        12.57947
429.44        12.77881
429.88        12.97944
430.33        12.92202
430.77        12.64757
431.22        12.42894
431.66         12.3472
432.11        12.38947
432.56        12.55597
433.00          12.888
433.45        13.20363
433.89        13.21058
434.34        12.96603
434.78         12.6382
435.23        12.28482
435.67        12.81125
436.12        12.44168
436.57        12.48191
437.01        12.41223
437.46        12.40283
437.90        12.44485
438.35        12.45338
438.79        12.42407
439.24        12.40548
439.68         12.4005
440.13        12.29002
440.57        12.13792
441.02        12.24494
441.46        12.49179
441.91        12.50265
442.35        11.98829
442.80         11.7914
443.24        11.78903
443.69        11.71961
444.13        11.58078
444.58        11.50549
445.02        11.50188
445.47        11.56663
445.91        11.65098
446.36        11.64959
446.80        11.54268
447.24         11.3765
447.69           11.21
448.13        11.10596
448.58        11.08842
449.02        11.13595
449.47        11.20368
449.91        11.21447
450.36        11.15549
450.80        11.04898
451.25        10.94911
451.69         10.9254
452.13        10.99431
452.58        11.12056
453.02        11.25878
453.47        11.33732
453.91        11.34105
454.36        11.29391
454.80        11.21953
455.24         11.1589
455.69        11.13237
456.13        11.11168
456.58        11.11056
457.02        11.14449
457.46        11.20864
457.91        11.27305
458.35         11.3145
458.79        11.32024
459.24        11.28597
459.68        11.21849
460.13        11.17851
460.57        11.15067
461.01        11.13571
461.46        11.42188
461.90        11.54517
462.34        11.47271
462.79        11.57734
463.23        11.48105
463.68         11.3839
464.12        11.30625
464.56        11.35555
465.01        11.43781
465.45        11.51826
465.89         11.5558
466.34         11.5458
466.78        11.46873
467.22        11.36855
467.67        11.39649
468.11        11.53057
468.55        11.53879
468.99        11.44049
469.44        11.45351
469.88        11.58519
470.32        11.71255
470.77        11.79409
471.21        11.82843
471.65        11.80581
472.10        11.72874
472.54        11.63551
472.98        11.61851
473.42        11.69151
473.87        11.79153
474.31        11.88018
474.75         11.9678
475.20        12.01712
475.64        11.92022
476.08        11.74024
476.52        11.67568
476.97        11.74495
477.41        11.86288
477.85        11.98039
478.29        12.05282
478.74        12.06413
479.18        12.00762
479.62        11.93869
480.06        11.94859
480.50        12.03591
480.95        12.11109
481.39        12.14506
481.83        12.15478
482.27        12.13795
482.72        12.09231
483.16        12.03448
483.60        12.00922
484.04        12.01362
484.48        12.06461
484.93         12.2475
485.37        12.35039
485.81        12.33932
486.25        12.91062
486.69        13.17576
487.14        12.35516
487.58        12.51667
488.02         13.5588
488.46        12.77496
488.90        12.91073
489.34        12.96079
489.79        13.06596
490.23        13.16174
490.67        13.26352
491.11        13.35069
491.55        13.26667
491.99        13.05714
492.43         12.9399
492.88        12.94763
493.32        12.94949
493.76        12.96056
494.20        13.06235
494.64        13.25332
495.08        13.50286
495.52        13.75908
495.96        13.95164
496.41        14.06232
496.85        14.08464
497.29        14.06102
497.73        14.12882
498.17          14.286
498.61        14.37093
499.05        14.38736
499.49          14.487
499.93        14.67366
500.37        14.82374
500.82        14.93283
501.26        15.11782
501.70        15.33759
502.14        15.38692
502.58        15.28872
503.02         15.2571
503.46        15.30838
503.90        15.32936
504.34        15.31252
504.78         15.2965
505.22        15.28281
505.66        15.26993
506.10        15.26078
506.54        15.25507
506.98        15.25673
507.42        15.27024
507.86        15.30426
508.30        15.37171
508.74        15.46963
509.18         15.5845
509.62        15.70509
510.06        15.81404
510.50        15.90547
510.94        15.98986
511.38        16.04862
511.82        16.05317
512.26        16.00517
512.70         15.9108
513.14        15.83124
513.58        15.86121
514.02         16.0072
514.46         16.2392
514.90        16.47128
515.34        16.51114
515.78        16.34631
516.22        16.11739
516.66        15.93169
517.10        15.60094
517.54        15.15989
517.98         15.7909
518.42        15.69185
518.86        15.97732
519.30        16.08696
519.74        16.20395
520.18        16.29711
520.62        16.29219
521.06        16.20623
521.50        16.04516
521.93        15.85852
522.37        15.73887
522.81        15.70988
523.25        15.74862
523.69        15.83039
524.13         15.9134
524.57        15.97765
525.01        16.03032
525.45        16.06356
525.89        16.06447
526.32        16.03165
526.76        15.96925
527.20        15.88292
527.64        15.78927
528.08        15.69597
528.52        15.59897
528.96        15.51555
529.40        15.46807
529.83         15.4581
530.27        15.48639
530.71        15.51203
531.15        15.46956
531.59        15.35159
532.03         15.1792
532.46        15.01321
532.90         14.9648
533.34        15.04503
533.78        15.21264
534.22        15.39631
534.66        15.48662
535.09        15.45409
535.53        15.34053
535.97         15.1872
536.41        15.05755
536.85        14.97662
537.28        14.93339
537.72        14.93002
538.16        14.92306
538.60        14.97899
539.04        15.03609
539.47        15.09685
539.91        15.16813
540.35        15.25428
540.79        15.22166
541.22        15.27387
541.66        15.31416
542.10        15.41693
542.54         15.3302
542.97        15.45946
543.41        15.51914
543.85        15.61929
544.29        15.72303
544.72        15.80926
545.16        15.89003
545.60         15.9593
546.04        15.96472
546.47        15.96307
546.91        16.14668
547.35        16.47439
547.79        16.72471
548.22        16.85092
548.66        16.89521
549.10        16.88678
549.53        16.95128
549.97         17.1083
550.41        17.07711
550.84        17.18265
551.28        17.25144
551.72         17.3928
552.15        17.57065
552.59        17.77929
553.03        18.01645
553.46        18.23613
553.90        18.38454
554.34        18.45129
554.77        18.45194
555.21         18.4288
555.65        18.44075
556.08        18.50222
556.52        18.59623
556.96         18.7036
557.39        18.81878
557.83        18.92545
558.27         18.9806
558.70        18.99565
559.14        19.02382
559.57         19.0649
560.01        19.11624
560.45        19.15604
560.88        19.12738
561.32        19.07109
561.75        19.04585
562.19        19.13757
562.63        19.20608
563.06        19.26925
563.50        19.37147
563.93        19.49045
564.37        19.62632
564.80        19.67921
565.24        19.73556
565.68        19.76951
566.11        19.80997
566.55        19.87654
566.98        19.92355
567.42        19.93975
567.85        20.15869
568.29         20.0605
568.72        20.26422
569.16        20.56077
569.60        20.76475
570.03        20.85042
570.47        20.93111
570.90        20.92094
571.34        21.20073
571.77        21.08455
572.21        21.27863
572.64        21.47837
573.08        21.47998
573.51        21.62743
573.95        22.16511
574.38        22.27541
574.82        22.41665
575.25        22.43264
575.69         22.2877
576.12        22.23728
576.56        22.23838
576.99        22.36353
577.42        22.44821
577.86        22.21418
578.29        22.32245
578.73        22.80727
579.16         22.3858
579.60        22.12118
580.03        22.36939
580.47        22.49256
580.90        22.20671
581.33        22.00096
581.77        22.14599
582.20        22.45757
582.64        21.96887
583.07        21.64251
583.51        21.75072
583.94        21.47202
584.37        21.44853
584.81         21.1696
585.24        21.15199
585.68        21.29357
586.11        21.17243
586.54        21.03826
586.98        21.00094
587.41        21.12587
587.85        21.07618
588.28        20.85043
588.71        20.71292
589.15        20.73289
589.58        20.49662
590.01        20.60372
590.45        21.03671
590.88        20.68769
591.31        20.61146
591.75        20.46655
592.18        20.62927
592.61        20.56724
593.05        20.86329
593.48        20.75151
593.91        21.00575
594.35        20.69832
594.78        20.94987
595.21        21.17771
595.65        21.42525
596.08        21.23244
596.51         21.2648
596.94        21.45232
597.38        21.61352
597.81        21.77712
598.24        21.84697
598.68        22.31394
599.11        22.26393
599.54          23.166
599.97        22.80969
600.41        23.06296
600.84        23.77531
601.27        23.88283
601.70        24.19749
602.14        24.30396
602.57        24.63473
603.00        25.14718
603.43        25.53639
603.87        25.81285
604.30        26.13749
604.73        26.51157
605.16         26.9778
605.60        27.25065
606.03        27.66638
606.46        28.06631
606.89        28.54742
607.32        28.87463
607.76        29.17147
608.19        29.50069
608.62        29.81409
609.05        30.13711
609.48          30.355
609.92         30.4683
610.35         30.8781
610.78        31.51165
611.21        31.96651
611.64        31.84858
612.07        32.35699
612.50        32.56294
612.94        32.51685
613.37        33.08448
613.80        33.38875
614.23        33.71733
614.66        34.15359
615.09        34.36053
615.52        34.71409
615.96        35.06984
616.39        35.35023
616.82        35.58893
617.25        35.68264
617.68        36.09836
618.11        36.31605
618.54        36.47662
618.97        36.51464
619.40        36.43997
619.84        36.89412
620.27        36.68404
620.70        37.06707
621.13        37.58102
621.56        37.75835
621.99        37.70215
622.42        37.79683
622.85        38.07762
623.28        38.27674
623.71         38.3912
624.14        38.36052
624.57        38.23985
625.00        38.24723
625.43         38.3134
625.86        37.72326
626.29        37.77976
626.72        37.63305
627.15        37.49554
627.58        37.46106
628.01        37.44202
628.44        37.33847
628.87        37.10956
629.30        36.84238
629.73        36.57536
630.16        36.13621
630.59        35.91524
631.02         35.5959
631.45        35.27891
631.88        34.93924
632.31        34.57283
632.74        34.18411
633.17         33.7713
633.60        33.33962
634.03        32.89349
634.46        32.43588
634.89        31.97578
635.32        31.52643
635.75        31.09537
636.18        30.68666
636.61        30.29677
637.04        29.91456
637.47        29.53584
637.89        29.16451
638.32        28.80599
638.75        28.48555
639.18        28.21026
639.61        27.97576
640.04        27.76296
640.47        27.53888
640.90        27.29638
641.33        27.04588
641.76        26.81041
642.18        26.63096
642.61        26.51267
643.04        26.44282
643.47        26.40208
643.90        26.35895
644.33         26.3054
644.76        26.25455
645.18        26.21551
645.61        26.20776
646.04        26.23934
646.47        26.30403
646.90        26.41007
647.33        26.58431
647.75        26.83255
648.18        27.10631
648.61         27.3861
649.04        27.74578
649.47          28.133
649.89         28.3032
650.32        28.34824
650.75        28.68216
651.18         29.3132
651.61         29.8968
652.03        30.38139
652.46        31.00019
652.89        31.73056
653.32        32.11375
653.74        32.18242
654.17        32.98777
654.60        33.37489
655.03        34.12117
655.46        34.01543
655.88        35.70624
656.31        36.44965
656.74        41.93243
657.16        39.15821
657.59        36.11164
658.02         36.8622
658.45        38.25774
658.87        39.35529
659.30        39.45179
659.73        40.18668
660.15        40.94161
660.58        41.04443
661.01        41.18717
661.44        41.16504
661.86         41.4748
662.29        42.10139
662.72        42.90568
663.14        43.69831
663.57        43.88831
664.00        43.62363
664.42        43.73682
664.85        44.30105
665.27        44.80824
665.70         45.1619
666.13        45.47599
666.55        45.73159
666.98        45.90003
667.41        46.03002
667.83        46.19141
668.26        46.39805
668.69         46.6446
669.11         46.8982
669.54        47.08213
669.96        47.18188
670.39        47.27116
670.82        47.39682
671.24         47.4731
671.67        47.57185
672.09        48.02605
672.52        48.67907
672.94        48.89307
673.37          48.686
673.80        48.55722
674.22        48.60922
674.65        48.68098
675.07        48.81054
675.50        49.10462
675.92        49.48111
676.35        49.70656
676.77        49.74536
677.20        49.67379
677.62        49.56084
678.05        49.52392
678.47        49.59148
678.90         49.7227
679.32        49.89639
679.75        50.07089
680.17        50.22233
680.60        50.41554
681.02        50.62096
681.45        50.64161
681.87        50.54348
682.30        50.63504
682.72        50.89486
683.15        51.00374
683.57        50.97004
684.00        50.92416
684.42        51.05298
684.85        51.15598
685.27        51.28391
685.70        51.45007
686.12        51.62263
686.54        51.79841
686.97        51.96938
687.39        51.96869
687.82        52.10312
688.24        52.15301
688.66         52.2173
689.09        52.26599
689.51        52.31197
689.94        52.41564
690.36        52.57915
690.78        52.61378
691.21        52.54376
691.63        52.77741
692.06        53.26941
692.48        53.15741
692.90        52.99955
693.33        53.27565
693.75        53.24546
694.17        53.46386
694.60        53.60842
695.02        53.55459
695.44        53.32623
695.87        53.37998
696.29        53.70332
696.71        53.63591
697.14        53.35162
697.56        53.82685
697.98        54.85403
698.41        55.38744
698.83        55.17959
699.25        54.93649
699.68        54.75142
700.10        54.63019
700.52        54.63988
700.94        54.77782
701.37        54.97703
701.79        55.17506
702.21        55.31845
702.64        55.43106
703.06        55.53049
703.48        55.65281
703.90        55.80677
704.33        55.96441
704.75        56.09767
705.17        56.14552
705.59        56.09983
706.01        55.98603
706.44        55.87137
706.86        55.86066
707.28        55.97389
707.70        56.18011
708.12        56.42171
708.55        56.60072
708.97        56.69005
709.39        56.72219
709.81        56.72837
710.23        56.76447
710.66        56.84835
711.08        56.96309
711.50        57.08035
711.92        57.17382
712.34        57.23784
712.76        57.28591
713.19        57.31783
713.61        57.38227
714.03        57.46597
714.45        57.55917
714.87        57.66119
715.29        57.77313
715.71        57.89225
716.13        58.01829
716.56        58.12325
716.98        58.22692
717.40        58.30384
717.82        58.35363
718.24        58.38794
718.66        58.42814
719.08        58.47888
719.50        58.53371
719.92        58.58068
720.34         58.5992
720.76        58.58915
721.19        58.55526
721.61         58.5209
722.03        58.50899
722.45        58.54814
722.87        58.55618
723.29        58.65517
723.71        58.75532
724.13        58.88858
724.55        59.05014
724.97        59.22518
725.39        59.38623
725.81        59.51969
726.23        59.62681
726.65        59.72379
727.07        59.81321
727.49         59.8913
727.91        60.00674
728.33        60.15606
728.75        60.02593
729.17        60.07749
729.59        59.99497
730.01        59.93258
730.43        59.84644
730.85        59.80251
731.27        59.91417
731.69        60.11206
732.10        60.48738
732.52         60.4271
732.94        60.51746
733.36        60.58765
733.78        60.60458
734.20        60.59342
734.62        60.53354
735.04        60.42343
735.46        60.43355
735.88        60.60708
736.30        60.15897
736.72         60.4788
737.13        60.54669
737.55        60.71593
737.97        61.10015
738.39        61.55229
738.81        61.46059
739.23        60.93496
739.65        60.85174
740.06        61.17181
740.48        61.30632
740.90        61.24741
741.32         60.9079
741.74        61.17023
742.16        61.23005
742.57        61.34575
742.99        61.48283
743.41        61.63126
743.83        61.75296
744.25         61.8238
744.67        61.84325
745.08        61.82052
745.50        61.75208
745.92        61.65939
746.34        61.54729
746.75        61.43378
747.17        61.34662
747.59        61.30708
748.01        61.32371
748.42        61.40485
748.84        61.57988
749.26        61.85377
749.68         62.0466
750.09        62.17456
750.51        62.59741
750.93        63.10266
751.35        62.99907
751.76        62.42957
752.18        62.00356
752.60        61.71499
753.01        62.38691
753.43        61.78539
753.85        61.92333
754.27        62.13243
754.68        62.44695
755.10        62.75778
755.52        62.86569
755.93        62.79947
756.35        62.74944
756.77        62.75681
757.18        62.77369
757.60        62.85059
758.02        62.94088
758.43        62.95862
758.85        63.27478
759.26        63.38806
759.68         63.0608
760.10        62.96796
760.51        63.03355
760.93        63.55341
761.34         62.3364
761.76        62.78651
762.18        62.36687
762.59        62.20463
763.01        62.42686
763.42        63.01973
763.84        63.48853
764.26        63.70425
764.67        63.66463
765.09        63.53471
765.50        63.75722
765.92        64.27103
766.33        64.43897
766.75        64.16841
767.16        63.93888
767.58        63.77023
768.00        63.39569
768.41        63.00189
768.83        63.12724
769.24        63.68542
769.66        64.13662
770.07        64.32152
770.49        64.22128
770.90        63.96716
771.32         64.0251
771.73        64.37878
772.15        64.54511
772.56        64.48096
772.97        64.35612
773.39        64.17638
773.80        64.02041
774.22        63.87606
774.63        63.60386
775.05        63.31485
775.46         63.3298
775.88        63.66186
776.29        64.22741
776.70        64.79092
777.12         65.0043
777.53        64.79408
777.95        64.23817
778.36        63.60353
778.77        63.34315
779.19        63.56769
779.60        64.18349
780.02        64.87727
780.43        65.31049
780.84        65.38036
781.26        64.82189
781.67        64.01876
782.09        64.50305
782.50        65.92657
782.91         66.0176
783.33        64.86816
783.74        64.54784
784.15        65.12392
784.57        65.40842
784.98        65.30224
785.39        65.16769
785.81        65.01726
786.22        64.82928
786.63        64.66753
787.04        64.58717
787.46        64.60786
787.87        64.74148
788.28        64.95757
788.70        65.13612
789.11         65.2382
789.52        65.36665
789.93        65.51015
790.35        65.48704
790.76        65.36459
791.17        65.47618
791.58        65.77628
792.00        65.79921
792.41        65.52712
792.82         65.4134
793.23        65.42674
793.65        65.02774
794.06        64.48796
794.47        64.73615
794.88        65.50966
795.29        66.53186
795.71        65.85529
796.12        65.83184
796.53        65.94874
796.94        65.60067
797.35        64.96777
797.76        65.02042
798.18         65.6743
798.59         65.9752
799.00        65.84515
799.41        65.82903
799.82        65.95468
800.23        66.01287
800.64        66.00524
801.06        65.95165
801.47        65.92101
801.88        65.97238
802.29        66.10472
802.70        66.26975
803.11        66.40056
803.52        66.38036
803.93        66.20105
804.34        65.96807
804.75        65.70864
805.17        65.44949
805.58        65.31864
805.99        65.21056
806.40        65.19607
806.81        65.95832
807.22        67.10611
807.63        66.93349
808.04        65.70694
808.45        65.41504
808.86        66.20401
809.27         66.9418
809.68        67.38094
810.09        67.64729
810.50        67.64602
810.91        67.33068
811.32        66.85064
811.73        66.47924
812.14        66.28223
812.55        66.15088
812.96        66.04088
813.37        65.93198
813.78        65.82664
814.19        65.69727
814.60        65.56258
815.01        65.60635
815.42        65.86739
815.83        65.65184
816.24        66.08486
816.65        66.22153
817.05        66.39168
817.46        66.53666
817.87        66.64571
818.28        66.63801
818.69        66.50556
819.10        66.28117
819.51        66.07614
819.92         66.1039
820.33        66.40793
820.74        66.87796
821.14        67.38111
821.55        67.74438
821.96        67.87691
822.37        67.68224
822.78        67.25728
823.19        66.92176
823.60        66.75254
824.00        66.62924
824.41        66.53007
824.82        66.55602
825.23        66.70068
825.64        66.94389
826.04        67.22604
826.45        67.40851
826.86        67.46588
827.27        67.40469
827.68        67.25508
828.08        67.14836
828.49          67.051
828.90        66.86436
829.31         66.6349
829.72        66.54855
830.12         66.6451
830.53        66.80684
830.94        66.98538
831.35        67.10168
831.75        67.15011
832.16        67.11381
832.57        67.03709
832.97        66.97766
833.38         66.9398
833.79        66.89744
834.20        66.87019
834.60        66.88291
835.01        66.94901
835.42        67.07736
835.82        67.19173
836.23        67.10972
836.64        66.82552
837.04         66.3867
837.45         65.9657
837.86        65.88239
838.26        66.21468
838.67        66.85113
839.08        67.55282
839.48        67.86699
839.89        67.67146
840.29        67.12508
840.70        66.53573
841.11        66.29425
841.51        66.50795
841.92         66.9999
842.33        67.63933
842.73        68.20586
843.14        68.51154
843.54        68.67717
843.95        68.64508
844.35        68.39568
844.76        67.97002
845.17        67.40674
845.57        66.83907
845.98        66.49383
846.38        66.42677
846.79        66.58186
847.19        66.94088
847.60        67.33105
848.00        67.72301
848.41        68.08018
848.81        68.40603
849.22         68.6343
849.62        68.78997
850.03        68.82635
850.43        68.78513
850.84        68.67417
851.24        68.55959
851.65        68.39904
852.05        68.26117
852.46        68.15949
852.86        68.10979
853.27        68.08387
853.67        68.01831
854.07        68.04166
854.48        68.07419
854.88        67.89959
855.29        67.52652
855.69        67.34583
856.10        67.33987
856.50        67.39769
856.90        67.48489
857.31        67.64937
857.71        67.93193
858.12        68.23423
858.52        68.52733
858.92        68.66452
859.33        68.60114
859.73        68.40171
860.13        68.10716
860.54        67.82326
860.94        67.64757
861.34        67.52277
861.75        67.40153
862.15        67.28826
862.55        67.14384
862.96        67.03474
863.36        66.93936
863.76        66.78967
864.17        66.58398
864.57         66.3476
864.97        66.22609
865.38        66.43953
865.78        67.05348
866.18        67.92028
866.58        68.75198
866.99        69.04408
867.39        68.68768
867.79        67.81324
868.19        66.62005
868.60        65.41473
869.00        64.30852
869.40        63.29956
869.80        62.56217
870.21        62.35749
870.61        62.76925
871.01        63.68375
871.41        64.78453
871.81        65.54433
872.22        65.84445
872.62        65.81078
873.02        65.55672
873.42        65.54684
873.82        65.65968
874.22        65.18396
874.63        64.46124
875.03        64.28575
875.43        64.78874
875.83         66.8952
876.23        67.02367
876.63        66.50706
877.03        64.70293
877.44        61.79121
877.84        135.6798
878.24        61.73801
878.64        63.56359
879.04        68.44471
879.44        65.03567
879.84         63.1632
880.24         68.0942
880.64        68.25298
881.04        64.84205
881.44        62.62803
881.84        62.39503
882.24        63.35878
882.65        64.87107
883.05        65.58867
883.45        65.08771
883.85        64.16016
884.25        63.31429
884.65        62.97442
885.05        63.28662
885.45        64.06219
885.85        64.96169
886.25        65.45684
886.65         65.3953
887.05         64.9603
887.45        64.44187
887.85        64.26607
888.25         64.5433
888.65        65.13481
889.04          65.856
889.44        66.32169
889.84        66.43465
890.24        66.29691
890.64        66.05062
891.04        65.91146
891.44        65.91302
891.84        65.94399
892.24        65.90882
892.64        65.65766
893.04        65.18947
893.44        64.65993
893.83        64.07583
894.23        63.44884
894.63        62.80413
895.03        62.11605
895.43        61.64582
895.83        61.82876
896.23        62.70464
896.63         64.1385
897.02        65.60159
897.42         66.1411
897.82        65.55506
898.22        64.14706
898.62        62.52809
899.01        61.64588
899.41        61.75156
899.81        62.51225
900.21        63.57426
900.61        64.40143
901.00        64.80769
901.40        64.94315
901.80        64.88622
902.20          64.734
902.59        64.55471
902.99        64.30866
903.39        63.99509
903.79        63.64029
904.18        63.27023
904.58        62.94331
904.98        62.80155
905.38        63.04492
905.77        63.67142
906.17        64.60847
906.57        65.54568
906.96        66.03028
907.36         65.9116
907.76        65.28465
908.15        64.50686
908.55         64.1074
908.95        64.23802
909.34        64.80437
909.74        65.37327
910.14        65.17764
910.53        64.07484
910.93        62.40332
911.33        60.86986
911.72        60.57351
912.12        61.66114
912.52        63.67398
912.91        65.87572
913.31        67.06627
913.70         66.9978
914.10        66.00613
914.49         64.4703
914.89        63.26671
915.29         62.7534
915.68        62.67504
916.08        62.93068
916.47        63.37209
916.87        63.86469
917.26        64.47011
917.66        65.01064
918.05        65.20406
918.45         64.9779
918.84        64.45168
919.24        63.71216
919.64        62.94003
920.03        62.24882
920.42        61.61945
920.82        61.30213
921.21        61.63127
921.61        62.56175
922.00        64.01128
922.40        65.43539
922.79         66.1795
923.19        66.07756
923.58        65.06374
923.98        63.43722
924.37        62.60112
924.77        63.10615
925.16         60.7338
925.55        62.52461
925.95        62.51884
926.34        62.78402
926.74        63.13998
927.13        63.64824
927.52        64.16988
927.92        64.61742
928.31        65.08022
928.70         65.3856
929.10        65.29836
929.49         64.7956
929.89        63.95432
930.28        63.14872
930.67        62.97606
931.07        63.52155
931.46        64.65575
931.85        65.88854
932.24        66.48544
932.64        66.26375
933.03        65.32652
933.42        64.06072
933.82        63.28172
934.21        63.21308
934.60        63.62959
934.99        63.91635
935.39         63.5442
935.78        62.45818
936.17        60.20426
936.56        57.05926
936.96        58.11833
937.35        57.24438
937.74        59.22393
938.13        61.30621
938.53        62.81701
938.92        63.65871
939.31        64.09353
939.70         64.2799
940.09        64.31428
940.49        64.29013
940.88        64.17551
941.27        64.05975
941.66        64.13352
942.05        64.41116
942.44        64.81647
942.84        65.31204
943.23        65.82368
943.62        66.26984
944.01        66.70735
944.40        66.87966
944.79        66.37479
945.18        65.14965
945.57        63.28516
945.97        61.42427
946.36        60.68332
946.75        61.40308
947.14        63.17745
947.53        65.14716
947.92        66.12911
948.31        65.89848
948.70        64.81775
949.09        63.38441
949.48         62.4739
949.87        62.37968
950.26        62.81453
950.65        63.49411
951.04        63.96245
951.43        64.05238
951.82        63.93712
952.21        63.70427
952.60        63.46321
952.99        63.26233
953.38        63.03128
953.77        62.78413
954.16        62.56749
954.55        62.39611
954.94        62.30601
955.33        62.25512
955.72        62.14746
956.11        61.98082
956.50        61.78267
956.89        61.68189
957.28        61.91391
957.66        62.50201
958.05        63.22754
958.44        63.90125
958.83        64.28168
959.22        64.32051
959.61        64.12285
960.00        63.64769
960.39        62.85617
960.78        61.83294
961.16        60.59773
961.55        59.54438
961.94        59.14275
962.33        59.46233
962.72        60.39317
963.11        61.46822
963.49         61.8772
963.88        61.32401
964.27         60.0543
964.66        58.58527
965.04        57.78584
965.43        57.88966
965.82        58.67073
966.21        59.67538
966.60        60.15993
966.98        59.94537
967.37        59.24397
967.76         58.5226
968.15        58.49449
968.53        59.32088
968.92         60.6638
969.31        62.04583
969.69        62.69872
970.08        62.35899
970.47         61.3044
970.86        59.89717
971.24        58.69145
971.63        57.94527
972.02        57.52199
972.40         57.2882
972.79        57.04737
973.17        56.74236
973.56        56.38822
973.95        56.15075
974.33         56.2673
974.72        56.66066
975.11        57.23174
975.49        57.67292
975.88         57.5184
976.26        56.71211
976.65        55.46632
977.04        54.08922
977.42        53.12169
977.81        52.77207
978.19        52.84954
978.58        53.32386
978.96        54.12682
979.35        55.10407
979.74        56.37529
980.12        57.59198
980.51        57.89209
980.89        57.26652
981.28        55.90347
981.66        54.58944
982.05        54.44519
982.43        55.60575
982.82        57.67358
983.20        60.02375
983.59        61.21495
983.97         60.8831
984.35        59.40361
984.74        57.38359
985.12        55.66856
985.51        54.55515
985.89        53.72086
986.28        53.19201
986.66        53.08949
987.04        53.32974
987.43        53.96036
987.81        54.43998
988.20        53.98679
988.58        52.38478
988.96        49.54554
989.35        46.06496
989.73        43.94056
990.12        44.30678
990.50         46.6214
990.88        49.39909
991.27        50.91015
991.65        51.10395
992.03        50.45031
992.42        49.69617
992.80        50.13929
993.18        52.11397
993.56        54.84703
993.95        57.53986
994.33         59.5981
994.71        60.67746
995.10        61.04639
995.48        60.79086
995.86        59.90482
996.24        58.47344
996.63         56.4865
997.01        54.14506
997.39        52.32687
997.77         51.5322
998.15        51.59544
998.54        52.18038
998.92        52.84513
999.30        53.45641
999.68        54.25067
1000.06        54.78576
1000.45        53.92076
1000.83         51.6413
1001.21        48.65612
1001.59         46.2645
1001.97        45.44888
1002.35        46.05983
1002.73        47.84813
1003.12         50.1836
1003.50        51.46712
1003.88        50.88243
1004.26        48.93882
1004.64        46.46732
1005.02        44.62795
1005.40        43.75224
1005.78        43.48018
1006.16        43.78448
1006.54        44.57767
1006.92        45.50138
1007.30        46.36279
1007.69        46.83038
1008.07        46.72901
1008.45        45.85084
1008.83        44.11016
1009.21        40.81884
1009.59        35.41578
1009.97        28.72351
1010.35         21.9636
1010.73        17.98502
1011.11        18.98671
1011.49         24.2427
1011.86        32.74768
1012.24         40.6798
1012.62        44.37844
1013.00        43.56166
1013.38        39.47474
1013.76        34.28378
1014.14        31.80559
1014.52        33.13371
1014.90        37.12624
1015.28        41.72863
1015.66        43.51936
1016.04        41.35014
1016.41        35.97435
1016.79        29.05866
1017.17        24.77749
1017.55        24.98927
1017.93        27.97233
1018.31        31.64943
1018.69        34.19003
1019.06        35.28563
1019.44        35.26045
1019.82        34.35773
1020.20        32.94007
1020.58        31.26057
1020.95        29.35275
1021.33        26.45143
1021.71        20.27629
1022.09        8.627521
1022.46       -14.02749
1022.84       -48.83091
1023.22       -63.02893
1023.60       -35.27907
1023.97      -0.9311193
1024.35        19.48194
1024.73        27.30472
