SpectraSmart Spectrum 2.9.0.0
--------- Device Information -----------
Spectrum Name :  反射率_0
Saving Time :  2024/04/20 00:29:11
Spectro-Module Model Name : SE2030-DUVN
Spectro-Module Serial Number : OS361AC55029948
Wavelength Start : 200
Wavelength End : 1025
Wavelength Unit : Wavelength(nm)
Spectrum Unit : Reflectance(%)
-----------Spectrum Setting ------------
Integration Time : 30ms
Average : 10
Boxcar : 0
Background removal :  enabled
linearity correction :  enabled
SC :  disabled
Intensity correction :  disabled
DWT denoise :  enabled
savitzky-golay :  disabled
FFT :  disabled
Running average :  disabled
Kalman :  disabled
High pass :  disabled
---------------BEGIN--------------------
Wavelength(nm)             Reflectance(%)
200.29               0
200.75        56.92749
201.21        54.33178
201.67        53.20006
202.13        55.65495
202.58        62.67273
203.04        74.29816
203.50        87.21186
203.96        92.22155
204.42        87.69617
204.88        78.99712
205.34        70.19734
205.80        62.63998
206.26        55.08755
206.72        45.19347
207.18        32.46209
207.64        23.16372
208.10        24.78587
208.55         35.9933
209.01        49.00045
209.47        57.36503
209.93        60.85314
210.39        61.42522
210.85         60.1847
211.31        58.29131
211.77        55.97945
212.23        52.46371
212.69        48.16022
213.14        46.15301
213.60        47.40615
214.06        50.73666
214.52        54.02057
214.98        56.08825
215.44        57.14605
215.90        57.42517
216.36        57.38551
216.81        57.89312
217.27        59.01493
217.73        60.47416
218.19        60.90666
218.65        58.39446
219.11         52.5826
219.57        43.62539
220.02        33.44855
220.48        27.71495
220.94        28.38255
221.40        34.60744
221.86        42.56842
222.32        46.22786
222.77        44.23664
223.23        38.61932
223.69        32.89809
224.15        32.03388
224.61        35.86332
225.06         41.5851
225.52        46.41159
225.98        48.17559
226.44        46.95557
226.90         43.8741
227.36        40.11462
227.81        37.70517
228.27        37.62418
228.73        38.92112
229.19         40.8702
229.65        42.66904
230.10        44.02962
230.56        45.16839
231.02        46.09036
231.48        46.77925
231.93        47.24259
232.39        47.50729
232.85        47.52982
233.31        47.29667
233.77        46.85768
234.22        46.25467
234.68        45.72547
235.14        45.55403
235.60        45.83633
236.05        46.52673
236.51        47.48138
236.97        48.49216
237.43         49.5959
237.88        51.08596
238.34        52.97224
238.80        55.32674
239.26        57.75134
239.71        59.72216
240.17        61.03755
240.63        62.26619
241.08        63.70162
241.54        65.33528
242.00        66.39326
242.46        65.27747
242.91        61.17165
243.37        52.85292
243.83        41.48053
244.28        36.18476
244.74        44.85418
245.20        64.66531
245.66        82.60236
246.11        88.08043
246.57        80.29049
247.03        59.63472
247.48        29.88806
247.94        16.86656
248.40        27.35683
248.85        43.71484
249.31        56.87352
249.77         64.8395
250.22        69.32796
250.68        72.68009
251.14        75.26703
251.59        76.66616
252.05        76.74702
252.51         75.2069
252.96        72.54628
253.42        70.52822
253.88        69.94072
254.33        70.57228
254.79        72.73734
255.25        76.21687
255.70        80.49352
256.16        85.06615
256.62        89.09562
257.07         91.6842
257.53        92.86853
257.99        92.72363
258.44        91.00224
258.90          88.481
259.35        85.40824
259.81        82.98273
260.27        80.92234
260.72        78.92418
261.18        77.23779
261.63        75.31792
262.09         74.0135
262.55        73.88261
263.00        74.63766
263.46        76.04835
263.91        76.84571
264.37        75.98126
264.83        73.47327
265.28        69.82976
265.74        66.37453
266.19        64.38755
266.65        64.12932
267.11        64.91801
267.56        65.87571
268.02        65.78477
268.47        64.38844
268.93        62.13157
269.38        59.53315
269.84        57.66853
270.30        56.82187
270.75        56.64741
271.21         56.7164
271.66        56.37342
272.12        55.44004
272.57        54.12608
273.03         52.7101
273.48        51.50472
273.94        50.67188
274.39        50.05133
274.85        49.52017
275.31        48.84435
275.76        47.94861
276.22         46.9441
276.67        45.95491
277.13        45.29809
277.58        44.93088
278.04        44.78443
278.49        44.54087
278.95        43.86438
279.40        42.67641
279.86        41.22858
280.31         39.7408
280.77        38.69229
281.22        38.09013
281.68        37.82861
282.13        37.69486
282.59        37.43627
283.04        36.97629
283.50        36.45842
283.95        35.93808
284.41        35.54952
284.86        35.29299
285.32        35.13456
285.77        35.05753
286.22        35.12553
286.68        35.31598
287.13        35.56886
287.59        35.78466
288.04        35.77061
288.50         35.5313
288.95        35.09468
289.41        34.61238
289.86        34.23476
290.32        34.06638
290.77        34.05786
291.22        34.18263
291.68        34.36018
292.13        34.56978
292.59        34.86311
293.04        35.28638
293.50        35.93087
293.95        36.78708
294.40        37.80272
294.86        38.89308
295.31        39.94039
295.77        40.91437
296.22        41.84649
296.68        42.76699
297.13        43.70718
297.58        44.68492
298.04        45.68277
298.49        46.70708
298.95        47.82343
299.40        49.00478
299.85        50.22262
300.31        51.40673
300.76        52.42559
301.21        53.26237
301.67         53.9996
302.12        54.64342
302.58        55.30107
303.03        55.97212
303.48        56.66068
303.94        57.43888
304.39        58.35637
304.84         59.4101
305.30        60.55159
305.75           61.62
306.20        62.41348
306.66        62.91331
307.11        63.15775
307.57         63.2685
308.02        63.32634
308.47        63.41239
308.93        63.50454
309.38         63.6292
309.83         63.9017
310.29        64.31848
310.74        64.84087
311.19         65.3122
311.65        65.47112
312.10        65.25826
312.55        64.75442
313.00        64.16163
313.46        63.79478
313.91        63.71049
314.36        63.83893
314.82        64.00512
315.27        63.95592
315.72        63.61518
316.18         63.0931
316.63          62.528
317.08        62.14969
317.53        62.00581
317.99         62.0062
318.44        62.03551
318.89        61.89448
319.35        61.52981
319.80        61.01341
320.25        60.44078
320.70        59.96444
321.16        59.62326
321.61        59.38052
322.06        59.16948
322.51        58.89159
322.97        58.50695
323.42        58.05926
323.87        57.58983
324.32        57.17184
324.78        56.81487
325.23        56.51911
325.68         56.2165
326.13        55.81126
326.59        55.28523
327.04        54.70239
327.49        54.14908
327.94        53.77392
328.39        53.60355
328.85        53.55788
329.30         53.5947
329.75        53.54799
330.20        53.36149
330.66        53.06197
331.11        52.69491
331.56        52.26249
332.01        51.78565
332.46         51.2557
332.92        50.73021
333.37        50.35036
333.82        50.14383
334.27        50.10624
334.72         50.1476
335.17        50.10129
335.63         49.9023
336.08        49.60004
336.53        49.29324
336.98          49.179
337.43        49.29261
337.88        49.57041
338.34        49.80879
338.79        49.73358
339.24         49.2668
339.69        48.49778
340.14        47.67663
340.59        47.22312
341.05        47.23356
341.50        47.58791
341.95        48.03066
342.40        48.16388
342.85        47.89626
343.30         47.3679
343.75        46.76164
344.20        46.37366
344.66        46.28515
345.11        46.36473
345.56        46.53055
346.01        46.65648
346.46        46.68199
346.91        46.66157
347.36        46.54113
347.81        46.22398
348.26        45.72391
348.72        45.09452
349.17         44.4638
349.62        44.12178
350.07        44.13348
350.52        44.40393
350.97        44.78055
351.42        45.02957
351.87        45.06904
352.32        44.94696
352.77        44.69306
353.22        44.36066
353.67        43.98755
354.13        43.58812
354.58        43.14895
355.03        42.70165
355.48        42.27227
355.93        41.87673
356.38          41.583
356.83        41.48171
357.28        41.56918
357.73        41.79874
358.18        42.03981
358.63        42.08195
359.08        41.86727
359.53         41.4505
359.98        40.93385
360.43          40.478
360.88        40.13075
361.33        39.85171
361.78         39.5983
362.23        39.30481
362.68        38.95717
363.13         38.5856
363.58        38.22646
364.03        37.92301
364.48        37.67548
364.93        37.45867
365.38        37.22077
365.83        36.88728
366.28        36.44751
366.73        35.93233
367.18        35.40639
367.63        34.96678
368.08        34.63929
368.53        34.40089
368.98        34.20347
369.43        33.96595
369.88         33.6691
370.33        33.34164
370.78        33.01981
371.23        32.76711
371.68        32.60187
372.13        32.49247
372.58        32.42362
373.03        32.37444
373.48        32.32296
373.93         32.2669
374.38        32.16764
374.83        31.96605
375.28        31.65322
375.72        31.23669
376.17        30.79072
376.62        30.39769
377.07        30.09585
377.52        29.87748
377.97        29.71793
378.42         29.5728
378.87        29.42572
379.32        29.28116
379.77        29.16405
380.22        29.10876
380.67        29.11129
381.11         29.1584
381.56        29.16624
382.01        29.02481
382.46        28.71661
382.91        28.27692
383.36        27.82545
383.81        27.54125
384.26        27.46188
384.71        27.54615
385.15        27.65893
385.60        27.60025
386.05        27.32751
386.50        26.90167
386.95        26.47994
387.40        26.30888
387.85        26.42805
388.29        26.73693
388.74        27.05755
389.19         27.1193
389.64        26.87234
390.09         26.3962
390.54        25.86347
390.98        25.54188
391.43        25.51503
391.88        25.67808
392.33        25.86195
392.78        25.82423
393.23        25.53531
393.67        25.08174
394.12        24.64842
394.57        24.40088
395.02        24.37426
395.47        24.50351
395.91        24.69993
396.36        24.78419
396.81        24.71473
397.26        24.54284
397.71        24.35362
398.15        24.25349
398.60         24.2917
399.05        24.40743
399.50        24.52386
399.95        24.53601
400.39        24.42099
400.84        24.20778
401.29        23.97003
401.74        23.84193
402.18        23.86702
402.63        23.99855
403.08        24.13909
403.53        24.12841
403.97         23.9361
404.42        23.62748
404.87        23.31713
405.32        23.19283
405.76        23.29086
406.21        23.54214
406.66         23.8301
407.11        23.97449
407.55        23.92858
408.00        23.75109
408.45        23.50927
408.90        23.26312
409.34        23.08203
409.79        23.05997
410.24        23.12917
410.68        23.08685
411.13        22.91954
411.58        22.73257
412.03        22.57813
412.47        22.51075
412.92        22.54423
413.37        22.64915
413.81        22.78957
414.26        22.92934
414.71        23.04189
415.15        23.14249
415.60        23.18854
416.05        23.14567
416.49        23.01134
416.94        22.80194
417.39          22.573
417.83        22.41509
418.28        22.35961
418.73        22.37964
419.17        22.43546
419.62        22.45232
420.07        22.41331
420.51        22.33985
420.96        22.26045
421.41        22.19548
421.85        22.14716
422.30        22.12216
422.74        22.11193
423.19        22.14072
423.64        22.19867
424.08        22.28932
424.53         22.3743
424.98         22.4225
425.42        22.42657
425.87        22.39562
426.31        22.33493
426.76        22.26186
427.21        22.17324
427.65        22.05889
428.10        21.95782
428.54        21.90854
428.99         21.9252
429.44        22.08951
429.88        22.28397
430.33        22.17821
430.77        21.84385
431.22        21.71673
431.66        21.82164
432.11        21.95795
432.56        22.08453
433.00        22.25437
433.45        22.30308
433.89        22.17776
434.34        21.98829
434.78        21.61235
435.23        21.06503
435.67        22.01454
436.12        21.39799
436.57         21.4255
437.01        21.23981
437.46        21.19092
437.90        21.28254
438.35         21.3658
438.79        21.41122
439.24        21.44474
439.68        21.46065
440.13        21.28406
440.57        21.02427
441.02        21.19873
441.46        21.60655
441.91        21.59266
442.35        20.69451
442.80        20.40828
443.24        20.52966
443.69        20.58727
444.13        20.52565
444.58        20.48645
445.02        20.46883
445.47        20.49373
445.91        20.53292
446.36        20.49291
446.80        20.36372
447.24        20.19659
447.69        20.04919
448.13        19.96903
448.58        19.97557
449.02        20.04748
449.47        20.13095
449.91        20.12956
450.36           20.03
450.80        19.86208
451.25        19.68729
451.69        19.58077
452.13        19.56827
452.58        19.61554
453.02        19.69308
453.47        19.75984
453.91        19.79936
454.36        19.82227
454.80        19.81921
455.24        19.77213
455.69        19.69054
456.13        19.55977
456.58        19.42656
457.02        19.35105
457.46        19.34095
457.91        19.33632
458.35        19.31805
458.79        19.30606
459.24        19.28956
459.68        19.26993
460.13        19.29955
460.57        19.27667
461.01        19.18202
461.46        19.53933
461.90        19.59032
462.34        19.36164
462.79        19.49891
463.23        19.34402
463.68        19.20402
464.12        19.07004
464.56        19.10884
465.01         19.1864
465.45         19.2592
465.89        19.28065
466.34        19.24627
466.78        19.10852
467.22        18.93934
467.67        18.98972
468.11        19.21959
468.55        19.24386
468.99        19.07541
469.44        19.04799
469.88        19.16972
470.32        19.24633
470.77        19.24804
471.21        19.22698
471.65        19.18162
472.10        19.09867
472.54        19.00909
472.98        19.00243
473.42        19.08696
473.87        19.18192
474.31        19.25384
474.75        19.36854
475.20         19.4754
475.64        19.38124
476.08        19.16272
476.52        19.10623
476.97         19.2326
477.41        19.41061
477.85        19.57553
478.29        19.67992
478.74        19.70313
479.18        19.62682
479.62        19.52516
480.06        19.51991
480.50        19.60879
480.95        19.66601
481.39        19.66463
481.83        19.65611
482.27        19.64063
482.72        19.60703
483.16         19.5786
483.60        19.58781
484.04        19.63783
484.48          19.789
484.93        20.07796
485.37        20.18137
485.81        20.32743
486.25        20.84625
486.69        21.65248
487.14        21.13008
487.58        20.70765
488.02        21.47467
488.46        20.90928
488.90        21.02654
489.34        20.91602
489.79        21.10885
490.23        21.48372
490.67        21.59883
491.11        21.47838
491.55        21.39183
491.99         21.3856
492.43        21.37224
492.88        21.37468
493.32        21.44233
493.76         21.5757
494.20        21.74877
494.64        21.95452
495.08        22.19436
495.52        22.43742
495.96        22.65196
496.41        22.83059
496.85        22.93417
497.29        22.99443
497.73        23.17609
498.17        23.45516
498.61        23.58078
499.05        23.57423
499.49        23.71038
499.93        24.00518
500.37        24.24823
500.82         24.4251
501.26        24.71421
501.70        25.04888
502.14        25.10021
502.58        24.92449
503.02        24.89664
503.46        25.04648
503.90        25.18046
504.34         25.2577
504.78         25.2958
505.22        25.28633
505.66        25.23878
506.10        25.18559
506.54        25.17338
506.98        25.21854
507.42        25.30988
507.86        25.43884
508.30        25.58962
508.74        25.74796
509.18        25.90929
509.62        26.06051
510.06        26.18155
510.50        26.26744
510.94        26.32503
511.38        26.34865
511.82        26.33319
512.26        26.28591
512.70        26.21164
513.14        26.15161
513.58        26.16441
514.02        26.25263
514.46         26.4025
514.90        26.56054
515.34        26.57444
515.78        26.46887
516.22        26.33005
516.66        26.23737
517.10        25.98698
517.54        25.59981
517.98        26.12585
518.42        25.99708
518.86        26.21298
519.30        26.28942
519.74         26.3776
520.18        26.45311
520.62        26.45714
521.06        26.39993
521.50        26.28208
521.93        26.12759
522.37        25.98561
522.81        25.87324
523.25        25.78606
523.69        25.72061
524.13        25.66832
524.57        25.62319
525.01        25.58453
525.45        25.55439
525.89        25.53358
526.32        25.51801
526.76        25.50799
527.20        25.47833
527.64        25.39584
528.08        25.25632
528.52         25.0662
528.96        24.87413
529.40         24.7536
529.83        24.71686
530.27        24.75239
530.71        24.78941
531.15        24.71648
531.59        24.51792
532.03        24.23327
532.46        23.95361
532.90        23.83986
533.34        23.91179
533.78         24.1089
534.22        24.33355
534.66        24.43658
535.09         24.3764
535.53        24.21136
535.97        23.99295
536.41        23.79982
536.85         23.6648
537.28        23.57638
537.72        23.54429
538.16        23.51192
538.60        23.58838
539.04        23.67403
539.47        23.76825
539.91        23.87645
540.35        24.00447
540.79        23.94429
541.22         24.0236
541.66        24.10308
542.10        24.29946
542.54        24.20935
542.97        24.45905
543.41        24.57523
543.85        24.72725
544.29        24.86241
544.72        24.96023
545.16        25.06008
545.60        25.15878
546.04        25.17184
546.47        25.18088
546.91        25.47331
547.35         25.9839
547.79        26.37032
548.22          26.573
548.66        26.68305
549.10        26.74589
549.53        26.94885
549.97        27.30301
550.41        27.33067
550.84         27.5396
551.28         27.6577
551.72         27.8641
552.15        28.10641
552.59        28.38523
553.03        28.69903
553.46        28.98766
553.90        29.18984
554.34        29.29161
554.77        29.31416
555.21        29.31235
555.65         29.3615
556.08        29.47731
556.52        29.63249
556.96        29.80125
557.39         29.9805
557.83        30.14829
558.27         30.2395
558.70         30.2641
559.14        30.29876
559.57        30.34377
560.01        30.39577
560.45        30.44787
560.88        30.45268
561.32         30.4723
561.75        30.58141
562.19        30.86747
562.63        31.02845
563.06        31.07751
563.50        31.11225
563.93        31.14601
564.37        31.25868
564.80        31.31666
565.24        31.44015
565.68        31.55846
566.11        31.67884
566.55        31.82304
566.98        31.90098
567.42        31.92309
567.85        32.35148
568.29        32.40607
568.72        32.72522
569.16        33.04915
569.60         33.3372
570.03        33.55231
570.47        33.76661
570.90        33.78973
571.34        34.17105
571.77        33.91132
572.21        34.23213
572.64        34.59547
573.08        35.01128
573.51         34.9757
573.95        35.17467
574.38        35.75126
574.82        36.12883
575.25        36.30143
575.69        36.11885
576.12        35.90906
576.56        35.70467
576.99        35.64728
577.42         35.9936
577.86        36.09419
578.29        36.12171
578.73        36.56343
579.16        36.29736
579.60        35.76588
580.03        35.47301
580.47        35.66297
580.90        35.23558
581.33        35.15164
581.77        35.53847
582.20        35.65155
582.64        35.62697
583.07        35.08637
583.51        34.88964
583.94        34.20251
584.37        34.06343
584.81        33.54042
585.24        33.46582
585.68        33.53111
586.11        33.44843
586.54        33.52848
586.98        33.17489
587.41        33.17326
587.85        33.12802
588.28        33.18246
588.71        33.08769
589.15        32.90121
589.58        32.44829
590.01        32.40593
590.45        32.80591
590.88        32.57688
591.31         32.4865
591.75        32.17205
592.18        32.26584
592.61        32.05712
593.05        32.56113
593.48        32.39434
593.91        33.34175
594.35        32.98041
594.78        33.02591
595.21        33.09032
595.65         33.4874
596.08        33.61241
596.51        33.66827
596.94        33.58185
597.38        33.57082
597.81        33.74665
598.24        34.11647
598.68        34.94585
599.11        35.10097
599.54         36.0038
599.97        35.90134
600.41        36.11326
600.84        36.97356
601.27        37.39571
601.70        37.79939
602.14        38.05452
602.57        38.47465
603.00        39.14823
603.43         39.6665
603.87        40.01984
604.30        40.61311
604.73        41.42855
605.16        41.46657
605.60        41.88248
606.03        42.41646
606.46        43.18163
606.89        44.12617
607.32        44.32316
607.76        44.52356
608.19        44.90062
608.62        45.76205
609.05        45.78381
609.48        45.89456
609.92        46.38944
610.35        46.44336
610.78            47.6
611.21        48.22548
611.64        47.96153
612.07        48.46466
612.50        48.73731
612.94        48.63459
613.37        49.29885
613.80        49.62457
614.23        49.98814
614.66         50.5209
615.09        50.84133
615.52        51.25428
615.96        51.58968
616.39        51.81679
616.82        51.97244
617.25        52.06432
617.68        52.24805
618.11        52.66665
618.54        53.17958
618.97        53.39954
619.40        52.95666
619.84        52.95746
620.27         52.6343
620.70        53.19582
621.13        54.17413
621.56        54.36727
621.99        53.92996
622.42        53.96721
622.85        54.54533
623.28        54.75904
623.71        54.58202
624.14        54.67938
624.57        54.60288
625.00        54.30981
625.43        54.67763
625.86        53.85362
626.29          54.022
626.72        53.75977
627.15        53.66563
627.58        53.53321
628.01        53.29271
628.44        53.38337
628.87        52.91503
629.30        52.48086
629.73        52.22207
630.16        51.68303
630.59        51.50117
631.02        51.16429
631.45        50.81444
631.88        50.43115
632.31        49.99971
632.74        49.49795
633.17        48.93666
633.60        48.36489
634.03        47.79698
634.46         47.2312
634.89        46.65438
635.32        46.04292
635.75        45.40441
636.18        44.76004
636.61        44.15542
637.04        43.65728
637.47        43.26982
637.89        42.96099
638.32        42.67612
638.75        42.35889
639.18        41.98963
639.61        41.58855
640.04        41.16631
640.47        40.74071
640.90        40.32751
641.33        39.92643
641.76        39.57253
642.18        39.32691
642.61        39.19372
643.04           39.16
643.47        39.18559
643.90        39.19848
644.33         39.1791
644.76        39.15063
645.18        39.13197
645.61         39.1568
646.04        39.23822
646.47        39.36797
646.90        39.56133
647.33        39.82978
647.75        40.16737
648.18        40.62283
648.61        41.05156
649.04        41.47895
649.47        41.86406
649.89        42.23901
650.32         42.6358
650.75        43.11346
651.18        43.72417
651.61         44.3947
652.03        45.11927
652.46        46.16164
652.89        47.37968
653.32        47.85666
653.74        47.78176
654.17        48.56578
654.60        49.60401
655.03        50.77238
655.46        50.36866
655.88        52.50159
656.31        53.92115
656.74        63.07992
657.16        60.82365
657.59        56.69024
658.02        56.16017
658.45        56.16366
658.87        56.70247
659.30        57.26366
659.73        57.67884
660.15        59.10888
660.58        58.82202
661.01        58.82314
661.44        58.56659
661.86        58.93441
662.29        59.84813
662.72        60.66248
663.14        61.19683
663.57        61.23809
664.00        60.97907
664.42        61.06636
664.85        61.57942
665.27        62.07438
665.70        62.44787
666.13        62.78651
666.55        63.06445
666.98          63.245
667.41        63.36653
667.83        63.48831
668.26        63.61346
668.69        63.76117
669.11         63.9299
669.54        64.02583
669.96        64.03745
670.39        64.32924
670.82        64.33955
671.24        64.52703
671.67        64.77818
672.09        65.07986
672.52        65.31095
672.94        65.99725
673.37        65.83082
673.80        65.69273
674.22        65.36295
674.65        65.26366
675.07        65.45822
675.50        65.75381
675.92        66.05686
676.35        66.21353
676.77        66.18871
677.20        66.04488
677.62        65.85991
678.05        65.75951
678.47        65.77575
678.90        65.88781
679.32         66.0472
679.75        66.26294
680.17         66.4956
680.60         66.7892
681.02        67.07829
681.45        67.13478
681.87        67.00098
682.30        66.94434
682.72        66.99522
683.15        66.97353
683.57        66.94282
684.00         66.9996
684.42        67.20386
684.85         67.6116
685.27        67.61417
685.70        67.76787
686.12         67.8524
686.54        67.97173
686.97        68.15598
687.39        67.78976
687.82        67.91313
688.24        67.91727
688.66        68.08457
689.09        67.94263
689.51        67.80704
689.94         67.8934
690.36        68.22789
690.78        68.27779
691.21        68.04924
691.63        68.08797
692.06        68.43809
692.48        68.32844
692.90        68.39201
693.33        68.77726
693.75        68.49578
694.17        68.51518
694.60         68.5032
695.02        68.35686
695.44        68.11342
695.87        68.22588
696.29        68.59982
696.71        68.44167
697.14        68.01008
697.56        68.15363
697.98        69.40055
698.41        69.99902
698.83        69.49825
699.25        69.12622
699.68        68.87178
700.10        68.67556
700.52        68.59864
700.94        68.68628
701.37        68.85062
701.79          69.037
702.21        69.17741
702.64        69.28612
703.06        69.38224
703.48        69.50974
703.90        69.67645
704.33        69.85714
704.75        69.99149
705.17        69.95007
705.59        69.72015
706.01        69.37155
706.44        69.06307
706.86        68.97813
707.28        69.17773
707.70        69.73059
708.12        70.42381
708.55        70.72983
708.97        70.60408
709.39        70.40788
709.81        70.22904
710.23         70.0229
710.66        69.85221
711.08        69.79063
711.50        69.83123
711.92        69.92948
712.34         70.0727
712.76        70.28391
713.19        70.50018
713.61        70.66694
714.03        70.73515
714.45        70.71632
714.87        70.66505
715.29        70.67645
715.71        70.77121
716.13        70.92084
716.56        71.06347
716.98        71.17688
717.40        71.21672
717.82        71.20584
718.24        71.17429
718.66        71.16815
719.08        71.20039
719.50        71.25188
719.92        71.30805
720.34         71.3455
720.76        71.35738
721.19        71.35287
721.61        71.34515
722.03        71.31638
722.45        71.29169
722.87        71.25999
723.29         71.2501
723.71        71.29935
724.13        71.41393
724.55        71.58112
724.97        71.77402
725.39         71.9408
725.81        72.05692
726.23        72.15692
726.65        72.25418
727.07        72.29749
727.49        72.27309
727.91        72.48586
728.33        72.40544
728.75        72.47341
729.17        72.52749
729.59        72.65219
730.01        72.80037
730.43        72.75992
730.85        72.60269
731.27         72.6513
731.69        72.89277
732.10        73.08496
732.52        73.16264
732.94        73.14654
733.36        73.04153
733.78        72.93754
734.20        72.88696
734.62         72.7537
735.04        72.54718
735.46        72.60078
735.88        72.96909
736.30        72.48152
736.72        73.07598
737.13        73.20099
737.55        73.35033
737.97         73.6842
738.39        74.04777
738.81         73.7333
739.23         72.9502
739.65        72.73875
740.06        73.03614
740.48        73.44825
740.90        73.89975
741.32        73.00502
741.74        72.85994
742.16        73.23472
742.57        72.97305
742.99        73.15202
743.41        73.21851
743.83        73.31771
744.25        73.40053
744.67        73.46244
745.08        73.49392
745.50         73.3987
745.92        73.19339
746.34        72.91129
746.75        72.63161
747.17        72.47078
747.59         72.4614
748.01         72.6013
748.42        72.84073
748.84        73.02897
749.26        73.16494
749.68        73.29379
750.09        73.42575
750.51        73.66069
750.93        73.90319
751.35        73.80229
751.76        73.42812
752.18        73.21377
752.60         73.1798
753.01        73.26423
753.43        73.15688
753.85        73.23532
754.27        73.39471
754.68         73.6983
755.10        74.06512
755.52        73.97792
755.93        73.81891
756.35        73.67382
756.77        73.77763
757.18        73.36075
757.60        73.84167
758.02        74.03903
758.43        74.21913
758.85        74.70898
759.26         74.6027
759.68        74.56908
760.10        74.34508
760.51        74.16714
760.93        74.14487
761.34        73.50507
761.76        73.76817
762.18        73.62974
762.59        72.92119
763.01        72.95827
763.42         73.5293
763.84        73.90604
764.26        74.01828
764.67        73.97785
765.09        73.97018
765.50        74.47106
765.92        75.28226
766.33        75.44366
766.75        74.86179
767.16        74.20558
767.58        73.65534
768.00         73.2534
768.41        73.15496
768.83        73.43875
769.24        73.97451
769.66        74.52678
770.07        74.92068
770.49        74.92073
770.90        74.66023
771.32        74.77544
771.73        75.21605
772.15        75.27719
772.56        74.96342
772.97        74.72554
773.39        74.56902
773.80        74.37503
774.22        74.12025
774.63        73.70858
775.05        73.37833
775.46        73.34559
775.88        73.65566
776.29        74.21599
776.70        74.78291
777.12        75.00596
777.53        74.80961
777.95        74.26933
778.36        73.64747
778.77        73.39015
779.19        73.60535
779.60        74.21883
780.02        74.92611
780.43        75.35962
780.84        75.42744
781.26        74.98424
781.67        74.38072
782.09        74.88783
782.50        76.19077
782.91        76.38791
783.33        75.52024
783.74        75.18379
784.15        75.45459
784.57        75.64099
784.98        75.61809
785.39        75.23783
785.81        74.61023
786.22        74.32131
786.63         74.4047
787.04        74.43414
787.46        74.40745
787.87        74.57767
788.28        74.92007
788.70        75.19865
789.11        75.36359
789.52        75.57849
789.93        75.78362
790.35        75.66111
790.76        75.29979
791.17        75.18004
791.58        75.33595
792.00        75.27937
792.41        74.97775
792.82        75.04209
793.23        75.28158
793.65        74.65266
794.06        73.57073
794.47        73.93596
794.88         75.4249
795.29        76.47284
795.71        75.96009
796.12        75.75873
796.53        76.21928
796.94        75.66718
797.35        74.55215
797.76        74.27801
798.18        74.84135
798.59        75.18657
799.00        75.18069
799.41         75.2599
799.82        75.41506
800.23        75.54183
800.64        75.62085
801.06        75.53432
801.47        75.38734
801.88         75.3856
802.29        75.55323
802.70        75.79734
803.11        76.01002
803.52        76.01653
803.93         75.7917
804.34        75.43962
804.75        75.05834
805.17        74.76299
805.58        74.81778
805.99        74.76956
806.40        74.71604
806.81        75.37177
807.22        76.41246
807.63        76.34946
808.04        75.39841
808.45        75.20164
808.86        75.89706
809.27        76.63245
809.68        77.17211
810.09        77.45873
810.50        77.38728
810.91        77.02237
811.32        76.50042
811.73        75.97569
812.14        75.52264
812.55        75.21819
812.96        75.07117
813.37        74.83368
813.78        74.61346
814.19        74.97074
814.60        75.70013
815.01        76.01564
815.42        75.84172
815.83        75.53257
816.24        75.23601
816.65        75.09138
817.05        75.18579
817.46        75.42052
817.87        75.71267
818.28        75.88837
818.69        75.91931
819.10         75.8801
819.51        75.80534
819.92        75.84426
820.33        76.04742
820.74        76.07186
821.14        76.01442
821.55        76.66754
821.96        77.72646
822.37        77.66043
822.78        76.59418
823.19        76.09299
823.60        76.27958
824.00         76.2832
824.41        76.01094
824.82        75.86433
825.23        75.85616
825.64         75.8974
826.04        76.00413
826.45         76.1495
826.86        76.32798
827.27        76.54185
827.68        76.75911
828.08        76.94433
828.49        77.02588
828.90        77.04036
829.31        77.00196
829.72        76.94436
830.12        76.90289
830.53        76.83463
830.94        76.76348
831.35        76.69207
831.75        76.64411
832.16        76.58623
832.57         76.5302
832.97        76.46722
833.38        76.37688
833.79        76.26204
834.20        76.15054
834.60        76.07597
835.01        76.06274
835.42        76.11752
835.82        76.18704
836.23          76.125
836.64        75.93247
837.04         75.6397
837.45        75.39252
837.86        75.47537
838.26        75.94714
838.67        76.68703
839.08        77.44156
839.48        77.73251
839.89        77.44146
840.29        76.75673
840.70        76.01499
841.11         75.6348
841.51         75.7394
841.92        76.13579
842.33         76.7502
842.73        77.45492
843.14         78.0588
843.54         78.6655
843.95        79.06173
844.35        78.98252
844.76        78.42352
845.17        77.49544
845.57        76.52617
845.98        76.04957
846.38        76.18597
846.79        76.79128
847.19        77.68694
847.60        78.38126
848.00        78.75294
848.41        78.86119
848.81        78.85537
849.22        78.88984
849.62         79.0584
850.03        79.23311
850.43         79.3928
850.84        79.41014
851.24        79.31098
851.65        79.09861
852.05        78.87502
852.46        78.67029
852.86        78.52234
853.27        78.44805
853.67        78.38705
854.07        78.38518
854.48        78.40533
854.88        78.46067
855.29        78.48666
855.69        78.52683
856.10         78.4924
856.50         78.4724
856.90        78.40739
857.31        78.23956
857.71        78.05624
858.12        77.82012
858.52        77.66016
858.92        77.66138
859.33        77.81691
859.73        78.13199
860.13        78.51577
860.54        78.80121
860.94         78.9764
861.34        79.02846
861.75        78.91307
862.15        78.67636
862.55        78.31554
862.96        77.86722
863.36         77.4353
863.76        77.16094
864.17        77.08319
864.57        77.18365
864.97        77.43867
865.38        77.78074
865.78        78.21455
866.18        78.67384
866.58        79.01923
866.99        79.02271
867.39        78.68056
867.79        78.02783
868.19        77.15386
868.60        76.18792
869.00        75.17821
869.40         74.1678
869.80        73.35049
870.21        73.01906
870.61        73.28124
871.01        74.00054
871.41        74.86269
871.81        75.35553
872.22         75.3596
872.62         75.0163
873.02        74.47858
873.42        74.19881
873.82        74.12171
874.22        73.68784
874.63        73.10723
875.03        72.92464
875.43        73.21859
875.83        74.72554
876.23        74.76694
876.63        74.43756
877.03          73.266
877.44        71.36386
877.84        126.4635
878.24        71.76589
878.64        73.05981
879.04        76.49727
879.44        73.66172
879.84        71.88365
880.24        75.32993
880.64        75.15694
881.04        72.22097
881.44        70.28912
881.84          70.021
882.24        70.79514
882.65         72.0806
883.05        72.82609
883.45        72.65117
883.85        72.15722
884.25        71.68181
884.65        71.48608
885.05         71.6746
885.45        72.11868
885.85        72.59042
886.25        72.75272
886.65        72.52303
887.05        72.03536
887.45        71.52808
887.85        71.34113
888.25        71.55755
888.65         72.0766
889.04        72.72718
889.44        73.13073
889.84         73.2028
890.24         73.0338
890.64        72.77303
891.04        72.65584
891.44        72.71188
891.84        72.81459
892.24        72.85233
892.64        72.64645
893.04        72.18356
893.44        71.63261
893.83        70.98817
894.23        70.25067
894.63        69.45592
895.03        68.59924
895.43         67.9873
895.83        68.13469
896.23        69.09052
896.63        70.66991
897.02        72.32483
897.42        73.05569
897.82        72.62826
898.22        71.36795
898.62        69.78486
899.01        68.67221
899.41        68.30482
899.81        68.42482
900.21        68.91533
900.61         69.6012
901.00        70.35991
901.40        71.22417
901.80        72.03931
902.20        72.51049
902.59        72.57229
902.99        72.26422
903.39        71.71397
903.79        71.17369
904.18        70.74833
904.58        70.43662
904.98        70.29254
905.38         70.3944
905.77        70.72288
906.17         71.2621
906.57         71.8425
906.96        72.21516
907.36        72.26188
907.76        72.01413
908.15         71.6227
908.55        71.29144
908.95        71.10829
909.34        71.07578
909.74        71.00469
910.14        70.56748
910.53        69.73094
910.93        68.67672
911.33        67.85813
911.72        67.98475
912.12        69.10436
912.52        70.88163
912.91        72.71432
913.31        73.60384
913.70        73.36237
914.10        72.24817
914.49        70.61654
914.89        69.29485
915.29        68.64437
915.68        68.47164
916.08        68.67629
916.47        69.07552
916.87        69.54021
917.26         70.1203
917.66        70.70027
918.05        71.10979
918.45        71.27055
918.84         71.2425
919.24        70.96725
919.64        70.39639
920.03        69.59138
920.42        68.61379
920.82        67.83986
921.21        67.79158
921.61        68.49298
922.00        69.82512
922.40        71.22775
922.79        72.01151
923.19        71.97327
923.58        71.10702
923.98        69.71065
924.37        69.01611
924.77         69.5044
925.16         67.6515
925.55        69.22115
925.95        69.23725
926.34        69.39754
926.74        69.58875
927.13        69.91389
927.52        70.32224
927.92        70.75622
928.31        71.27322
928.70        71.71017
929.10        71.83652
929.49        71.60648
929.89        71.07289
930.28        70.52357
930.67        70.41951
931.07        70.82564
931.46        71.65813
931.85        72.52158
932.24        72.82889
932.64        72.44049
933.03        71.43633
933.42        70.19009
933.82         69.4835
934.21        69.51753
934.60         70.0761
934.99        70.52721
935.39        70.26289
935.78        69.20726
936.17        67.02229
936.56        64.03634
936.96        64.77108
937.35         64.1548
937.74        66.10537
938.13        68.15765
938.53        69.55836
938.92        70.20563
939.31         70.3851
939.70        70.29259
940.09        70.13693
940.49        70.05396
940.88        69.97392
941.27        69.96606
941.66        70.18871
942.05        70.63905
942.44        71.26436
942.84        71.96117
943.23        72.54768
943.62        72.92698
944.01        73.17542
944.40        73.18098
944.79        72.77843
945.18        71.97313
945.57        70.77551
945.97        69.62141
946.36        69.24329
946.75        69.85471
947.14        71.19675
947.53        72.60639
947.92         73.1627
948.31        72.71085
948.70        71.52819
949.09        70.10115
949.48        69.29019
949.87        69.36068
950.26        70.04456
950.65        70.97015
951.04        71.51888
951.43        71.49574
951.82        71.11929
952.21        70.59234
952.60        70.22235
952.99         70.1078
953.38        70.10664
953.77        70.16647
954.16        70.23458
954.55        70.26652
954.94        70.29973
955.33        70.26949
955.72        70.03908
956.11        69.60592
956.50        69.03136
956.89        68.44025
957.28        68.09313
957.66        68.09615
958.05        68.28248
958.44        68.63263
958.83         69.1143
959.22        69.67027
959.61        70.32061
960.00        70.78014
960.39         70.5448
960.78        69.54638
961.16        67.94109
961.55        66.31512
961.94        65.44549
962.33         65.5129
962.72        66.32372
963.11         67.4349
963.49        68.07108
963.88        67.91383
964.27        67.22415
964.66        66.38165
965.04        66.01619
965.43        66.28963
965.82        66.99464
966.21        67.81742
966.60        68.26987
966.98        68.23102
967.37         67.8419
967.76        67.38761
968.15        67.29451
968.53        67.66515
968.92        68.24913
969.31        68.81584
969.69        68.98824
970.08        68.61615
970.47        67.91285
970.86        66.96695
971.24         65.8755
971.63        64.80079
972.02        63.73985
972.40        62.94786
972.79        62.87662
973.17        63.62237
973.56         64.9715
973.95        66.58665
974.33        67.84438
974.72         68.3853
975.11        68.34077
975.49        67.81414
975.88        66.99414
976.26         66.0209
976.65        64.92941
977.04        63.80167
977.42        62.80191
977.81        62.02805
978.19        61.45225
978.58        61.26502
978.96         61.7497
979.35        62.83982
979.74        64.54071
980.12        66.28123
980.51        66.80421
980.89        65.98849
981.28        64.16669
981.66        62.31744
982.05        61.82436
982.43         62.8774
982.82        65.01791
983.20        67.53104
983.59        68.81381
983.97        68.45473
984.35        66.85134
984.74        64.74715
985.12        63.20654
985.51        62.55769
985.89         62.4524
986.28        62.62136
986.66         62.6406
987.04        62.29177
987.43        61.89313
987.81        61.35725
988.20        60.46119
988.58        59.09714
988.96        57.08916
989.35        54.86388
989.73        53.83102
990.12         54.6507
990.50        56.92952
990.88        59.39215
991.27        60.60701
991.65        60.58952
992.03        59.71745
992.42        58.75974
992.80        59.14169
993.18         61.2067
993.56        64.16573
993.95        67.14291
994.33        69.38885
994.71        70.52963
995.10        70.86391
995.48        70.49549
995.86         69.4576
996.24        67.86515
996.63        65.70789
997.01        63.23775
997.39        61.37126
997.77        60.64948
998.15        60.89308
998.54        61.83075
998.92        63.13607
999.30        64.76075
999.68        67.00964
1000.06        69.27193
1000.45        69.46798
1000.83          67.031
1001.21        63.02142
1001.59        59.32478
1001.97        57.36573
1002.35        56.97826
1002.73        57.69669
1003.12        58.98938
1003.50        59.71866
1003.88        59.25668
1004.26        58.08849
1004.64        56.55267
1005.02         55.0365
1005.40        53.71774
1005.78        52.38426
1006.16        51.50693
1006.54        52.07246
1006.92        53.92498
1007.30        56.30591
1007.69        58.32729
1008.07         59.2942
1008.45        59.03098
1008.83        57.70912
1009.21        54.69004
1009.59        49.42964
1009.97        42.75629
1010.35        35.73295
1010.73        31.54973
1011.11        32.97437
1011.49        39.20959
1011.86        48.90857
1012.24        57.85102
1012.62        61.77926
1013.00        60.40488
1013.38        55.33436
1013.76        48.81364
1014.14        44.81752
1014.52        44.64007
1014.90         47.0999
1015.28        50.66748
1015.66        52.77757
1016.04        52.50749
1016.41        50.63242
1016.79        47.79675
1017.17        45.64677
1017.55        45.05265
1017.93        45.23582
1018.31        45.71618
1018.69        46.14885
1019.06        46.35527
1019.44        46.30412
1019.82        45.76212
1020.20        44.14703
1020.58        41.44216
1020.95        38.05749
1021.33         34.1606
1021.71        28.89931
1022.09        21.01665
1022.46        6.866233
1022.84       -13.22002
1023.22       -18.27715
1023.60        1.980247
1023.97        24.46037
1024.35        37.05064
1024.73        41.21377
