SpectraSmart Spectrum 2.9.0.0
--------- Device Information -----------
Spectrum Name :  反射率_0
Saving Time :  2024/04/20 00:31:46
Spectro-Module Model Name : SE2030-DUVN
Spectro-Module Serial Number : OS361AC55029948
Wavelength Start : 200
Wavelength End : 1025
Wavelength Unit : Wavelength(nm)
Spectrum Unit : Reflectance(%)
-----------Spectrum Setting ------------
Integration Time : 30ms
Average : 10
Boxcar : 0
Background removal :  enabled
linearity correction :  enabled
SC :  disabled
Intensity correction :  disabled
DWT denoise :  enabled
savitzky-golay :  disabled
FFT :  disabled
Running average :  disabled
Kalman :  disabled
High pass :  disabled
---------------BEGIN--------------------
Wavelength(nm)             Reflectance(%)
200.29               0
200.75        61.56585
201.21        60.93262
201.67        61.67616
202.13        64.44963
202.58        69.46337
203.04        76.83881
203.50        84.37065
203.96        86.29738
204.42         82.1627
204.88        75.56603
205.34        69.40949
205.80        64.74869
206.26        60.77818
206.72        56.21321
207.18        50.74113
207.64          46.783
208.10        47.31915
208.55         51.9768
209.01        57.25588
209.47        60.71485
209.93        62.19804
210.39        62.51247
210.85        61.74268
211.31        59.84867
211.77        56.76384
212.23        51.94765
212.69        46.31491
213.14        44.49102
213.60        47.66003
214.06        53.29054
214.52         58.2995
214.98        61.22479
215.44        62.50268
215.90        62.58899
216.36        62.17698
216.81        62.61771
217.27        64.14471
217.73        66.28187
218.19        67.41702
218.65        65.34977
219.11        59.64275
219.57        50.49636
220.02        39.90751
220.48        33.64775
220.94        33.82404
221.40        39.72697
221.86        47.38844
222.32           50.52
222.77        47.78135
223.23        41.21206
223.69        35.00088
224.15        34.98531
224.61        40.63545
225.06        48.44746
225.52          54.721
225.98        56.34036
226.44        53.45312
226.90         47.5812
227.36        40.64249
227.81        36.15467
228.27        35.60989
228.73        37.50899
229.19        40.53544
229.65        43.16196
230.10        44.92309
230.56        46.28675
231.02        47.28172
231.48        47.89286
231.93        48.16499
232.39        48.09239
232.85        47.75049
233.31        47.34443
233.77        46.96723
234.22        46.62144
234.68        46.39893
235.14        46.31855
235.60        46.39637
236.05        46.63878
236.51        47.06995
236.97        47.72393
237.43        48.69114
237.88        50.24775
238.34        52.18153
238.80        53.97821
239.26        55.04737
239.71        55.13327
240.17         54.7827
240.63        55.53442
241.08        57.80522
241.54        61.27674
242.00        64.58165
242.46        65.12532
242.91        61.68642
243.37        53.18563
243.83        40.47798
244.28        32.57465
244.74         38.2304
245.20        55.60226
245.66        72.52147
246.11         78.5335
246.57        72.75845
247.03          55.803
247.48        31.94047
247.94        24.42477
248.40        36.99745
248.85        53.35181
249.31        65.26823
249.77        70.77009
250.22        71.56714
250.68        69.59637
251.14        65.97808
251.59        63.05573
252.05        62.41962
252.51        63.51629
252.96        64.96193
253.42        64.65635
253.88        62.32846
254.33        59.22453
254.79        57.65264
255.25        59.41863
255.70        63.98826
256.16        69.88036
256.62        74.99691
257.07        77.07108
257.53        76.26482
257.99        73.50307
258.44        69.87801
258.90        67.55576
259.35        66.34406
259.81        66.08339
260.27        65.74205
260.72        64.45686
261.18        62.56758
261.63        60.04117
262.09        57.91685
262.55        57.07151
263.00        57.40185
263.46         58.5419
263.91        59.38808
264.37        58.97832
264.83        57.29001
265.28         54.7343
265.74         52.3716
266.19        51.19461
266.65         51.3825
267.11        52.37484
267.56         53.4353
268.02        53.52174
268.47        52.44245
268.93        50.57829
269.38         48.4012
269.84        46.90149
270.30        46.32581
270.75        46.36515
271.21        46.61256
271.66        46.45168
272.12        45.71667
272.57        44.61477
273.03        43.40817
273.48        42.39814
273.94        41.73416
274.39        41.26521
274.85        40.88816
275.31        40.41557
275.76        39.77713
276.22        39.06125
276.67        38.34127
277.13        37.83875
277.58        37.51492
278.04        37.33271
278.49        37.06134
278.95        36.46613
279.40        35.49224
279.86        34.33374
280.31        33.15788
280.77        32.35011
281.22        31.90417
281.68        31.73296
282.13        31.65185
282.59         31.4359
283.04        31.02119
283.50        30.52871
283.95        30.01381
284.41        29.59817
284.86        29.29086
285.32         29.0707
285.77        28.92574
286.22        28.91497
286.68        29.01955
287.13        29.18703
287.59        29.34135
288.04        29.33811
288.50        29.17472
288.95        28.86266
289.41        28.49423
289.86        28.13436
290.32         27.8664
290.77         27.6701
291.22        27.57103
291.68        27.56811
292.13        27.66189
292.59        27.87294
293.04        28.21129
293.50        28.70518
293.95        29.33303
294.40        30.06212
294.86        30.83155
295.31        31.56221
295.77        32.22943
296.22        32.84416
296.68        33.42428
297.13         33.9831
297.58        34.53967
298.04        35.09863
298.49         35.6683
298.95         36.3035
299.40        36.99462
299.85        37.72599
300.31        38.47092
300.76        39.17651
301.21        39.82284
301.67        40.44244
302.12        40.99032
302.58        41.47426
303.03        41.87353
303.48        42.20981
303.94        42.55961
304.39        42.99459
304.84        43.53463
305.30        44.14643
305.75        44.71933
306.20         45.1121
306.66        45.31966
307.11        45.37258
307.57        45.37634
308.02        45.40638
308.47        45.51361
308.93        45.66048
309.38        45.82688
309.83        46.04023
310.29         46.2842
310.74        46.55667
311.19        46.76011
311.65        46.73457
312.10        46.45823
312.55        45.98361
313.00         45.4851
313.46        45.23278
313.91        45.26451
314.36        45.51678
314.82         45.8129
315.27        45.88704
315.72         45.6599
316.18        45.23339
316.63         44.7424
317.08        44.40653
317.53        44.27859
317.99        44.27752
318.44        44.31929
318.89        44.25723
319.35        44.04948
319.80        43.75309
320.25        43.42242
320.70        43.14054
321.16        42.92909
321.61         42.7626
322.06        42.61328
322.51        42.44597
322.97        42.23915
323.42         42.0144
323.87        41.77134
324.32        41.51459
324.78        41.24022
325.23        40.95834
325.68        40.65913
326.13        40.33759
326.59        39.99864
327.04        39.67687
327.49        39.38757
327.94        39.15921
328.39        38.99481
328.85        38.85801
329.30        38.78482
329.75        38.77157
330.20        38.80218
330.66        38.85021
331.11        38.86621
331.56        38.71161
332.01        38.36515
332.46        37.86382
332.92        37.31602
333.37        36.93076
333.82        36.77445
334.27        36.81984
334.72        36.97824
335.17        37.08709
335.63        37.07726
336.08        36.99022
336.53        36.90618
336.98        36.97934
337.43        37.23015
337.88        37.60087
338.34        37.89731
338.79        37.86098
339.24        37.43003
339.69            36.7
340.14        35.93368
340.59        35.56875
341.05        35.70209
341.50         36.2015
341.95         36.8144
342.40        37.14849
342.85        37.10038
343.30        36.79943
343.75        36.37802
344.20        36.05175
344.66        35.89252
345.11         35.8049
345.56        35.77374
346.01        35.77971
346.46        35.79794
346.91        35.85688
347.36        35.88124
347.81        35.73862
348.26        35.42455
348.72        35.00201
349.17        34.57611
349.62        34.39902
350.07        34.52378
350.52        34.85792
350.97        35.27132
351.42        35.57055
351.87        35.69049
352.32        35.67821
352.77        35.55186
353.22        35.34442
353.67         35.0848
354.13        34.78201
354.58        34.45046
355.03        34.16011
355.48        33.93428
355.93        33.77317
356.38        33.67099
356.83        33.60619
357.28        33.56108
357.73        33.52779
358.18        33.48544
358.63        33.40409
359.08         33.2725
359.53        33.09565
359.98        32.87138
360.43        32.59812
360.88        32.28572
361.33        31.94371
361.78         31.6083
362.23         31.3393
362.68        31.14947
363.13        31.01709
363.58        30.90893
364.03        30.76914
364.48        30.57509
364.93        30.33914
365.38        30.05538
365.83        29.72167
366.28        29.35122
366.73        28.95014
367.18        28.56096
367.63        28.24837
368.08        28.02503
368.53        27.87783
368.98        27.76195
369.43         27.6001
369.88        27.37485
370.33        27.11056
370.78        26.84122
371.23         26.6288
371.68        26.49216
372.13        26.40306
372.58        26.35012
373.03        26.31798
373.48        26.28716
373.93        26.25509
374.38        26.18753
374.83        26.02917
375.28        25.77576
375.72        25.44248
376.17        25.09234
376.62        24.78942
377.07        24.56413
377.52        24.39865
377.97        24.30202
378.42        24.28344
378.87        24.32518
379.32        24.41364
379.77        24.48785
380.22        24.45509
380.67        24.29708
381.11        24.04061
381.56        23.72735
382.01        23.45569
382.46        23.25808
382.91         23.1067
383.36        22.98547
383.81        22.86258
384.26        22.72765
384.71        22.60679
385.15        22.47657
385.60        22.30458
386.05        22.09023
386.50        21.83728
386.95        21.61758
387.40        21.54682
387.85         21.6364
388.29        21.84109
388.74        22.05074
389.19        22.09671
389.64        21.94808
390.09        21.64545
390.54        21.30684
390.98        21.11613
391.43        21.13096
391.88        21.27885
392.33        21.42571
392.78        21.37845
393.23        21.11893
393.67        20.71564
394.12        20.33453
394.57        20.13092
395.02        20.13564
395.47        20.29196
395.91        20.50678
396.36        20.59455
396.81        20.51176
397.26        20.31128
397.71        20.09033
398.15        19.97653
398.60        20.01805
399.05        20.15184
399.50        20.28963
399.95        20.30859
400.39        20.18322
400.84        19.95051
401.29        19.69558
401.74        19.57282
402.18         19.6299
402.63        19.80961
403.08        20.00556
403.53        20.04618
403.97        19.89611
404.42        19.62397
404.87        19.33623
405.32        19.20766
405.76        19.27609
406.21        19.47658
406.66         19.7165
407.11        19.85262
407.55        19.84735
408.00        19.75338
408.45        19.61139
408.90        19.44179
409.34         19.2946
409.79        19.25172
410.24        19.28686
410.68        19.27859
411.13        19.22182
411.58        19.19144
412.03        19.18382
412.47        19.16355
412.92        19.12519
413.37        19.07133
413.81        19.03489
414.26         19.0826
414.71        19.21456
415.15        19.41785
415.60         19.6001
416.05        19.63913
416.49        19.50586
416.94        19.24355
417.39        18.94934
417.83        18.77966
418.28        18.78124
418.73        18.90248
419.17        19.06508
419.62        19.13592
420.07        19.08722
420.51        18.96402
420.96        18.82815
421.41        18.75254
421.85        18.75101
422.30        18.80602
422.74        18.88657
423.19        18.98189
423.64         19.0738
424.08         19.1779
424.53        19.26191
424.98        19.29991
425.42        19.28989
425.87        19.23902
426.31        19.16439
426.76        19.10382
427.21        19.05733
427.65        19.00936
428.10        18.98147
428.54        18.98047
428.99        19.01195
429.44        19.16043
429.88        19.32493
430.33        19.21843
430.77        18.90662
431.22        18.76441
431.66        18.83797
432.11         18.9803
432.56        19.15858
433.00        19.46389
433.45        19.70297
433.89        19.59826
434.34        19.28555
434.78        18.96107
435.23         18.6187
435.67        19.51744
436.12        18.92832
436.57        18.87966
437.01        18.64626
437.46        18.58784
437.90        18.71763
438.35        18.87074
438.79        18.98216
439.24        19.03395
439.68        19.00981
440.13        18.76312
440.57        18.43829
441.02        18.56308
441.46        18.97318
441.91        19.06749
442.35        18.37724
442.80        18.15197
443.24        18.20339
443.69        18.14422
444.13        17.96535
444.58        17.85559
445.02        17.83185
445.47        17.88737
445.91        17.98653
446.36        18.03047
446.80        17.99626
447.24        17.93456
447.69        17.86953
448.13        17.79962
448.58        17.74048
449.02        17.68694
449.47        17.63824
449.91        17.58718
450.36        17.53924
450.80         17.4957
451.25         17.4699
451.69        17.46194
452.13        17.47614
452.58        17.50242
453.02        17.53525
453.47         17.5681
453.91        17.59804
454.36        17.62498
454.80        17.63661
455.24        17.61258
455.69        17.55921
456.13        17.46618
456.58        17.37785
457.02        17.35002
457.46        17.38809
457.91         17.4341
458.35        17.46207
458.79        17.47732
459.24         17.4684
459.68        17.43972
460.13         17.4489
460.57        17.41892
461.01         17.3372
461.46        17.67352
461.90        17.73522
462.34        17.53186
462.79        17.64673
463.23        17.49005
463.68        17.35023
464.12        17.23503
464.56        17.29754
465.01         17.4063
465.45        17.51369
465.89        17.56721
466.34        17.55946
466.78          17.451
467.22        17.30297
467.67        17.33726
468.11        17.51815
468.55        17.49806
468.99        17.30492
469.44        17.26603
469.88        17.39364
470.32        17.50454
470.77        17.55721
471.21        17.57622
471.65         17.5525
472.10        17.48053
472.54        17.39328
472.98        17.38125
473.42        17.45704
473.87        17.54581
474.31         17.6174
474.75        17.73315
475.20          17.846
475.64        17.77534
476.08        17.59584
476.52        17.57709
476.97         17.7368
477.41        17.95287
477.85        18.14369
478.29        18.23045
478.74        18.19073
479.18        18.02124
479.62        17.82809
480.06        17.77875
480.50        17.88198
480.95        18.00592
481.39        18.09079
481.83        18.12994
482.27         18.1091
482.72         18.0302
483.16        17.94099
483.60        17.91488
484.04        17.95313
484.48        18.11409
484.93        18.43085
485.37        18.47607
485.81        18.38889
486.25        18.96276
486.69        19.56466
487.14         18.8569
487.58        18.49233
488.02        19.48762
488.46         18.9559
488.90        19.21604
489.34        19.16036
489.79         19.3039
490.23        19.56249
490.67        19.62502
491.11        19.53665
491.55        19.49535
491.99        19.52215
492.43        19.51614
492.88        19.48823
493.32        19.48933
493.76        19.54873
494.20        19.67901
494.64        19.88015
495.08        20.16673
495.52        20.47416
495.96        20.65208
496.41        20.71315
496.85        20.78445
497.29        20.89231
497.73        21.05581
498.17        21.25081
498.61        21.32879
499.05        21.31211
499.49         21.4131
499.93        21.64574
500.37        21.83286
500.82        21.96274
501.26        22.19624
501.70        22.47323
502.14         22.4965
502.58        22.31911
503.02        22.28096
503.46        22.40934
503.90        22.53137
504.34        22.60439
504.78        22.63474
505.22        22.61301
505.66        22.54808
506.10        22.48206
506.54        22.47805
506.98         22.5532
507.42        22.69075
507.86        22.85896
508.30        23.00517
508.74        23.10909
509.18        23.17863
509.62        23.23206
510.06        23.29885
510.50        23.38723
510.94        23.49187
511.38         23.5803
511.82        23.60226
512.26        23.55209
512.70        23.44643
513.14        23.35004
513.58        23.35957
514.02        23.48455
514.46        23.69532
514.90        23.91177
515.34        23.94357
515.78        23.79996
516.22        23.59316
516.66        23.42625
517.10        23.12421
517.54        22.71911
517.98        23.28904
518.42        23.19527
518.86        23.45879
519.30        23.56964
519.74        23.69118
520.18        23.79285
520.62        23.80407
521.06         23.7375
521.50          23.598
521.93        23.42539
522.37        23.29633
522.81        23.23242
523.25        23.21693
523.69        23.23519
524.13        23.26115
524.57        23.28028
525.01        23.29614
525.45        23.29996
525.89         23.2765
526.32        23.22229
526.76        23.14292
527.20        23.04006
527.64        22.92335
528.08        22.79988
528.52        22.66825
528.96        22.55033
529.40        22.47594
529.83        22.44797
530.27        22.46579
530.71        22.48739
531.15        22.44656
531.59        22.33455
532.03        22.17276
532.46          22.015
532.90         21.9649
533.34        22.03049
533.78        22.17051
534.22        22.32354
534.66        22.39591
535.09        22.36024
535.53         22.2578
535.97        22.11301
536.41        21.96168
536.85        21.82548
537.28        21.70598
537.72        21.63424
538.16        21.59237
538.60        21.68697
539.04        21.81252
539.47         21.9457
539.91        22.05806
540.35        22.14766
540.79        22.03563
541.22         22.0416
541.66        22.06318
542.10         22.2168
542.54        22.12765
542.97        22.36071
543.41        22.47226
543.85        22.61242
544.29        22.73439
544.72        22.82616
545.16         22.9337
545.60        23.05473
546.04        23.10651
546.47        23.14505
546.91        23.41409
547.35        23.85081
547.79        24.12725
548.22        24.21901
548.66        24.30303
549.10        24.40384
549.53        24.56853
549.97        24.81054
550.41        24.80247
550.84        25.00823
551.28        25.11452
551.72        25.28534
552.15        25.50646
552.59        25.77744
553.03        26.08698
553.46        26.36505
553.90        26.53297
554.34        26.57626
554.77        26.52267
555.21        26.44732
555.65        26.45756
556.08        26.57591
556.52        26.76648
556.96        26.97789
557.39        27.16385
557.83        27.29398
558.27        27.32112
558.70        27.27948
559.14        27.27746
559.57        27.32332
560.01        27.40004
560.45        27.47677
560.88        27.47304
561.32         27.4397
561.75        27.46154
562.19         27.6399
562.63        27.73697
563.06        27.77502
563.50        27.83119
563.93        27.90524
564.37        28.04931
564.80        28.13294
565.24        28.26504
565.68        28.38386
566.11         28.4927
566.55        28.60813
566.98        28.67443
567.42        28.68684
567.85        29.00381
568.29        28.88173
568.72         29.1972
569.16        29.64232
569.60        29.93941
570.03        30.04091
570.47        30.12535
570.90        30.09308
571.34         30.4688
571.77        30.26492
572.21        30.72835
572.64         30.9686
573.08        31.00761
573.51        31.09587
573.95         31.7355
574.38        31.80154
574.82        32.09796
575.25        32.21544
575.69        32.07715
576.12        32.03782
576.56        31.80468
576.99        31.77375
577.42        32.06886
577.86        31.96731
578.29        32.15622
578.73         32.5619
579.16        32.24649
579.60        32.11205
580.03        31.88911
580.47         31.9271
580.90        31.63064
581.33        31.64479
581.77        31.76503
582.20        31.93345
582.64        31.64929
583.07        31.18442
583.51          31.022
583.94        30.87268
584.37        30.56797
584.81        30.20972
585.24        30.11032
585.68        30.27426
586.11         30.1376
586.54        30.00932
586.98        29.86236
587.41        29.82517
587.85        29.82306
588.28        29.82136
588.71         29.7399
589.15        29.60589
589.58        29.29762
590.01         29.2692
590.45        29.50368
590.88        29.44084
591.31        29.42279
591.75        29.05834
592.18        29.19629
592.61        29.09583
593.05        29.57923
593.48        29.39701
593.91        30.02954
594.35        29.64063
594.78        29.67206
595.21        29.94868
595.65        30.34046
596.08         30.3476
596.51        30.39112
596.94        30.38739
597.38        30.50387
597.81        30.81208
598.24        30.95656
598.68        31.38069
599.11         31.7344
599.54        32.54302
599.97        32.32606
600.41        32.69315
600.84         33.4475
601.27        33.80228
601.70        34.25073
602.14        34.44691
602.57         34.8806
603.00         35.5027
603.43        35.96344
603.87        36.28725
604.30        36.80606
604.73        37.50559
605.16        37.94957
605.60        38.50533
606.03        38.95684
606.46        39.30991
606.89        40.08736
607.32        40.62189
607.76        40.76086
608.19        40.97484
608.62        41.60577
609.05        41.84258
609.48        42.04456
609.92        42.41775
610.35        42.54969
610.78        43.57521
611.21        44.16225
611.64        43.94989
612.07        44.72092
612.50        44.89193
612.94        44.95886
613.37        45.57032
613.80        45.91975
614.23        46.26939
614.66        46.68703
615.09        46.78376
615.52        47.19651
615.96        47.65433
616.39        48.05831
616.82        48.49437
617.25        47.91104
617.68        48.39183
618.11        49.05492
618.54        49.50172
618.97        49.68435
619.40        49.44587
619.84        49.18726
620.27        49.30539
620.70        49.72978
621.13        50.40847
621.56         50.6848
621.99        50.64497
622.42        50.74061
622.85        51.09359
623.28        51.17356
623.71        50.98016
624.14        51.31314
624.57        51.07149
625.00        50.86088
625.43        51.21614
625.86        50.42916
626.29        50.63877
626.72        50.39351
627.15        50.29716
627.58        50.16928
628.01        49.95054
628.44        49.99808
628.87        49.61222
629.30        49.14057
629.73        48.89268
630.16        48.41489
630.59        48.31852
631.02        47.96756
631.45         47.4953
631.88        47.09452
632.31        46.60872
632.74        46.07198
633.17        45.46343
633.60         44.8923
634.03        44.37647
634.46        43.89489
634.89        43.42286
635.32        42.91257
635.75        42.35833
636.18        41.78642
636.61        41.22693
637.04        40.71919
637.47        40.26855
637.89        39.86373
638.32        39.48286
638.75        39.10106
639.18        38.71015
639.61        38.38313
640.04        38.00394
640.47        37.63126
640.90        37.23494
641.33        36.83359
641.76        36.46978
642.18        36.20256
642.61        36.03846
643.04        36.02393
643.47        36.00391
643.90        36.00288
644.33         35.9685
644.76        35.92979
645.18        35.90117
645.61        35.91281
646.04        35.97652
646.47        36.07311
646.90        36.22748
647.33        36.48147
647.75        36.83727
648.18        37.28376
648.61        37.75035
649.04        38.12654
649.47        38.40068
649.89        38.58337
650.32        38.77911
650.75        39.23091
651.18        39.94965
651.61         40.6774
652.03        41.36893
652.46        42.22175
652.89        43.14882
653.32        43.62969
653.74         43.7644
654.17        44.33331
654.60        44.96201
655.03        45.96716
655.46        45.89727
655.88        47.92441
656.31        49.09435
656.74        55.56586
657.16        53.00537
657.59        49.56762
658.02        50.25228
658.45        50.74855
658.87        51.87125
659.30        52.36949
659.73        53.07774
660.15        53.98902
660.58        54.04505
661.01        54.10809
661.44         54.0094
661.86        54.28454
662.29        54.92978
662.72        55.79202
663.14        56.63779
663.57        56.72203
664.00        56.25225
664.42        56.29831
664.85        56.94996
665.27        57.55529
665.70         57.9776
666.13        58.33461
666.55        58.59455
666.98        58.72365
667.41        58.78932
667.83        58.89766
668.26        59.06886
668.69        59.28926
669.11        59.53301
669.54        59.72033
669.96        59.83942
670.39        60.03838
670.82        60.18784
671.24          60.327
671.67        60.46621
672.09        60.76187
672.52        61.15975
672.94        61.50494
673.37         61.7159
673.80        61.62747
674.22        61.35748
674.65        61.29584
675.07        61.50475
675.50        61.76294
675.92        62.00192
676.35         62.1645
676.77        62.22625
677.20        62.21824
677.62        62.18693
678.05        62.20005
678.47        62.27059
678.90        62.43114
679.32        62.57919
679.75        62.76368
680.17        62.93851
680.60        63.17376
681.02        63.43513
681.45        63.50007
681.87        63.44982
682.30        63.62938
682.72        63.97205
683.15        64.17839
683.57        64.26356
684.00        64.10984
684.42        63.83728
684.85        64.58653
685.27        64.30482
685.70        64.66448
686.12        64.95321
686.54        65.13958
686.97        65.18881
687.39        65.00809
687.82        64.89874
688.24        64.88425
688.66        65.14616
689.09         65.1954
689.51        65.09775
689.94        65.14267
690.36        65.35426
690.78        65.51597
691.21        65.59525
691.63        65.77492
692.06        66.07615
692.48        65.97212
692.90        66.10448
693.33        66.43437
693.75        66.24575
694.17        66.29227
694.60        66.30531
695.02         66.1844
695.44        65.95809
695.87        65.98759
696.29        66.20469
696.71        66.05249
697.14         65.7932
697.56        65.89198
697.98        66.93575
698.41        67.76851
698.83        67.48682
699.25        66.92043
699.68        67.07581
700.10        66.98209
700.52        67.03551
700.94        67.23138
701.37        67.48943
701.79        67.68689
702.21        67.75554
702.64        67.73347
703.06        67.67197
703.48        67.71263
703.90         67.8922
704.33        67.97552
704.75        68.23458
705.17        68.28413
705.59        68.19952
706.01        68.01747
706.44        67.83896
706.86        67.81512
707.28        67.97009
707.70        68.25129
708.12         68.5738
708.55        68.79905
708.97        68.88846
709.39         68.8926
709.81        68.84367
710.23        68.80106
710.66        68.79253
711.08        68.80107
711.50        68.82939
711.92        68.90086
712.34        69.01688
712.76        69.18163
713.19        69.34045
713.61        69.45744
714.03        69.49362
714.45        69.46552
714.87        69.43605
715.29          69.504
715.71        69.68637
716.13        69.95581
716.56        70.23153
716.98        70.41971
717.40        70.45281
717.82         70.4311
718.24         70.4334
718.66        70.21366
719.08        70.37683
719.50        70.45217
719.92         70.5626
720.34        70.54958
720.76        70.43063
721.19        70.37389
721.61        70.39426
722.03        70.36173
722.45        70.30076
722.87        70.27752
723.29        70.31525
723.71        70.39681
724.13        70.51774
724.55        70.70329
724.97        70.93967
725.39        71.12613
725.81        71.22776
726.23        71.54271
726.65         71.5621
727.07         71.6974
727.49        71.83514
727.91        71.95312
728.33        72.03754
728.75        72.05872
729.17        72.02229
729.59        71.94131
730.01        71.85939
730.43        71.84639
730.85         71.9168
731.27        72.03455
731.69         72.1665
732.10        72.29781
732.52        72.38756
732.94        72.37893
733.36        72.26472
733.78        72.18626
734.20        72.20501
734.62        72.08038
735.04        71.77658
735.46        72.18971
735.88        72.11431
736.30          71.743
736.72        72.04559
737.13        72.26006
737.55        72.64407
737.97        72.98238
738.39        73.18022
738.81        73.01858
739.23        72.62226
739.65         72.5509
740.06        72.75888
740.48        72.89455
740.90        72.88457
741.32        72.47961
741.74        72.33316
742.16        72.24834
742.57         72.4704
742.99        72.68066
743.41        72.80675
743.83        73.11162
744.25        73.62361
744.67         73.0125
745.08        73.55086
745.50        73.36499
745.92        73.16107
746.34        72.90362
746.75        72.65709
747.17        72.47814
747.59        72.37498
748.01        72.36738
748.42        72.46058
748.84        72.64651
749.26        72.91827
749.68        73.17683
750.09        73.39198
750.51        73.68785
750.93        73.95121
751.35        73.83162
751.76        73.42357
752.18        73.14565
752.60        73.01744
753.01        73.22939
753.43        73.02631
753.85        73.14416
754.27         73.3447
754.68        73.70473
755.10        74.10017
755.52        74.07985
755.93         73.9007
756.35        73.75373
756.77          73.761
757.18        73.75918
757.60        73.81717
758.02        73.94331
758.43        73.99643
758.85           74.23
759.26         74.5385
759.68        73.63697
760.10        73.57355
760.51        73.77271
760.93          73.788
761.34         73.0696
761.76        73.80367
762.18        73.60331
762.59        73.32495
763.01           73.34
763.42        73.69148
763.84        74.16533
764.26        74.26849
764.67        74.11121
765.09        73.81133
765.50        74.16616
765.92        75.02379
766.33        75.34682
766.75        74.98023
767.16        74.56699
767.58         74.1117
768.00        73.64733
768.41        73.36565
768.83        73.63676
769.24        74.32769
769.66        74.93418
770.07        75.25705
770.49        75.19849
770.90        74.89275
771.32        74.90723
771.73        75.22136
772.15        75.23164
772.56        74.96025
772.97        74.77747
773.39        74.66197
773.80        74.71917
774.22        74.49406
774.63        74.17791
775.05        73.80883
775.46          73.768
775.88         74.0593
776.29        74.68308
776.70        75.42667
777.12        75.22941
777.53         75.2562
777.95        74.58571
778.36        73.87964
778.77        73.60332
779.19        73.88277
779.60        74.60262
780.02        75.40119
780.43        75.91571
780.84        76.02982
781.26        75.44377
781.67        74.57601
782.09        75.13179
782.50        76.70889
782.91        76.74892
783.33        75.39021
783.74         74.9892
784.15        75.63192
784.57        76.08356
784.98        76.15384
785.39        75.89017
785.81        75.38419
786.22        75.12328
786.63          75.138
787.04        75.11294
787.46        75.07903
787.87        75.13223
788.28         75.2178
788.70        75.85964
789.11        75.71149
789.52        75.97083
789.93        76.21161
790.35        76.16752
790.76        75.92316
791.17        75.98077
791.58        76.30553
792.00        76.28571
792.41        75.89686
792.82        75.66615
793.23        75.58158
793.65        75.07535
794.06        74.48693
794.47        74.80859
794.88        75.72318
795.29        76.92236
795.71        76.63675
796.12        76.05216
796.53        76.75909
796.94        76.16403
797.35        75.14025
797.76        74.84556
798.18        75.31248
798.59        75.71693
799.00        75.79834
799.41        75.92384
799.82        76.04432
800.23        76.16357
800.64        76.26498
801.06        76.17358
801.47        75.99705
801.88        75.97202
802.29        76.12308
802.70        76.34164
803.11        76.52604
803.52        76.52237
803.93         76.3214
804.34        76.01794
804.75        75.66502
805.17        75.46997
805.58        75.53104
805.99         75.3447
806.40        75.06374
806.81        76.02296
807.22          77.713
807.63        77.61501
808.04        76.00868
808.45        75.48936
808.86        76.28211
809.27        77.06375
809.68         77.5694
810.09        77.89341
810.50        77.91819
810.91        77.68032
811.32        77.31689
811.73        76.93118
812.14        76.57549
812.55        76.42175
812.96        76.39278
813.37        75.91204
813.78         75.1706
814.19        75.19406
814.60        75.85154
815.01         76.1227
815.42        75.94569
815.83         75.8548
816.24        75.93331
816.65        76.06593
817.05        76.26775
817.46        76.50546
817.87        76.71935
818.28        76.77772
818.69        76.67638
819.10        76.46796
819.51        76.23069
819.92        76.19138
820.33        76.42069
820.74        76.60015
821.14        76.76122
821.55        77.49667
821.96         78.5121
822.37        78.49494
822.78        77.57545
823.19        77.15704
823.60        77.36133
824.00        77.41765
824.41        77.22807
824.82        77.13532
825.23         77.1423
825.64         77.1694
826.04         77.2446
826.45        77.35788
826.86        77.50692
827.27        77.69502
827.68        77.85464
828.08        77.89198
828.49         77.7311
828.90        77.43194
829.31        77.09678
829.72        76.91022
830.12        76.94653
830.53        77.11957
830.94        77.35036
831.35        77.48063
831.75        77.49261
832.16        77.39558
832.57        77.26521
832.97        77.20535
833.38        77.22675
833.79        77.28612
834.20        77.36516
834.60        77.43412
835.01        77.49512
835.42        77.57343
835.82        77.62849
836.23        77.53233
836.64        77.29224
837.04        76.92867
837.45        76.58185
837.86        76.52852
838.26        76.83204
838.67        77.38946
839.08        77.96231
839.48        78.09542
839.89        77.68738
840.29        76.92361
840.70        76.15689
841.11        75.82624
841.51        76.04868
841.92        76.62123
842.33        77.41835
842.73        78.22095
843.14        78.81071
843.54        79.31197
843.95        79.56721
844.35        79.41215
844.76        78.86818
845.17        78.01118
845.57        77.12935
845.98        76.69691
846.38        76.81654
846.79        77.36803
847.19        78.18036
847.60        78.77216
848.00         79.0392
848.41        79.04366
848.81        78.95663
849.22        78.96726
849.62        79.17304
850.03        79.43104
850.43        79.70586
850.84        79.84071
851.24        79.84325
851.65        79.71664
852.05        79.52838
852.46        79.28211
852.86        79.02035
853.27        78.71194
853.67        78.37221
854.07        78.30322
854.48        78.42408
854.88        78.40134
855.29        78.18149
855.69        78.13786
856.10        78.19948
856.50        78.23503
856.90        78.20755
857.31        78.20335
857.71        78.29961
858.12        78.40688
858.52        78.51542
858.92        78.50287
859.33        78.33263
859.73         78.0731
860.13        77.82437
860.54        77.78451
860.94        78.06054
861.34        78.53839
861.75        78.99136
862.15        79.15332
862.55        78.91364
862.96        78.39764
863.36        77.76286
863.76          77.243
864.17        76.93704
864.57        76.80363
864.97        76.86323
865.38        77.12787
865.78        77.61288
866.18        78.23661
866.58        78.83054
866.99        79.08749
867.39        78.96317
867.79        78.51105
868.19        77.76633
868.60        76.78794
869.00        75.61884
869.40        74.29677
869.80        73.15668
870.21        72.73977
870.61        73.20456
871.01        74.35824
871.41        75.66098
871.81        76.23532
872.22        75.90319
872.62        74.93652
873.02        73.75523
873.42        73.23652
873.82        73.41069
874.22        73.56992
874.63        73.74256
875.03        74.07848
875.43        74.48756
875.83        75.79415
876.23        75.55398
876.63        74.96507
877.03        73.62066
877.44        71.55173
877.84         126.418
878.24        71.79279
878.64        73.18504
879.04        76.81783
879.44        74.28718
879.84        72.68041
880.24        75.98434
880.64        75.64148
881.04        72.59193
881.44        70.77746
881.84        70.91652
882.24        72.32918
882.65        74.19569
883.05         75.0277
883.45        74.36397
883.85         72.9356
884.25        71.48868
884.65         70.8874
885.05        71.36156
885.45        72.60392
885.85        74.07301
886.25        74.88666
886.65         74.7818
887.05        74.04703
887.45        73.13293
887.85        72.70395
888.25        72.92889
888.65        73.59184
889.04        74.38588
889.44        74.71794
889.84        74.46095
890.24        73.82114
890.64        73.08786
891.04        72.67461
891.44        72.65475
891.84         72.8391
892.24        73.05141
892.64        73.00372
893.04        72.63398
893.44        72.14054
893.83        71.52028
894.23        70.77902
894.63        69.96011
895.03        69.04875
895.43         68.3763
895.83        68.50446
896.23        69.49805
896.63        71.17402
897.02        72.95657
897.42        73.78989
897.82        73.42369
898.22        72.19118
898.62        70.64794
899.01        69.65797
899.41        69.50304
899.81        69.89692
900.21        70.64304
900.61         71.4514
901.00        72.17396
901.40        72.86704
901.80        73.47379
902.20        73.85815
902.59        73.99923
902.99        73.91283
903.39        73.58913
903.79        73.05248
904.18        72.36528
904.58        71.59202
904.98        71.01139
905.38        71.03703
905.77        71.69653
906.17        72.86525
906.57        74.08716
906.96        74.66294
907.36        74.39276
907.76        73.46207
908.15        72.33181
908.55        71.69268
908.95        71.75125
909.34        72.36055
909.74        73.07328
910.14           73.11
910.53         72.2916
910.93        70.94576
911.33        69.70191
911.72        69.54029
912.12        70.58826
912.52        72.40786
912.91         74.3317
913.31         75.2741
913.70        75.02254
914.10         73.8952
914.49        72.24812
914.89        70.88789
915.29        70.18707
915.68        69.93839
916.08         70.1168
916.47         70.6597
916.87        71.43328
917.26        72.43227
917.66        73.40481
918.05        73.94973
918.45        73.94335
918.84        73.54526
919.24        72.81084
919.64        71.88487
920.03        70.90322
920.42        69.86079
920.82        69.16502
921.21        69.38067
921.61        70.50298
922.00        72.40398
922.40        74.33794
922.79        75.29959
923.19        75.00529
923.58        73.53909
923.98        71.43907
924.37        70.34019
924.77        70.84872
925.16        69.48697
925.55        71.46571
925.95        71.67126
926.34        71.59068
926.74        71.26098
927.13        71.00564
927.52        71.09139
927.92        71.52981
928.31        72.28224
928.70        73.01563
929.10        73.20314
929.49        72.72812
929.89        71.76211
930.28        70.79024
930.67        70.57625
931.07        71.25122
931.46        72.60397
931.85        74.09122
932.24        74.91689
932.64         74.8681
933.03        74.09198
933.42        72.94657
933.82        72.18719
934.21        72.03956
934.60        72.29865
934.99        72.45387
935.39        72.03962
935.78        70.99713
936.17        68.99854
936.56        66.30396
936.96        67.02281
937.35        66.37183
937.74        68.07058
938.13        69.86398
938.53        71.10896
938.92        71.72191
939.31        71.94052
939.70        71.94284
940.09        71.91161
940.49         71.9563
940.88        72.01688
941.27        72.12708
941.66        72.39222
942.05        72.80918
942.44        73.33725
942.84        73.92569
943.23        74.49365
943.62        74.96336
944.01         75.3723
944.40        75.56306
944.79        75.29276
945.18        74.54494
945.57        73.36915
945.97        72.17953
946.36        71.68469
946.75        72.11098
947.14        73.19951
947.53        74.41132
947.92        74.99695
948.31        74.80882
948.70        74.08289
949.09        73.10793
949.48        72.39403
949.87        72.12698
950.26        72.14194
950.65        72.32609
951.04        72.50481
951.43        72.59425
951.82        72.66284
952.21        72.68845
952.60        72.61314
952.99        72.43146
953.38        72.14038
953.77        71.77703
954.16        71.41954
954.55        71.09688
954.94        70.80831
955.33        70.56151
955.72        70.34805
956.11        70.18423
956.50        70.11147
956.89        70.13181
957.28        70.24088
957.66        70.43006
958.05        70.57569
958.44        70.74815
958.83         71.0579
959.22        71.49327
959.61        72.04441
960.00        72.40182
960.39        72.02819
960.78        70.86014
961.16        69.08411
961.55        67.35088
961.94         66.5189
962.33        66.77287
962.72        67.88634
963.11        69.30941
963.49        70.08467
963.88        69.84239
964.27        68.89503
964.66        67.72871
965.04        67.15582
965.43         67.3911
965.82        68.17176
966.21         69.1303
966.60         69.6853
966.98        69.68717
967.37         69.3261
967.76        68.88673
968.15        68.78525
968.53        69.13805
968.92        69.68831
969.31        70.26897
969.69        70.61849
970.08        70.58624
970.47        70.32164
970.86        69.80402
971.24        68.95526
971.63        67.88409
972.02        66.64525
972.40        65.51922
972.79        65.00963
973.17        65.26185
973.56        66.04934
973.95        67.16697
974.33        68.20458
974.72        68.85242
975.11        69.21615
975.49         69.1824
975.88        68.58694
976.26         67.4971
976.65        66.02453
977.04        64.49732
977.42        63.51302
977.81        63.26298
978.19        63.57108
978.58        64.32125
978.96        65.28867
979.35        66.25778
979.74        67.39495
980.12        68.36226
980.51        68.33781
980.89        67.35862
981.28        65.59453
981.66        63.95061
982.05        63.71842
982.43        65.03938
982.82         67.5318
983.20        70.33008
983.59        71.53606
983.97        70.69171
984.35         68.2485
984.74        65.31197
985.12        63.52707
985.51        63.37579
985.89        64.44867
986.28        66.04739
986.66        66.80783
987.04        66.18961
987.43        64.79921
987.81         63.2149
988.20        62.08151
988.58         61.4725
988.96        61.10633
989.35        60.89923
989.73        60.76159
990.12        60.63255
990.50        60.74578
990.88        60.93745
991.27        60.92615
991.65        60.82702
992.03        60.66736
992.42        60.75578
992.80        61.62011
993.18        63.29853
993.56        65.36847
993.95        67.35748
994.33        69.03581
994.71        70.13708
995.10        70.74089
995.48        70.77739
995.86        70.05068
996.24        68.60146
996.63        66.52184
997.01        64.08021
997.39        62.19857
997.77        61.43344
998.15        61.55644
998.54        62.39569
998.92        63.76822
999.30         65.6574
999.68        68.41798
1000.06         71.2718
1000.45        71.54631
1000.83        68.46561
1001.21        63.40181
1001.59        58.79392
1001.97        56.49142
1002.35        56.31333
1002.73        57.73358
1003.12        59.93813
1003.50        61.07876
1003.88        60.21407
1004.26         57.9894
1004.64        55.37817
1005.02        53.69532
1005.40        53.30013
1005.78        53.78813
1006.16         54.8906
1006.54        56.03233
1006.92        56.77567
1007.30        57.16951
1007.69         57.2912
1008.07        57.43442
1008.45        57.56842
1008.83        57.66887
1009.21        57.20972
1009.59        54.94167
1009.97        50.43832
1010.35        44.52603
1010.73        39.73179
1011.11        38.50103
1011.49        40.65786
1011.86        45.43872
1012.24        50.18795
1012.62        52.52208
1013.00        52.19831
1013.38         50.0894
1013.76        47.40665
1014.14        46.26918
1014.52        47.28422
1014.90        49.67632
1015.28        52.50482
1015.66        54.29202
1016.04        54.48167
1016.41        53.49872
1016.79        51.49534
1017.17        49.16129
1017.55        47.27461
1017.93        45.86607
1018.31        45.08398
1018.69        45.04647
1019.06        45.56055
1019.44        46.29678
1019.82        47.13058
1020.20        47.53996
1020.58        47.19702
1020.95        46.33807
1021.33        44.37635
1021.71        39.52996
1022.09        30.09447
1022.46        11.36736
1022.84       -17.94642
1023.22       -30.40407
1023.60       -7.688907
1023.97        20.75887
1024.35        37.90326
1024.73        44.75644
