SpectraSmart Spectrum 2.9.0.0
--------- Device Information -----------
Spectrum Name :  反射率_0
Saving Time :  2024/04/20 00:32:43
Spectro-Module Model Name : SE2030-DUVN
Spectro-Module Serial Number : OS361AC55029948
Wavelength Start : 200
Wavelength End : 1025
Wavelength Unit : Wavelength(nm)
Spectrum Unit : Reflectance(%)
-----------Spectrum Setting ------------
Integration Time : 30ms
Average : 10
Boxcar : 0
Background removal :  enabled
linearity correction :  enabled
SC :  disabled
Intensity correction :  disabled
DWT denoise :  enabled
savitzky-golay :  disabled
FFT :  disabled
Running average :  disabled
Kalman :  disabled
High pass :  disabled
---------------BEGIN--------------------
Wavelength(nm)             Reflectance(%)
200.29               0
200.75         64.2888
201.21        62.65147
201.67        62.34429
202.13        65.36141
202.58        72.59447
203.04         84.1029
203.50        96.10854
203.96        99.01131
204.42        92.12077
204.88        81.55811
205.34        72.09872
205.80        65.65771
206.26        61.12244
206.72        56.67635
207.18        52.31894
207.64        50.79034
208.10        54.42044
208.55        62.36717
209.01        69.42014
209.47          72.005
209.93        70.65767
210.39        66.77367
210.85        62.43019
211.31        59.89052
211.77        59.46145
212.23        60.76182
212.69        63.14981
213.14        64.27959
213.60        62.89567
214.06        60.96003
214.52        59.99266
214.98        61.05421
215.44        63.98073
215.90        68.23678
216.36         73.2636
216.81        77.07568
217.27        78.33834
217.73        77.89594
218.19        75.87404
218.65        72.32291
219.11        67.40665
219.57        60.64729
220.02        53.62962
220.48        51.09197
220.94        54.27737
221.40        62.42821
221.86        71.36882
222.32        74.61823
222.77        70.94412
223.23        62.70338
223.69        54.04457
224.15        50.95717
224.61        53.62336
225.06        58.91313
225.52        63.84594
225.98        65.93659
226.44        65.10977
226.90          62.429
227.36        58.98679
227.81        56.61175
228.27        56.23624
228.73           57.06
229.19          58.229
229.65        58.77487
230.10         58.5676
230.56        58.05884
231.02        57.71727
231.48        58.14937
231.93        59.26765
232.39        60.73615
232.85        61.97325
233.31        62.14585
233.77        61.10289
234.22        59.20858
234.68        56.86154
235.14        54.68951
235.60        53.07876
236.05        51.96466
236.51        51.51707
236.97        51.95446
237.43        53.38345
237.88        56.18914
238.34        60.11926
238.80          64.036
239.26        66.66122
239.71        67.59501
240.17        67.04069
240.63        66.42961
241.08        66.32521
241.54        66.36959
242.00        66.06711
242.46        64.29969
242.91         60.4137
243.37        53.69981
243.83        44.81532
244.28        39.76999
244.74        44.39812
245.20         57.3745
245.66        70.08139
246.11        75.49149
246.57           73.15
247.03        63.61726
247.48        49.11502
247.94        43.67767
248.40         50.1153
248.85        59.00379
249.31        65.62511
249.77        68.85481
250.22        69.59167
250.68        69.04264
251.14         67.5888
251.59        65.84541
252.05        64.53519
252.51        63.54457
252.96        62.91675
253.42        62.98625
253.88        63.79211
254.33        65.23649
254.79        67.70049
255.25        71.21922
255.70         75.3742
256.16        79.57595
256.62        83.04577
257.07        84.97441
257.53        85.48036
257.99        84.75668
258.44        82.70439
258.90        80.20816
259.35        77.44486
259.81        75.35175
260.27        73.62248
260.72        71.94421
261.18        70.53651
261.63        68.93875
262.09        67.86137
262.55        67.70113
263.00        68.23145
263.46        69.30711
263.91        69.93399
264.37        69.33916
264.83        67.52087
265.28        64.83332
265.74        62.32672
266.19        60.93842
266.65         60.8777
267.11         61.6023
267.56        62.43018
268.02         62.4091
268.47        61.33416
268.93        59.55099
269.38        57.44772
269.84        55.87391
270.30        55.05464
270.75        54.74841
271.21        54.62054
271.66        54.14941
272.12        53.20276
272.57        51.93914
273.03        50.65582
273.48        49.69868
273.94        49.20118
274.39        48.98293
274.85        48.80666
275.31        48.27563
275.76        47.30008
276.22        46.04877
276.67        44.77041
277.13        43.96814
277.58        43.64095
278.04        43.66104
278.49        43.62686
278.95        43.07594
279.40        41.90782
279.86        40.42206
280.31        38.89494
280.77        37.87993
281.22        37.39325
281.68        37.28574
282.13        37.30318
282.59         37.1368
283.04         36.6926
283.50        36.13352
283.95        35.52839
284.41        35.02686
284.86        34.64338
285.32        34.34852
285.77        34.13605
286.22        34.08631
286.68        34.18208
287.13        34.35872
287.59        34.52382
288.04        34.49393
288.50        34.26532
288.95         33.8605
289.41        33.39006
289.86        32.94357
290.32        32.61777
290.77        32.38371
291.22         32.2705
291.68        32.28225
292.13        32.41306
292.59        32.68418
293.04        33.09137
293.50        33.64359
293.95        34.31565
294.40        35.08686
294.86        35.90608
295.31        36.70916
295.77        37.47886
296.22        38.21979
296.68        38.95971
297.13        39.72766
297.58        40.53589
298.04        41.37732
298.49        42.22162
298.95        43.07019
299.40        43.89845
299.85        44.70434
300.31        45.49794
300.76        46.27691
301.21        47.04093
301.67        47.82017
302.12         48.5403
302.58        49.17691
303.03        49.70235
303.48        50.15743
303.94        50.65947
304.39        51.33405
304.84        52.20128
305.30        53.19167
305.75        54.13203
306.20         54.7965
306.66        55.15984
307.11        55.27641
307.57        55.27865
308.02        55.27215
308.47        55.33051
308.93        55.40881
309.38        55.51173
309.83        55.71525
310.29        56.00757
310.74        56.37388
311.19        56.66444
311.65        56.62972
312.10        56.23122
312.55        55.55501
313.00        54.83875
313.46        54.45076
313.91         54.4516
314.36        54.74719
314.82        55.11806
315.27        55.23019
315.72        54.98068
316.18        54.49809
316.63        53.93162
317.08        53.52722
317.53        53.34654
317.99        53.29419
318.44         53.2881
318.89        53.18753
319.35        52.94731
319.80        52.62283
320.25        52.25621
320.70        51.90918
321.16        51.59901
321.61        51.31229
322.06         51.0273
322.51        50.72116
322.97        50.37948
323.42         50.0232
323.87        49.66933
324.32         49.3498
324.78        49.06283
325.23        48.81947
325.68        48.57043
326.13        48.24517
326.59        47.83205
327.04        47.38104
327.49        46.95896
327.94        46.68418
328.39        46.57745
328.85        46.57127
329.30        46.64031
329.75        46.65961
330.20        46.58123
330.66        46.41733
331.11        46.18795
331.56        45.86025
332.01        45.44517
332.46        44.94672
332.92        44.43451
333.37        44.06233
333.82         43.8673
334.27        43.83709
334.72        43.89142
335.17        43.87896
335.63        43.74048
336.08        43.52786
336.53        43.31451
336.98        43.24895
337.43        43.35994
337.88        43.59528
338.34         43.8108
338.79        43.82676
339.24        43.58393
339.69        43.14403
340.14          42.672
340.59        42.44324
341.05        42.51284
341.50        42.79637
341.95        43.12824
342.40        43.25288
342.85        43.11023
343.30        42.79756
343.75        42.41357
344.20         42.1164
344.66        41.96007
345.11        41.87131
345.56        41.85497
346.01        41.91777
346.46         42.0333
346.91        42.20544
347.36        42.32659
347.81        42.22342
348.26        41.88014
348.72        41.37033
349.17        40.81917
349.62        40.51226
350.07        40.51888
350.52        40.74399
350.97        41.05499
351.42        41.25084
351.87        41.26476
352.32         41.1503
352.77        40.93456
353.22        40.66059
353.67        40.36154
354.13        40.04766
354.58        39.71788
355.03        39.42104
355.48        39.17645
355.93        38.98545
356.38        38.86694
356.83        38.84142
357.28        38.89023
357.73         38.9811
358.18        39.04482
358.63        38.97466
359.08         38.7422
359.53         38.3841
359.98        37.93613
360.43        37.45094
360.88        36.96401
361.33         36.4798
361.78        36.04553
362.23        35.73675
362.68        35.56379
363.13        35.49522
363.58         35.4791
364.03        35.42896
364.48        35.30623
364.93        35.12238
365.38        34.85231
365.83        34.46987
366.28        33.98716
366.73        33.41727
367.18        32.84066
367.63        32.38248
368.08         32.0718
368.53        31.88643
368.98         31.7497
369.43          31.529
369.88        31.19664
370.33        30.79705
370.78        30.39825
371.23        30.11883
371.68        29.99232
372.13        29.96804
372.58        30.00411
373.03        30.03667
373.48        30.02459
373.93        29.97259
374.38        29.85398
374.83        29.62643
375.28        29.29124
375.72        28.86172
376.17        28.39815
376.62        27.96241
377.07        27.59432
377.52        27.28912
377.97        27.07845
378.42        27.00202
378.87        27.04454
379.32        27.17651
379.77        27.31776
380.22        27.34617
380.67        27.23313
381.11        27.01527
381.56        26.72231
382.01        26.43705
382.46        26.19338
382.91        25.96428
383.36        25.77386
383.81        25.65335
384.26        25.59999
384.71        25.62161
385.15        25.63443
385.60        25.51288
386.05        25.23943
386.50        24.84944
386.95        24.47779
387.40        24.34146
387.85        24.47103
388.29        24.77829
388.74        25.10422
389.19        25.20582
389.64        25.03607
390.09        24.66555
390.54         24.2326
390.98        23.95137
391.43        23.89854
391.88        23.99248
392.33        24.11118
392.78        24.08002
393.23        23.87599
393.67        23.55469
394.12        23.26017
394.57        23.10984
395.02        23.12557
395.47        23.25597
395.91        23.42138
396.36        23.45936
396.81        23.34018
397.26        23.11794
397.71        22.87816
398.15         22.7285
398.60        22.72036
399.05        22.79573
399.50        22.89771
399.95        22.94799
400.39        22.92421
400.84        22.84863
401.29        22.75297
401.74        22.69552
402.18        22.69972
402.63        22.73853
403.08        22.77191
403.53        22.73057
403.97         22.6025
404.42        22.42352
404.87        22.25643
405.32        22.20508
405.76        22.28559
406.21        22.45944
406.66        22.65193
407.11        22.74534
407.55        22.71244
408.00        22.59407
408.45         22.4356
408.90        22.26162
409.34        22.12422
409.79        22.12079
410.24        22.20253
410.68        22.19796
411.13        22.09888
411.58        22.00062
412.03         21.9257
412.47         21.8819
412.92         21.8734
413.37        21.88352
413.81        21.92643
414.26        22.04193
414.71        22.21821
415.15         22.4521
415.60        22.63862
416.05        22.63667
416.49         22.4214
416.94        22.04539
417.39        21.64253
417.83        21.42832
418.28        21.46147
418.73        21.67012
419.17        21.94447
419.62        22.10151
420.07        22.09535
420.51        21.98422
420.96        21.83254
421.41        21.71661
421.85         21.6569
422.30        21.63725
422.74        21.64342
423.19        21.69417
423.64        21.77496
424.08        21.89662
424.53        22.00879
424.98        22.05345
425.42        22.02074
425.87           21.93
426.31        21.81009
426.76        21.71633
427.21        21.65331
427.65        21.59636
428.10        21.57217
428.54        21.59444
428.99        21.66553
429.44        21.87726
429.88        22.09863
430.33        21.97997
430.77        21.59488
431.22        21.38153
431.66        21.40632
432.11        21.52395
432.56        21.70414
433.00        22.04636
433.45         22.3346
433.89        22.22506
434.34        21.86056
434.78        21.52148
435.23        21.20675
435.67        22.09569
436.12        21.51875
436.57        21.43398
437.01        21.14782
437.46        21.06188
437.90        21.19581
438.35        21.35603
438.79        21.47181
439.24         21.5373
439.68        21.53437
440.13        21.29623
440.57        20.96845
441.02        21.12394
441.46        21.57315
441.91        21.64099
442.35        20.82651
442.80        20.58674
443.24        20.71267
443.69        20.74778
444.13        20.65257
444.58        20.59506
445.02        20.58278
445.47        20.62451
445.91        20.69424
446.36        20.70265
446.80        20.63444
447.24        20.53935
447.69        20.45146
448.13        20.38069
448.58        20.34272
449.02        20.32916
449.47        20.31891
449.91         20.2689
450.36        20.17988
450.80        20.06658
451.25        19.96516
451.69        19.91006
452.13          19.915
452.58        19.95671
453.02        20.02055
453.47        20.08849
453.91        20.14933
454.36        20.20511
454.80        20.23186
455.24        20.18864
455.69        20.08212
456.13         19.9092
456.58        19.73593
457.02        19.64895
457.46        19.66055
457.91        19.69903
458.35        19.73264
458.79        19.76418
459.24        19.77618
459.68        19.77519
460.13        19.81474
460.57        19.79006
461.01        19.68375
461.46        20.03451
461.90        20.07118
462.34        19.83306
462.79        19.98505
463.23        19.85191
463.68        19.74466
464.12        19.64583
464.56        19.72195
465.01        19.83443
465.45        19.93868
465.89        19.98934
466.34        19.98194
466.78        19.86467
467.22        19.70787
467.67        19.76642
468.11        19.99743
468.55        20.00287
468.99        19.80268
469.44        19.75267
469.88        19.86477
470.32         19.9378
470.77        19.93837
471.21        19.91505
471.65        19.86519
472.10        19.77582
472.54        19.68489
472.98        19.69361
473.42        19.81027
473.87        19.94656
474.31        20.05493
474.75        20.18646
475.20        20.28545
475.64        20.15607
476.08        19.89244
476.52        19.81318
476.97        19.94493
477.41        20.14678
477.85        20.33999
478.29        20.45572
478.74        20.46792
479.18        20.36435
479.62        20.23615
480.06        20.22886
480.50        20.34499
480.95        20.44979
481.39        20.49765
481.83        20.51624
482.27        20.49751
482.72        20.43199
483.16         20.3687
483.60        20.36925
484.04        20.43956
484.48        20.66854
484.93        21.05431
485.37         21.0947
485.81        21.05753
486.25        21.52144
486.69        22.41648
487.14         21.8029
487.58        21.45281
488.02         22.0704
488.46        21.64357
488.90        21.75741
489.34        21.62614
489.79        21.72062
490.23        21.96882
490.67        22.14528
491.11        22.22151
491.55         22.1708
491.99        22.04258
492.43        21.99826
492.88        22.06894
493.32        22.15226
493.76        22.24725
494.20        22.40032
494.64        22.60755
495.08        22.84984
495.52        23.09319
495.96         23.3018
496.41        23.46655
496.85          23.552
497.29        23.59165
497.73        23.75215
498.17        24.00956
498.61        24.10922
499.05        24.07506
499.49        24.19083
499.93        24.47338
500.37        24.70576
500.82        24.87502
501.26        25.16512
501.70        25.50616
502.14        25.56162
502.58        25.37891
503.02         25.3241
503.46        25.42668
503.90        25.49772
504.34        25.50999
504.78        25.50444
505.22        25.47906
505.66        25.43525
506.10        25.40236
506.54        25.42074
506.98        25.50123
507.42        25.63445
507.86        25.79669
508.30        25.94819
508.74        26.07166
509.18        26.16802
509.62        26.25088
510.06        26.34374
510.50        26.45187
510.94        26.57213
511.38        26.66965
511.82        26.68996
512.26        26.62803
512.70        26.50237
513.14        26.38562
513.58        26.38627
514.02        26.51731
514.46         26.7482
514.90        26.99207
515.34        27.04277
515.78          26.915
516.22        26.71303
516.66        26.54771
517.10        26.26649
517.54        25.90133
517.98        26.47523
518.42        26.40843
518.86        26.66656
519.30        26.75787
519.74        26.84839
520.18        26.90486
520.62        26.85246
521.06        26.70796
521.50        26.47916
521.93        26.23437
522.37         26.0956
522.81        26.08889
523.25        26.18042
523.69        26.31117
524.13        26.38514
524.57        26.37367
525.01        26.30438
525.45        26.20383
525.89        26.11487
526.32        26.05179
526.76        26.00055
527.20         25.9513
527.64        25.89538
528.08        25.82844
528.52        25.75415
528.96        25.68128
529.40        25.61829
529.83        25.56582
530.27        25.52855
530.71        25.48274
531.15        25.39534
531.59        25.26558
532.03         25.1053
532.46        24.95629
532.90        24.90204
533.34        24.94616
533.78        25.05971
534.22        25.18293
534.66        25.22355
535.09        25.15702
535.53         25.0213
535.97        24.85816
536.41        24.73131
536.85         24.6637
537.28         24.6498
537.72        24.68302
538.16        24.67642
538.60         24.7402
539.04        24.77336
539.47        24.80306
539.91        24.88108
540.35        25.02278
540.79        25.00039
541.22        25.12629
541.66         25.2067
542.10        25.35647
542.54        25.17596
542.97        25.35024
543.41        25.43803
543.85        25.62552
544.29        25.83472
544.72        26.02189
545.16          26.196
545.60        26.34101
546.04        26.37718
546.47        26.38131
546.91        26.64684
547.35        27.10949
547.79        27.39985
548.22        27.48684
548.66        27.54923
549.10        27.62238
549.53        27.80245
549.97        28.09954
550.41        28.09669
550.84        28.31574
551.28        28.42865
551.72         28.6164
552.15        28.84374
552.59        29.11151
553.03        29.41372
553.46         29.6912
553.90        29.87648
554.34        29.95351
554.77          29.962
555.21        29.96741
555.65        29.96341
556.08        30.12137
556.52          30.289
556.96         30.4717
557.39        30.64057
557.83        30.77122
558.27        30.80145
558.70        30.76334
559.14        30.77353
559.57        30.83705
560.01        30.93753
560.45        31.03961
560.88        31.04743
561.32        31.01658
561.75        31.05133
562.19        31.26469
562.63        31.36682
563.06        31.39294
563.50        31.47487
563.93        31.60252
564.37         31.7811
564.80        31.85867
565.24        31.98774
565.68        32.10505
566.11        32.21198
566.55        32.33091
566.98        32.40409
567.42        32.42219
567.85        32.78086
568.29        32.64123
568.72         33.0021
569.16        33.52351
569.60        33.89732
570.03         34.0718
570.47        34.23558
570.90         34.2411
571.34        34.71746
571.77        34.55115
572.21        34.96554
572.64         35.0536
573.08        35.37342
573.51         35.2783
573.95        35.98035
574.38        36.18484
574.82        36.38789
575.25        36.42937
575.69        36.38815
576.12        36.29232
576.56        36.17823
576.99        36.08945
577.42        36.42987
577.86        36.47937
578.29        36.58927
578.73        37.12006
579.16        36.75733
579.60        36.44064
580.03        36.18586
580.47        36.07354
580.90        35.91106
581.33        35.83941
581.77        35.98057
582.20        36.71077
582.64        36.08127
583.07        35.59773
583.51        35.66695
583.94        35.00359
584.37        34.80694
584.81        34.55365
585.24        34.50021
585.68        34.55175
586.11        34.42209
586.54        34.42755
586.98        34.13725
587.41        34.10077
587.85        34.02779
588.28        34.02767
588.71        33.89439
589.15        33.66543
589.58        33.31326
590.01        33.42869
590.45        33.50849
590.88        33.49213
591.31        33.39776
591.75        33.05493
592.18        33.26815
592.61        33.27979
593.05        33.47742
593.48        33.29817
593.91        34.29876
594.35        33.88126
594.78        33.91708
595.21        34.13284
595.65        34.44484
596.08        34.63702
596.51        34.68424
596.94        34.60684
597.38         34.7188
597.81        35.07899
598.24        35.17039
598.68        35.85211
599.11        35.83532
599.54        36.87877
599.97        36.89992
600.41        37.30353
600.84        37.90566
601.27        38.32361
601.70        38.76009
602.14        39.01587
602.57        39.44027
603.00        40.03391
603.43        40.54069
603.87        40.93855
604.30        41.46269
604.73        42.10172
605.16        42.22676
605.60        42.66832
606.03        43.16994
606.46        43.79025
606.89        44.95504
607.32        45.44678
607.76        45.61115
608.19        46.16198
608.62        46.51076
609.05        46.41969
609.48        46.67339
609.92         47.1521
610.35        47.39233
610.78         48.2666
611.21        49.00623
611.64        49.07912
612.07        49.37237
612.50        50.04131
612.94        49.81256
613.37        50.49464
613.80        50.72687
614.23        51.01581
614.66        51.43167
615.09        51.68214
615.52        52.18036
615.96        52.70316
616.39        53.11975
616.82         53.4746
617.25        53.26909
617.68        53.73615
618.11        54.15686
618.54        54.61312
618.97        54.80067
619.40        54.69292
619.84        54.55935
620.27        54.26315
620.70        54.67857
621.13        55.55593
621.56        55.86249
621.99        55.68851
622.42         55.7093
622.85         55.9976
623.28        56.12545
623.71         56.1171
624.14        56.23918
624.57        56.08266
625.00        56.25559
625.43        56.31246
625.86        55.60543
626.29        55.75269
626.72        55.50577
627.15        55.41863
627.58        55.25289
628.01        55.07261
628.44        55.04669
628.87         54.9246
629.30        54.11058
629.73        53.95227
630.16        53.63823
630.59        53.28719
631.02        52.91721
631.45        52.44613
631.88        51.98375
632.31        51.51321
632.74        50.97623
633.17        50.39173
633.60         49.8262
634.03        49.29329
634.46        48.77837
634.89        48.26357
635.32        47.71746
635.75        47.13839
636.18        46.54823
636.61        45.97176
637.04        45.43575
637.47         44.9368
637.89        44.49297
638.32        44.09583
638.75        43.66533
639.18        43.17967
639.61        43.02996
640.04        42.53894
640.47        42.20195
640.90        41.82114
641.33         41.4249
641.76        41.05188
642.18        40.78334
642.61        40.63503
643.04        40.57942
643.47        40.57481
643.90         40.5496
644.33        40.48471
644.76        40.40601
645.18        40.34008
645.61        40.33092
646.04        40.39684
646.47        40.52436
646.90        40.71453
647.33         40.9791
647.75        41.31247
648.18        41.67801
648.61        42.06241
649.04         42.4931
649.47        42.93596
649.89         43.2902
650.32        43.59506
650.75        43.99627
651.18        44.56581
651.61        45.25562
652.03        46.03465
652.46        47.05329
652.89        48.17009
653.32        48.63231
653.74        48.60889
654.17        49.45284
654.60        50.16521
655.03        51.62032
655.46        50.78175
655.88        53.04109
656.31        54.64082
656.74        63.30566
657.16        60.82023
657.59         56.5195
658.02        56.39212
658.45        56.36001
658.87        57.23742
659.30        57.94851
659.73        58.52554
660.15        59.62232
660.58        59.63605
661.01        59.56527
661.44        59.21993
661.86        59.50059
662.29        60.36983
662.72        61.25987
663.14        61.94762
663.57        62.05474
664.00        61.77069
664.42        61.84836
664.85        62.35743
665.27        62.85855
665.70        63.29789
666.13        63.37394
666.55        63.89877
666.98        64.15403
667.41        64.38933
667.83        64.58821
668.26          64.748
668.69        64.88049
669.11        65.02045
669.54        65.19027
669.96        65.39532
670.39        65.81859
670.82        66.16351
671.24        66.40833
671.67        66.51818
672.09        66.78419
672.52        67.17513
672.94        67.46104
673.37        67.59634
673.80        67.53353
674.22        67.37197
674.65        67.36192
675.07        67.54142
675.50        67.79375
675.92        68.06458
676.35        68.17342
676.77        68.07573
677.20         68.2724
677.62        68.01196
678.05         68.0444
678.47        68.15273
678.90        68.33141
679.32         68.5503
679.75        68.77643
680.17        68.99284
680.60        69.21517
681.02        69.43714
681.45        69.56955
681.87        69.64588
682.30         69.8089
682.72        70.02754
683.15        70.08537
683.57        70.01904
684.00        69.95097
684.42        70.02565
684.85        70.25484
685.27        70.40176
685.70        70.74249
686.12        71.09506
686.54        71.31368
686.97        71.36504
687.39        71.23844
687.82         71.0349
688.24        71.10339
688.66        71.40835
689.09        71.53488
689.51        71.47897
689.94        71.52843
690.36        71.69661
690.78        71.77309
691.21        71.76665
691.63        71.88398
692.06        72.15309
692.48        72.26121
692.90        72.35841
693.33        72.85221
693.75        72.55913
694.17         72.5931
694.60        72.61434
695.02         72.5631
695.44        72.42637
695.87        72.51059
696.29         72.7403
696.71        72.48005
697.14        72.03173
697.56        72.46456
697.98         73.4468
698.41        74.72464
698.83        73.88964
699.25        73.62379
699.68        73.42015
700.10        73.26939
700.52        73.23395
700.94        73.35647
701.37         73.5668
701.79        73.74599
702.21        73.83224
702.64        73.86076
703.06        73.87827
703.48        73.97287
703.90        74.16336
704.33        74.40437
704.75        74.62856
705.17        74.69863
705.59        74.59188
706.01        74.35888
706.44        74.12713
706.86        74.09732
707.28        74.30534
707.70        74.67962
708.12        75.10701
708.55        75.40308
708.97        75.51636
709.39        75.51102
709.81        75.43188
710.23        75.36396
710.66         75.3502
711.08         75.3521
711.50        75.36436
711.92         75.4522
712.34          75.627
712.76        75.68115
713.19        75.93048
713.61        76.04728
714.03        76.09912
714.45        76.09062
714.87        76.07744
715.29        76.13943
715.71        76.28814
716.13        76.50867
716.56        76.72414
716.98        76.87427
717.40        76.91484
717.82        76.91458
718.24        76.90664
718.66        76.90341
719.08        76.92075
719.50        76.96766
719.92        77.02315
720.34        77.04015
720.76        77.01162
721.19        76.95304
721.61        76.90288
722.03        76.87992
722.45        76.91655
722.87        76.98976
723.29        77.08938
723.71         77.1882
724.13        77.28074
724.55        77.37517
724.97        77.48862
725.39        77.64934
725.81        77.85638
726.23        78.08764
726.65        78.31757
727.07        78.51302
727.49        78.66161
727.91        78.77029
728.33         78.8398
728.75        78.87353
729.17        78.88245
729.59        78.87214
730.01        78.85814
730.43        78.88316
730.85        78.95766
731.27         79.0135
731.69        79.05449
732.10        79.22987
732.52        79.45889
732.94         79.4327
733.36        79.18085
733.78        79.06147
734.20        79.14144
734.62        79.14543
735.04         79.0295
735.46        79.15721
735.88        79.48077
736.30        78.87937
736.72        79.35497
737.13        79.42384
737.55        79.60453
737.97        79.87719
738.39         80.1375
738.81        80.00737
739.23        79.62845
739.65        79.57513
740.06        79.79486
740.48        80.21559
740.90        80.70168
741.32        79.85939
741.74        79.60258
742.16        79.29514
742.57        79.46133
742.99        79.63683
743.41        79.74776
743.83        79.97598
744.25        80.13856
744.67        80.30186
745.08        80.40207
745.50        80.39164
745.92        80.26537
746.34        79.98038
746.75        79.62596
747.17        79.40235
747.59        79.35832
748.01        79.43906
748.42        79.59769
748.84        79.77763
749.26        79.96622
749.68        80.00642
750.09        79.96329
750.51        80.31445
750.93        80.88832
751.35        80.81381
751.76        80.18769
752.18        79.91857
752.60        80.05033
753.01        80.09587
753.43        80.02695
753.85        80.07494
754.27        80.23781
754.68        80.49192
755.10        80.73621
755.52        80.77203
755.93        80.60474
756.35        80.38657
756.77        80.20767
757.18        80.26005
757.60        80.63039
758.02        80.97778
758.43        81.05232
758.85        82.01163
759.26        81.67043
759.68         81.1311
760.10        81.40842
760.51        81.04368
760.93        80.79858
761.34        80.15564
761.76        80.87735
762.18        81.12581
762.59        80.36367
763.01        79.73122
763.42        80.42876
763.84        81.02673
764.26        81.71414
764.67        81.69607
765.09        81.23563
765.50        81.47243
765.92        82.37767
766.33        82.67231
766.75        82.21363
767.16        81.57385
767.58        80.94135
768.00        80.45003
768.41        80.33824
768.83        80.89082
769.24        81.86147
769.66         82.5061
770.07         82.6338
770.49        82.43489
770.90        82.08038
771.32        81.95033
771.73        82.10172
772.15        82.17655
772.56        82.14214
772.97         82.1478
773.39        82.11475
773.80        81.96938
774.22        81.67392
774.63        81.20137
775.05        80.71894
775.46        80.58449
775.88        80.83398
776.29        81.40167
776.70        82.01943
777.12        82.26891
777.53        82.06237
777.95        81.49886
778.36        80.85746
778.77        80.61064
779.19        80.87825
779.60        81.56371
780.02         82.3366
780.43        82.87598
780.84         83.0782
781.26        82.58125
781.67        81.78959
782.09        82.51304
782.50        84.29589
782.91        84.30718
783.33        82.68783
783.74        82.33943
784.15        82.83505
784.57        83.20299
784.98        83.11382
785.39        82.74934
785.81        82.20543
786.22        81.93611
786.63        81.98348
787.04        81.96592
787.46        81.89307
787.87        82.02006
788.28        82.33086
788.70        82.59978
789.11         82.7756
789.52        83.00756
789.93        83.25134
790.35         83.2159
790.76        82.98461
791.17        83.02489
791.58        83.30192
792.00        83.23394
792.41        82.82341
792.82        82.66089
793.23        82.67199
793.65        82.19681
794.06        81.59784
794.47        81.82867
794.88        82.60308
795.29          84.417
795.71        84.00156
796.12        83.91854
796.53        84.16386
796.94        83.47404
797.35         82.4188
797.76        82.22285
798.18        82.87245
798.59        83.16124
799.00        83.00994
799.41        83.20332
799.82        83.67577
800.23        83.90759
800.64        83.84093
801.06        83.57466
801.47        83.28324
801.88        83.18616
802.29        83.33327
802.70        83.62776
803.11        83.91175
803.52         83.9362
803.93        83.66202
804.34        83.20032
804.75        82.68887
805.17        82.43237
805.58        82.54254
805.99         82.6208
806.40        82.69911
806.81        83.56503
807.22        84.75732
807.63        84.78737
808.04        83.21082
808.45        82.89145
808.86        83.78534
809.27        84.69802
809.68        85.31411
810.09        85.65808
810.50        85.60537
810.91        85.16088
811.32        84.53275
811.73        84.01217
812.14        83.69555
812.55         83.6191
812.96        83.68462
813.37        83.47031
813.78        83.04452
814.19        83.01717
814.60        83.33102
815.01        83.43726
815.42        83.30767
815.83        83.21622
816.24        83.22369
816.65        83.30434
817.05          83.479
817.46        83.70573
817.87        83.92661
818.28        84.00037
818.69        83.91657
819.10        83.71992
819.51        83.51827
819.92        83.56599
820.33        83.92458
820.74        84.32654
821.14        84.70634
821.55        85.33954
821.96        85.98977
822.37        85.76951
822.78        84.84585
823.19        84.34675
823.60        84.40313
824.00        84.43723
824.41        84.34995
824.82        84.37393
825.23        84.49131
825.64         84.6614
826.04        84.85671
826.45         84.9763
826.86           85.01
827.27          84.974
827.68        84.90608
828.08        84.90651
828.49        84.93469
828.90        84.99525
829.31        85.05858
829.72        85.07145
830.12        85.03954
830.53        84.95664
830.94        84.84483
831.35        84.69904
831.75        84.55469
832.16        84.36732
832.57        84.21851
832.97        84.22346
833.38        84.37315
833.79        84.62936
834.20        84.89596
834.60        85.01266
835.01         84.9631
835.42        84.81024
835.82        84.60937
836.23        84.39628
836.64        84.22808
837.04        84.07619
837.45        84.01503
837.86         84.2188
838.26        84.71048
838.67        85.40276
839.08        86.06222
839.48        86.23788
839.89        85.83256
840.29        85.03212
840.70        84.19512
841.11        83.76474
841.51        83.86804
841.92        84.29967
842.33        84.98518
842.73        85.79102
843.14        86.50351
843.54        87.22816
843.95        87.70361
844.35        87.59891
844.76        86.90646
845.17        85.76553
845.57        84.57097
845.98        83.96337
846.38         84.0849
846.79        84.75657
847.19        85.76797
847.60        86.54996
848.00        86.95419
848.41        87.05788
848.81        87.00857
849.22        86.95289
849.62        86.99754
850.03        87.01331
850.43        87.02698
850.84        86.98085
851.24        86.93953
851.65        86.88362
852.05        86.88753
852.46        86.96103
852.86        87.11111
853.27        87.22527
853.67        87.23934
854.07        87.48116
854.48         87.7839
854.88         87.5592
855.29        86.84848
855.69        86.46941
856.10        86.42576
856.50        86.41683
856.90        86.32049
857.31        86.15683
857.71        85.99036
858.12        85.76938
858.52          85.619
858.92        85.60835
859.33        85.73042
859.73        86.00669
860.13        86.36581
860.54        86.68338
860.94        86.96613
861.34        87.16275
861.75        87.22616
862.15        87.20326
862.55        87.06988
862.96        86.86232
863.36         86.5909
863.76        86.23495
864.17        85.82781
864.57        85.41871
864.97        85.16605
865.38        85.28294
865.78        85.83903
866.18        86.68958
866.58        87.55495
866.99        87.93137
867.39        87.72156
867.79        87.03537
868.19        86.01608
868.60        84.88719
869.00        83.74196
869.40        82.56754
869.80        81.61378
870.21        81.28098
870.61        81.68781
871.01        82.67853
871.41        83.79055
871.81        84.26303
872.22        83.93768
872.62        83.05582
873.02        81.97048
873.42        81.40166
873.82        81.41212
874.22        81.47236
874.63        81.61182
875.03        81.98337
875.43        82.49873
875.83        83.69367
876.23         83.8319
876.63        83.62208
877.03        82.76597
877.44        81.27167
877.84         117.595
878.24        81.07227
878.64        81.98196
879.04        84.45222
879.44        82.77791
879.84        81.61293
880.24        83.64763
880.64        83.16476
881.04        80.75534
881.44        79.15031
881.84         78.9044
882.24        79.57523
882.65         80.5914
883.05        80.96416
883.45         80.3577
883.85        79.29932
884.25        78.37957
884.65        78.28476
885.05        79.15572
885.45        80.71986
885.85        82.40562
886.25        83.27153
886.65         83.0578
887.05         82.0793
887.45        80.84575
887.85        80.11877
888.25        80.11398
888.65        80.61178
889.04        81.36285
889.44        81.84698
889.84        81.92522
890.24        81.74831
890.64        81.48296
891.04        81.36685
891.44        81.42841
891.84        81.52305
892.24        81.50649
892.64        81.16567
893.04        80.49785
893.44        79.70203
893.83        78.83762
894.23        78.00605
894.63        77.24727
895.03         76.5182
895.43        76.07278
895.83        76.33377
896.23        77.32158
896.63        78.88774
897.02        80.48343
897.42        81.10332
897.82        80.53348
898.22        79.09171
898.62        77.37424
899.01         76.3055
899.41        76.17011
899.81        76.66174
900.21        77.51689
900.61        78.33333
901.00        78.94521
901.40        79.45332
901.80        79.84879
902.20        80.08203
902.59        80.16229
902.99        80.06378
903.39        79.79902
903.79        79.42045
904.18        78.97802
904.58        78.53928
904.98        78.25963
905.38         78.3687
905.77        78.87076
906.17        79.68502
906.57        80.55072
906.96        81.08375
907.36        81.13725
907.76        80.79762
908.15        80.26704
908.55        79.82825
908.95        79.59412
909.34        79.53155
909.74         79.4595
910.14        79.07833
910.53        78.34634
910.93        77.45006
911.33        76.75125
911.72        76.81039
912.12        77.67336
912.52        79.05817
912.91        80.51179
913.31        81.26646
913.70        81.18559
914.10        80.46478
914.49        79.33276
914.89        78.33298
915.29        77.72667
915.68        77.38749
916.08        77.34842
916.47        77.60647
916.87        78.07951
917.26        78.75405
917.66        79.43229
918.05        79.81549
918.45        79.80122
918.84        79.51694
919.24          78.993
919.64        78.31789
920.03        77.58659
920.42        76.80233
920.82        76.28676
921.21        76.47767
921.61        77.36375
922.00         78.8468
922.40        80.34579
922.79        81.13432
923.19        80.98102
923.58        79.95442
923.98        78.41714
924.37         77.5089
924.77        77.70036
925.16         76.3568
925.55        77.61325
925.95        77.68723
926.34        77.78197
926.74        77.85914
927.13        78.06254
927.52        78.44127
927.92        78.95982
928.31        79.62672
928.70        80.23263
929.10        80.46006
929.49        80.24349
929.89        79.67088
930.28        79.04895
930.67         78.8636
931.07        79.20129
931.46        79.96271
931.85        80.81301
932.24        81.26244
932.64        81.17685
933.03        80.63161
933.42        79.86063
933.82        79.37202
934.21        79.28939
934.60        79.47604
934.99        79.52355
935.39        79.03268
935.78        77.96019
936.17        76.07668
936.56        73.62019
936.96        73.94983
937.35        73.36969
937.74        74.76038
938.13        76.32687
938.53        77.54858
938.92        78.34429
939.31        78.90779
939.70        79.25067
940.09        79.26521
940.49        78.99277
940.88        78.49638
941.27        78.01789
941.66        77.96588
942.05        78.39658
942.44        79.15251
942.84        80.09154
943.23        80.97672
943.62        81.65709
944.01        82.24007
944.40        82.49491
944.79        82.05736
945.18        80.90592
945.57        79.08484
945.97         77.2593
946.36        76.63448
946.75        77.53859
947.14        79.55322
947.53        81.72703
947.92        82.74766
948.31        82.38081
948.70        81.02185
949.09        79.29015
949.48        78.27321
949.87        78.31984
950.26        79.08988
950.65        80.13669
951.04        80.73148
951.43        80.63738
951.82        80.10383
952.21        79.40479
952.60        78.94653
952.99         78.8453
953.38        78.93722
953.77        79.04992
954.16        78.94061
954.55        78.55527
954.94        78.01865
955.33        77.46638
955.72        77.08577
956.11        76.95861
956.50        77.04604
956.89        77.30958
957.28        77.67436
957.66        78.06715
958.05        78.37939
958.44        78.63342
958.83        78.86767
959.22        79.07538
959.61        79.27256
960.00        79.22663
960.39        78.55788
960.78        77.26841
961.16        75.51214
961.55        73.90887
961.94         73.2541
962.33        73.70432
962.72        75.05031
963.11        76.70434
963.49        77.64777
963.88        77.47644
964.27        76.48756
964.66        75.22126
965.04        74.59113
965.43        74.84045
965.82        75.71154
966.21        76.73611
966.60        77.16597
966.98        76.83361
967.37        75.97427
967.76         75.0947
968.15         74.9592
968.53        75.74214
968.92        77.08317
969.31        78.48828
969.69         79.1537
970.08         78.8015
970.47        77.74306
970.86        76.31884
971.24        75.04816
971.63         74.1939
972.02        73.63525
972.40        73.35611
972.79        73.33618
973.17        73.56245
973.56        73.96445
973.95        74.54674
974.33        75.24957
974.72        75.89075
975.11        76.46301
975.49        76.75703
975.88        76.47956
976.26        75.64489
976.65        74.40349
977.04        73.10989
977.42        72.38541
977.81        72.41516
978.19         73.0089
978.58        73.96551
978.96        74.96741
979.35        75.75469
979.74        76.48703
980.12        76.97729
980.51         76.6639
980.89        75.64836
981.28        74.05206
981.66        72.50646
982.05        71.92313
982.43        72.39843
982.82        73.68137
983.20         75.2513
983.59        75.85114
983.97        75.22974
984.35        73.64545
984.74        71.82988
985.12        70.84328
985.51        70.97545
985.89        71.96828
986.28         73.2746
986.66        73.90027
987.04        73.43162
987.43         72.3406
987.81        71.07066
988.20        70.16364
988.58        69.66369
988.96        69.31038
989.35        69.05772
989.73        68.96715
990.12        68.98357
990.50        69.33231
990.88        69.58958
991.27        69.16906
991.65        68.16225
992.03        66.67018
992.42        65.44801
992.80        65.96397
993.18        68.47607
993.56        72.18172
993.95        75.90724
994.33        78.44568
994.71         79.3741
995.10        79.09466
995.48        77.98015
995.86        76.52076
996.24        74.95831
996.63        73.17262
997.01        71.29129
997.39        69.82615
997.77        69.12315
998.15        69.14317
998.54        69.81233
998.92        70.99148
999.30        72.70444
999.68        75.24075
1000.06        77.91045
1000.45        78.34914
1000.83        75.86193
1001.21        71.58202
1001.59        67.69244
1001.97        65.91267
1002.35        66.10757
1002.73         67.7969
1003.12        70.16972
1003.50        71.44444
1003.88        70.63811
1004.26        68.36519
1004.64        65.56586
1005.02        63.50384
1005.40        62.52611
1005.78        62.24946
1006.16        62.52755
1006.54        63.07233
1006.92        63.60729
1007.30        64.15237
1007.69        64.58614
1008.07        64.94906
1008.45        65.21971
1008.83        65.43593
1009.21        65.39758
1009.59        64.63867
1009.97        62.96394
1010.35        60.56834
1010.73        58.66224
1011.11        58.56535
1011.49        60.17068
1011.86        63.12582
1012.24        65.64265
1012.62        66.27516
1013.00        64.95354
1013.38        62.29474
1013.76        59.23538
1014.14        57.45274
1014.52        57.46003
1014.90         58.7135
1015.28        60.47542
1015.66        61.51413
1016.04         61.3677
1016.41        60.39419
1016.79        58.73101
1017.17        57.04321
1017.55        55.88919
1017.93        55.12156
1018.31        54.76603
1018.69        54.87177
1019.06         55.2987
1019.44        55.81685
1019.82        56.23561
1020.20        55.96661
1020.58        54.81835
1020.95         53.1489
1021.33        50.81041
1021.71        46.72455
1022.09        39.73159
1022.46        26.40494
1022.84        6.835104
1023.22        1.989725
1023.60        22.06742
1023.97        44.06957
1024.35         56.5552
1024.73        60.92673
