SpectraSmart Spectrum 2.9.0.0
--------- Device Information -----------
Spectrum Name :  反射率_0
Saving Time :  2024/04/20 00:02:22
Spectro-Module Model Name : SE2030-DUVN
Spectro-Module Serial Number : OS361AC55029948
Wavelength Start : 200
Wavelength End : 1025
Wavelength Unit : Wavelength(nm)
Spectrum Unit : Reflectance(%)
-----------Spectrum Setting ------------
Integration Time : 30ms
Average : 10
Boxcar : 0
Background removal :  enabled
linearity correction :  enabled
SC :  disabled
Intensity correction :  disabled
DWT denoise :  enabled
savitzky-golay :  disabled
FFT :  disabled
Running average :  disabled
Kalman :  disabled
High pass :  disabled
---------------BEGIN--------------------
Wavelength(nm)             Reflectance(%)
200.29               0
200.75        58.73311
201.21        58.13256
201.67        59.68583
202.13        63.99648
202.58        71.18624
203.04        81.52514
203.50        92.10825
203.96        95.37436
204.42        90.58511
204.88        82.29904
205.34        74.55096
205.80        69.10466
206.26        65.03836
206.72        60.81842
207.18        56.19431
207.64        53.16372
208.10        54.18377
208.55        59.31633
209.01        64.56684
209.47        67.01432
209.93        66.80016
210.39        64.83457
210.85        62.53632
211.31         61.5658
211.77        62.16342
212.23        64.12119
212.69        66.65089
213.14        67.06335
213.60        64.44128
214.06        61.37666
214.52        59.49678
214.98        59.71603
215.44        61.73659
215.90        64.82976
216.36        68.96813
216.81        73.37509
217.27        76.88725
217.73        79.78941
218.19        80.61072
218.65        77.31063
219.11        69.73106
219.57         57.7793
220.02        44.52788
220.48        38.24883
220.94        41.82715
221.40        53.77722
221.86        68.15362
222.32        75.59888
222.77        74.02783
223.23        66.62994
223.69        58.19575
224.15        55.58892
224.61        59.11737
225.06        65.14032
225.52        70.67417
225.98        73.30824
226.44        73.00211
226.90        70.90945
227.36        67.96194
227.81        65.63824
228.27        64.80978
228.73        64.79895
229.19        65.10004
229.65        65.13289
230.10         64.7924
230.56        64.47822
231.02        64.32181
231.48        64.50968
231.93        64.96466
232.39        65.50984
232.85        66.01447
233.31        66.36162
233.77        66.47265
234.22        66.41288
234.68        65.96206
235.14        64.68394
235.60        62.62832
236.05        60.01498
236.51        57.49524
236.97        55.94746
237.43        55.61046
237.88        56.63873
238.34        58.50968
238.80         59.8579
239.26        59.66908
239.71         58.0263
240.17        55.92144
240.63        55.41606
241.08        57.01268
241.54        60.21693
242.00        63.36445
242.46        63.37856
242.91        58.76834
243.37        48.23109
243.83        32.75566
244.28        23.12838
244.74        29.87716
245.20        50.62753
245.66        70.96987
246.11        78.58924
246.57        72.56085
247.03        53.86589
247.48        26.76227
247.94        16.48742
248.40        28.38897
248.85        44.98607
249.31         57.5455
249.77        64.11177
250.22        66.37632
250.68        66.48306
251.14        65.07207
251.59        62.97261
252.05        61.01716
252.51        58.88692
252.96        56.41991
253.42        53.94609
253.88        51.84158
254.33        50.44517
254.79        50.85954
255.25        53.66762
255.70        58.21529
256.16        63.49831
256.62        67.72365
257.07        68.92503
257.53        67.33891
257.99        63.82056
258.44        59.57419
258.90        56.88767
259.35        55.59847
259.81        55.36977
260.27        55.10517
260.72        53.86724
261.18        51.94708
261.63        49.40631
262.09        47.26315
262.55        46.42495
263.00        46.81551
263.46        48.01673
263.91        49.00069
264.37        48.82494
264.83        47.47038
265.28        45.32864
265.74        43.35449
266.19        42.44595
266.65        42.75908
267.11        43.79224
267.56        44.90361
268.02        45.16489
268.47        44.41568
268.93        42.99173
269.38        41.29697
269.84         40.1954
270.30        39.88539
270.75        40.09467
271.21        40.45566
271.66        40.42382
272.12        39.85699
272.57        38.94576
273.03        37.94106
273.48        37.13491
273.94        36.66309
274.39        36.38025
274.85        36.18276
275.31        35.89156
275.76        35.43542
276.22        34.89333
276.67        34.31822
277.13        33.89165
277.58        33.58275
278.04        33.37428
278.49         33.0812
278.95        32.51969
279.40        31.65174
279.86        30.64638
280.31        29.65235
280.77        29.01878
281.22        28.72848
281.68        28.68998
282.13        28.72245
282.59        28.59875
283.04        28.25491
283.50        27.80769
283.95         27.2957
284.41        26.81427
284.86        26.37554
285.32        25.96265
285.77        25.61358
286.22         25.4588
286.68        25.48942
287.13        25.64034
287.59        25.76464
288.04        25.61807
288.50        25.18472
288.95        24.51661
289.41        23.78983
289.86        23.20858
290.32        22.87885
290.77        22.72562
291.22        22.69014
291.68        22.64607
292.13        22.56243
292.59        22.49586
293.04        22.49354
293.50        22.63604
293.95        22.92721
294.40         23.3187
294.86        23.75207
295.31        24.15477
295.77        24.50553
296.22        24.82772
296.68        25.14258
297.13        25.46015
297.58        25.80444
298.04        26.18355
298.49        26.61762
298.95        27.17148
299.40        27.84128
299.85        28.61005
300.31        29.43083
300.76        30.22936
301.21        30.97586
301.67         31.6965
302.12        32.37855
302.58        33.06496
303.03        33.73941
303.48        34.39896
303.94        35.06451
304.39        35.73085
304.84        36.40283
305.30        37.07482
305.75        37.69469
306.20        38.20495
306.66        38.61817
307.11        38.93963
307.57        39.23261
308.02        39.51849
308.47        39.82974
308.93        40.14489
309.38        40.46225
309.83        40.83194
310.29        41.23935
310.74        41.66645
311.19        42.00537
311.65        42.08373
312.10        41.87813
312.55        41.45339
313.00        40.97757
313.46        40.70826
313.91        40.69127
314.36        40.87165
314.82        41.11395
315.27        41.21676
315.72        41.10929
316.18        40.86451
316.63         40.5657
317.08        40.35173
317.53        40.25331
317.99        40.21109
318.44        40.16406
318.89        40.00741
319.35        39.71841
319.80        39.34497
320.25        38.94306
320.70        38.59786
321.16        38.33168
321.61        38.12212
322.06        37.94287
322.51        37.75554
322.97        37.53554
323.42        37.30132
323.87        37.04107
324.32        36.74135
324.78        36.39719
325.23        36.02265
325.68        35.62571
326.13        35.23244
326.59        34.85652
327.04        34.51982
327.49        34.22968
327.94        33.99715
328.39        33.81929
328.85        33.67323
329.30        33.57938
329.75        33.51635
330.20        33.47017
330.66        33.41832
331.11        33.35091
331.56        33.19981
332.01        32.94946
332.46        32.60712
332.92        32.22051
333.37        31.88722
333.82        31.64228
334.27        31.49168
334.72        31.38126
335.17        31.21253
335.63        30.95583
336.08         30.6414
336.53        30.38338
336.98        30.38255
337.43        30.66244
337.88        31.15431
338.34        31.60834
338.79         31.6679
339.24        31.23975
339.69         30.4326
340.14        29.53993
340.59        29.06184
341.05        29.11572
341.50        29.55339
341.95        30.10486
342.40        30.34849
342.85        30.17942
343.30        29.74985
343.75        29.21439
344.20        28.82071
344.66        28.64597
345.11        28.57179
345.56        28.57731
346.01         28.6354
346.46        28.70847
346.91        28.82787
347.36         28.8749
347.81        28.65044
348.26        28.15006
348.72        27.46397
349.17         26.7796
349.62        26.49214
350.07        26.68362
350.52         27.2068
350.97        27.85195
351.42        28.30356
351.87        28.46227
352.32        28.41751
352.77        28.20046
353.22        27.86649
353.67        27.46597
354.13        26.99817
354.58        26.53024
355.03        26.21375
355.48        26.08063
355.93        26.10882
356.38         26.2144
356.83        26.24717
357.28        26.16055
357.73        25.98324
358.18        25.76327
358.63        25.58916
359.08          25.482
359.53        25.40592
359.98        25.31044
360.43        25.12164
360.88         24.8299
361.33        24.47401
361.78        24.10863
362.23         23.8194
362.68        23.63022
363.13        23.50649
363.58        23.41964
364.03         23.3255
364.48        23.19949
364.93        23.05112
365.38        22.85503
365.83        22.57303
366.28        22.21045
366.73        21.78607
367.18        21.35955
367.63        21.02485
368.08        20.80363
368.53        20.67114
368.98        20.58531
369.43        20.47281
369.88        20.31374
370.33        20.13591
370.78         19.9481
371.23        19.76814
371.68        19.60701
372.13        19.44613
372.58        19.31989
373.03        19.29062
373.48        19.35503
373.93        19.48567
374.38        19.59132
374.83        19.53153
375.28        19.28265
375.72        18.88376
376.17        18.44785
376.62        18.11885
377.07        17.94832
377.52        17.89653
377.97        17.92301
378.42         17.9617
378.87        17.98141
379.32        17.99468
379.77        17.99941
380.22        17.98891
380.67        17.96108
381.11        17.91564
381.56        17.82839
382.01        17.68544
382.46        17.48957
382.91        17.24408
383.36        17.00781
383.81        16.86466
384.26        16.82843
384.71        16.88895
385.15        16.94958
385.60        16.86156
386.05        16.60559
386.50        16.23009
386.95        15.88173
387.40        15.79122
387.85         15.9908
388.29        16.38726
388.74        16.80473
389.19        16.99742
389.64        16.91498
390.09        16.62814
390.54         16.2712
390.98        16.05361
391.43        16.04553
391.88        16.16999
392.33        16.30841
392.78        16.29187
393.23        16.10168
393.67        15.80059
394.12        15.52827
394.57        15.41766
395.02        15.49479
395.47        15.71134
395.91        15.97749
396.36        16.11645
396.81        16.08471
397.26        15.93125
397.71        15.75475
398.15        15.68992
398.60        15.78107
399.05        15.96514
399.50        16.15432
399.95        16.22682
400.39        16.15705
400.84        15.98445
401.29        15.78714
401.74          15.705
402.18        15.78206
402.63        15.96535
403.08        16.16233
403.53        16.22435
403.97        16.12168
404.42        15.91644
404.87        15.70242
405.32        15.63223
405.76        15.73911
406.21        15.96521
406.66         16.2305
407.11        16.41236
407.55        16.47733
408.00        16.46832
408.45        16.41531
408.90         16.3271
409.34        16.24105
409.79        16.22719
410.24        16.26729
410.68        16.26563
411.13        16.22274
411.58        16.20485
412.03        16.21061
412.47        16.21154
412.92        16.20377
413.37        16.18767
413.81         16.1971
414.26        16.29856
414.71        16.49121
415.15        16.76126
415.60        17.00813
416.05        17.09407
416.49        16.98657
416.94        16.73283
417.39        16.44271
417.83        16.29502
418.28           16.34
418.73        16.51681
419.17        16.73513
419.62        16.84159
420.07        16.80463
420.51        16.68015
420.96         16.5324
421.41        16.43901
421.85        16.42024
422.30        16.45638
422.74        16.53109
423.19        16.65376
423.64        16.80765
424.08        16.99985
424.53        17.17783
424.98        17.27366
425.42        17.27204
425.87        17.19419
426.31        17.07307
426.76        16.97245
427.21        16.90426
427.65         16.8463
428.10        16.82766
428.54         16.8685
428.99        16.96865
429.44        17.19557
429.88        17.43324
430.33        17.38266
430.77        17.09949
431.22        16.93894
431.66         16.9616
432.11        17.06625
432.56        17.23442
433.00        17.53845
433.45        17.80525
433.89        17.78166
434.34        17.57726
434.78        17.36455
435.23        17.11656
435.67        17.96354
436.12        17.39285
436.57        17.28081
437.01        16.98298
437.46        16.86742
437.90        16.95846
438.35        17.09681
438.79        17.21697
439.24        17.28968
439.68        17.29408
440.13        17.10295
440.57        16.83752
441.02        16.96306
441.46         17.3282
441.91        17.38609
442.35         16.7307
442.80         16.5324
443.24        16.62114
443.69        16.63316
444.13        16.53506
444.58        16.46102
445.02         16.4175
445.47        16.41286
445.91        16.43212
446.36        16.41359
446.80        16.34726
447.24         16.2718
447.69        16.20761
448.13        16.14933
448.58        16.10896
449.02        16.08516
449.47         16.0707
449.91        16.04676
450.36        16.01564
450.80        15.97882
451.25        15.95827
451.69        15.97076
452.13          16.022
452.58        16.09516
453.02         16.1715
453.47        16.22366
453.91        16.24466
454.36        16.24117
454.80        16.21374
455.24        16.16416
455.69        16.10522
456.13        16.02236
456.58        15.94922
457.02        15.92578
457.46        15.95517
457.91        15.98954
458.35        16.01073
458.79        16.03005
459.24        16.03874
459.68        16.03708
460.13        16.07607
460.57        16.08085
461.01        16.03782
461.46        16.38183
461.90        16.47091
462.34        16.31085
462.79         16.4439
463.23        16.31987
463.68        16.20895
464.12        16.12006
464.56        16.19691
465.01         16.3174
465.45        16.43301
465.89        16.48885
466.34        16.47886
466.78        16.36796
467.22        16.22464
467.67        16.27459
468.11        16.48758
468.55        16.53158
468.99        16.41283
469.44        16.41146
469.88        16.53309
470.32          16.611
470.77        16.62576
471.21         16.6328
471.65        16.63195
472.10        16.61058
472.54        16.58007
472.98        16.59587
473.42          16.662
473.87        16.71398
474.31         16.7472
474.75        16.85519
475.20        16.99885
475.64        16.99604
476.08        16.88353
476.52        16.86871
476.97        16.96251
477.41        17.06671
477.85        17.14833
478.29        17.20524
478.74        17.23237
479.18        17.19967
479.62        17.16332
480.06        17.21899
480.50        17.35683
480.95         17.4658
481.39        17.51261
481.83        17.53105
482.27        17.52044
482.72        17.47108
483.16        17.41273
483.60        17.40342
484.04        17.44686
484.48         17.5787
484.93        17.84631
485.37        17.98229
485.81        18.09912
486.25        18.67745
486.69        18.96483
487.14        18.47204
487.58        18.49057
488.02         19.1097
488.46        18.88992
488.90        19.02669
489.34        18.96781
489.79        19.05953
490.23        19.26764
490.67        19.47581
491.11        19.62726
491.55        19.56233
491.99        19.34256
492.43        19.27138
492.88        19.38853
493.32        19.50476
493.76        19.61767
494.20         19.8113
494.64        20.07897
495.08        20.38921
495.52        20.69136
495.96        20.92457
496.41         21.0761
496.85        21.12267
497.29        21.12378
497.73        21.27655
498.17         21.5693
498.61        21.75856
499.05        21.83265
499.49        21.99269
499.93         22.2416
500.37        22.40552
500.82        22.49602
501.26        22.71506
501.70        23.01291
502.14        23.07386
502.58        22.94706
503.02        22.97388
503.46        23.17625
503.90        23.37705
504.34        23.51854
504.78        23.58493
505.22        23.56149
505.66        23.46207
506.10        23.34414
506.54        23.29716
506.98        23.34896
507.42        23.48096
507.86         23.6561
508.30        23.81081
508.74        23.92237
509.18        24.00219
509.62        24.07768
510.06        24.19204
510.50        24.35245
510.94        24.54421
511.38        24.71448
511.82        24.78133
512.26        24.73197
512.70        24.59444
513.14        24.45075
513.58        24.42558
514.02        24.53888
514.46        24.75421
514.90        24.99066
515.34        25.05413
515.78        24.95284
516.22        24.79555
516.66        24.67512
517.10        24.40325
517.54         24.0076
517.98        24.55042
518.42        24.43036
518.86        24.66936
519.30         24.7721
519.74        24.89795
520.18        25.00899
520.62        25.02266
521.06        24.94871
521.50        24.79435
521.93        24.61343
522.37        24.50435
522.81        24.48969
523.25        24.54329
523.69        24.62263
524.13        24.65975
524.57        24.63344
525.01        24.56203
525.45        24.46895
525.89        24.39014
526.32         24.3365
526.76        24.30053
527.20         24.2593
527.64        24.18227
528.08        24.06451
528.52        23.91488
528.96        23.77428
529.40        23.70176
529.83        23.70474
530.27         23.7709
530.71        23.83375
531.15        23.79089
531.59        23.62711
532.03        23.37781
532.46        23.12568
532.90        23.01871
533.34        23.07665
533.78        23.24714
534.22        23.44416
534.66         23.5357
535.09        23.48466
535.53        23.34249
535.97        23.15706
536.41        23.00108
536.85        22.90217
537.28        22.84846
537.72        22.84001
538.16        22.80752
538.60        22.85542
539.04        22.89238
539.47        22.93142
539.91        22.99874
540.35        23.10617
540.79        23.04971
541.22        23.13787
541.66          23.224
542.10        23.41793
542.54        23.33618
542.97        23.58703
543.41        23.72128
543.85        23.90216
544.29        24.07162
544.72        24.20602
545.16        24.34002
545.60        24.46691
546.04        24.50411
546.47        24.52389
546.91        24.79482
547.35        25.25465
547.79        25.57939
548.22        25.72455
548.66        25.79659
549.10        25.84436
549.53        26.04218
549.97        26.40288
550.41        26.46651
550.84        26.71904
551.28        26.89427
551.72        27.14552
552.15        27.38912
552.59         27.6223
553.03        27.85713
553.46        28.06091
553.90        28.21384
554.34        28.31158
554.77        28.36007
555.21        28.40295
555.65        28.49657
556.08        28.64729
556.52        28.83494
556.96        29.02156
557.39        29.18415
557.83        29.30137
558.27        29.31512
558.70        29.26404
559.14        29.26903
559.57        29.33846
560.01        29.45426
560.45         29.5789
560.88        29.61663
561.32        29.61763
561.75        29.67338
562.19        29.89084
562.63        30.01071
563.06        30.05687
563.50        30.11278
563.93        30.18241
564.37         30.3301
564.80        30.41666
565.24        30.55789
565.68        30.68399
566.11        30.79546
566.55        30.91095
566.98        30.96593
567.42        30.95514
567.85        31.28787
568.29        31.14885
568.72         31.4311
569.16        31.83247
569.60        32.11987
570.03        32.24851
570.47        32.42248
570.90        32.48202
571.34        32.80435
571.77        32.56084
572.21        32.92387
572.64        33.24352
573.08        33.48351
573.51        33.49742
573.95        33.95473
574.38        34.20356
574.82        34.43349
575.25         34.4637
575.69        34.30173
576.12        34.33141
576.56        34.31055
576.99        34.33471
577.42        34.51307
577.86        34.55363
578.29        34.27979
578.73        34.81163
579.16        34.62963
579.60        34.38564
580.03        34.17936
580.47         34.1527
580.90        33.71747
581.33        33.90452
581.77        33.87667
582.20        34.25734
582.64        33.81864
583.07        33.43015
583.51        33.43277
583.94         33.1507
584.37        33.00546
584.81        32.50294
585.24        32.41068
585.68        32.60742
586.11        32.50704
586.54        32.43254
586.98        32.36052
587.41         32.4083
587.85         32.3657
588.28        32.22466
588.71        32.07706
589.15        31.96235
589.58        31.65636
590.01        31.57739
590.45        31.96054
590.88        31.87181
591.31        31.91561
591.75        31.56678
592.18        31.65461
592.61        31.42992
593.05        31.96479
593.48        32.01252
593.91        32.73197
594.35        32.31222
594.78        32.33828
595.21        32.78899
595.65        33.00022
596.08        33.04896
596.51        33.04194
596.94         33.0573
597.38        33.15805
597.81        33.43843
598.24        33.67128
598.68        34.26824
599.11        34.65801
599.54        35.38804
599.97        35.11411
600.41         35.5128
600.84        36.23478
601.27        36.61671
601.70        37.04103
602.14         37.2041
602.57        37.62247
603.00        38.25227
603.43        38.73213
603.87        38.93235
604.30        39.39973
604.73        40.08052
605.16         40.5344
605.60         41.1111
606.03        41.56583
606.46        41.91367
606.89        42.69673
607.32        43.27746
607.76        43.35065
608.19        43.80711
608.62        44.29722
609.05        44.38961
609.48        44.66593
609.92        44.94278
610.35        45.13811
610.78        45.65517
611.21        46.58368
611.64        46.35843
612.07        46.82753
612.50        47.43167
612.94        47.35994
613.37        47.92002
613.80        48.18723
614.23        48.59371
614.66        48.68513
615.09        48.98525
615.52        49.42878
615.96        50.00227
616.39        50.39126
616.82        50.64152
617.25        50.22574
617.68         50.6675
618.11        50.86807
618.54         51.2019
618.97        51.30613
619.40        51.08126
619.84        51.38454
620.27        50.99471
620.70        51.40305
621.13        52.09661
621.56        52.33592
621.99        52.20773
622.42        52.23577
622.85        52.49504
623.28        52.57873
623.71        52.50175
624.14        52.72536
624.57        52.46449
625.00        52.59459
625.43        52.66855
625.86        51.83614
626.29        52.00586
626.72        51.72599
627.15        51.61174
627.58        51.55349
628.01        51.49323
628.44        51.40492
628.87        51.26165
629.30        50.73262
629.73        50.34364
630.16         50.1472
630.59        49.80547
631.02        49.42531
631.45        48.89467
631.88        48.45566
632.31        48.10925
632.74        47.73786
633.17        47.32417
633.60        46.87545
634.03        46.39386
634.46        45.90543
634.89        45.41848
635.32        44.91107
635.75        44.39043
636.18        43.90126
636.61        43.46701
637.04        42.98244
637.47        42.65299
637.89        42.31099
638.32        41.98657
638.75        41.64745
639.18        41.28962
639.61        40.92421
640.04        40.56132
640.47        40.22031
640.90        39.91006
641.33        39.62949
641.76        39.38638
642.18        39.19719
642.61        39.05643
643.04        38.96012
643.47        38.90218
643.90        38.86805
644.33        38.85183
644.76        38.86996
645.18        38.91165
645.61        38.93845
646.04        38.94778
646.47        39.03857
646.90        39.09497
647.33        39.32252
647.75        39.68075
648.18        40.13944
648.61        40.63154
649.04        41.04294
649.47        41.35382
649.89         41.6222
650.32        41.89757
650.75        42.23235
651.18        42.68818
651.61        43.25821
652.03         43.9337
652.46        44.82426
652.89        45.82389
653.32         46.3431
653.74        46.47431
654.17        47.15302
654.60        47.93949
655.03        48.85765
655.46        48.84475
655.88        50.32849
656.31        51.52933
656.74        56.35687
657.16        54.83558
657.59        52.84436
658.02          53.066
658.45        53.09914
658.87        53.97688
659.30        54.53621
659.73        54.86052
660.15        56.04198
660.58        56.04185
661.01        56.00429
661.44         55.6192
661.86         55.8103
662.29        56.56073
662.72        57.33253
663.14        57.92408
663.57        57.95499
664.00        57.60017
664.42        57.62128
664.85        58.09464
665.27        58.51094
665.70        58.78568
666.13        59.06598
666.55        59.33434
666.98        59.53973
667.41        59.69929
667.83        59.83973
668.26        59.96104
668.69        60.06878
669.11        60.17112
669.54        60.25864
669.96        60.33702
670.39        60.46571
670.82        60.64782
671.24        60.74248
671.67        60.80889
672.09        61.13684
672.52        61.63045
672.94        61.89125
673.37        61.87485
673.80        61.70013
674.22        61.48266
674.65        61.39478
675.07        61.49186
675.50        61.68547
675.92        61.90613
676.35        62.01529
676.77        61.98384
677.20        61.93459
677.62        61.79259
678.05        61.74213
678.47        61.76505
678.90        61.83959
679.32        61.96453
679.75         62.1136
680.17        62.26195
680.60        62.50866
681.02        62.80155
681.45        62.77727
681.87        62.54963
682.30        62.75547
682.72        63.29158
683.15         63.4288
683.57        63.00473
684.00        62.86823
684.42        63.12621
684.85        63.27457
685.27        63.35076
685.70        63.56004
686.12        63.82552
686.54        64.01577
686.97        64.11621
687.39        63.87302
687.82        63.84315
688.24        63.79641
688.66        63.88453
689.09        63.93629
689.51         63.9543
689.94        64.01762
690.36        64.13334
690.78        64.21593
691.21        64.25486
691.63        64.37992
692.06        64.67272
692.48        64.58331
692.90        64.72961
693.33        65.12231
693.75        64.85867
694.17        64.97011
694.60        65.11382
695.02        65.12798
695.44        64.98367
695.87        64.96683
696.29        65.05021
696.71        64.83045
697.14        64.54174
697.56        64.87016
697.98        65.55693
698.41        66.68253
698.83        66.06419
699.25        65.98125
699.68        65.93044
700.10        65.90704
700.52        65.95109
700.94        66.10416
701.37        66.30805
701.79        66.50735
702.21        66.64796
702.64        66.74553
703.06        66.82468
703.48        66.93723
703.90        67.09517
704.33        67.27431
704.75         67.4178
705.17        67.40643
705.59        67.22659
706.01        66.92354
706.44        66.63745
706.86        66.57855
707.28        66.78028
707.70         67.1994
708.12        67.68805
708.55        67.93281
708.97        67.90898
709.39        67.86462
709.81        67.84461
710.23        67.77695
710.66        67.69656
711.08        67.67602
711.50        67.72217
711.92        67.81805
712.34        67.96215
712.76         68.1715
713.19        68.38334
713.61        68.54324
714.03        68.60628
714.45        68.58865
714.87        68.55682
715.29        68.62051
715.71        68.79999
716.13        69.05953
716.56        69.31297
716.98        69.49402
717.40        69.54607
717.82        69.50249
718.24        69.41423
718.66        69.36447
719.08        69.37746
719.50        69.42224
719.92        69.47749
720.34        69.50819
720.76        69.50347
721.19        69.48183
721.61        69.45109
722.03        69.38298
722.45        69.30433
722.87        69.20873
723.29        69.14596
723.71        69.18786
724.13        69.34695
724.55        69.59846
724.97        69.88952
725.39        70.12749
725.81        70.27361
726.23        70.36026
726.65        70.41521
727.07        70.43555
727.49        70.42468
727.91        70.58987
728.33        70.54045
728.75        70.57307
729.17        70.57333
729.59        70.56551
730.01         70.5584
730.43        70.56702
730.85        70.59949
731.27        70.64474
731.69        70.70119
732.10        70.78043
732.52        70.87286
732.94        70.95255
733.36        70.97506
733.78        71.01627
734.20        71.13512
734.62        70.92906
735.04        70.61542
735.46        71.06177
735.88        71.02192
736.30        70.30696
736.72        70.79801
737.13        70.81693
737.55        70.96622
737.97        71.38774
738.39        71.91872
738.81        71.77558
739.23        71.07786
739.65        70.94765
740.06        71.34932
740.48        71.46983
740.90        71.24111
741.32        71.03574
741.74        70.93617
742.16        70.96624
742.57        71.15062
742.99        71.38713
743.41        71.61189
743.83        71.75365
744.25        71.78036
744.67        71.69402
745.08        71.54533
745.50        71.39553
745.92        71.28725
746.34        71.20111
746.75        71.13309
747.17        71.07849
747.59        71.04215
748.01        71.04428
748.42        71.08836
748.84        71.17747
749.26        71.31869
749.68        71.37293
750.09        71.38379
750.51        71.65384
750.93        72.03752
751.35        72.00362
751.76        71.63292
752.18        71.15469
752.60        71.26764
753.01        71.26279
753.43        71.30509
753.85        71.37885
754.27        71.46885
754.68        71.72963
755.10        72.04439
755.52        71.97112
755.93            71.6
756.35        71.51621
756.77        71.73067
757.18        71.83975
757.60         71.8976
758.02        72.03882
758.43        72.12655
758.85        72.56934
759.26        72.62726
759.68         71.9352
760.10        71.88894
760.51        71.75179
760.93        72.09005
761.34        71.11893
761.76        71.70976
762.18        71.37209
762.59        71.09144
763.01        71.22875
763.42        71.80531
763.84        72.30843
764.26        72.57911
764.67        72.44841
765.09        72.15736
765.50        72.35843
765.92         72.9773
766.33         73.3717
766.75        73.31323
767.16        72.78277
767.58        71.94441
768.00        71.41626
768.41        71.42227
768.83        71.75932
769.24        72.26939
769.66        72.88038
770.07        73.35006
770.49        73.13075
770.90        72.46436
771.32        72.51323
771.73        73.19702
772.15        73.38963
772.56        73.05338
772.97        72.69875
773.39        72.41162
773.80        72.39139
774.22        72.53142
774.63        72.23228
775.05        71.64606
775.46        71.59993
775.88        72.12758
776.29        72.84095
776.70         73.4521
777.12        73.68725
777.53        73.45983
777.95        72.81539
778.36         72.0616
778.77        71.72245
779.19        71.93417
779.60        72.59691
780.02        73.34039
780.43        73.79897
780.84        73.87632
781.26        73.09084
781.67        72.14326
782.09        72.86607
782.50        74.84122
782.91        75.03619
783.33        73.58035
783.74        73.27665
784.15        74.00243
784.57        74.48395
784.98        74.45174
785.39        73.96104
785.81        73.16795
786.22        72.78116
786.63        72.86101
787.04        72.83724
787.46        72.72455
787.87        72.91586
788.28        73.34934
788.70        73.67107
789.11        73.81506
789.52        73.91847
789.93        74.00139
790.35        73.98238
790.76        73.91996
791.17        74.01514
791.58        74.20568
792.00        74.11074
792.41        73.73311
792.82        73.46166
793.23         73.2673
793.65        72.83659
794.06        72.47983
794.47        72.63947
794.88        73.00401
795.29        74.85011
795.71        74.25677
796.12        73.93276
796.53        74.56052
796.94        74.06467
797.35        73.20382
797.76        72.96228
798.18        73.40161
798.59        73.75935
799.00        73.89347
799.41        74.02654
799.82        74.13442
800.23        74.22448
800.64        74.28146
801.06         74.1487
801.47        73.92504
801.88        73.82011
802.29          73.863
802.70        73.96986
803.11        74.07841
803.52        74.06475
803.93        73.90826
804.34        73.76041
804.75        73.64595
805.17        73.42091
805.58        73.20592
805.99        73.32491
806.40        73.78302
806.81        74.32484
807.22        74.60953
807.63        75.03655
808.04        73.94721
808.45        73.63475
808.86        73.79309
809.27        74.49728
809.68        75.48672
810.09        76.00919
810.50        75.91405
810.91        75.60347
811.32         75.2502
811.73        74.86367
812.14        74.50371
812.55         74.3805
812.96        74.39006
813.37        73.87358
813.78        73.06313
814.19        73.10524
814.60        73.82592
815.01        74.29226
815.42        73.97173
815.83        73.79933
816.24        73.87341
816.65        73.95602
817.05        74.11397
817.46        74.33791
817.87        74.56195
818.28        74.62558
818.69        74.51422
819.10        74.27568
819.51        74.03226
819.92        74.04906
820.33        74.39027
820.74        74.83555
821.14        75.29351
821.55        75.87418
821.96        76.39053
822.37        76.24786
822.78        75.57109
823.19        75.15762
823.60        75.10911
824.00        75.02386
824.41        74.84014
824.82        74.75336
825.23        74.76291
825.64        74.84297
826.04        74.96498
826.45        75.02457
826.86        75.00997
827.27        74.94185
827.68        74.85915
828.08         74.8559
828.49        74.90353
828.90        75.00837
829.31        75.13827
829.72        75.23785
830.12        75.30355
830.53        75.30964
830.94        75.29499
831.35        75.29079
831.75        75.32675
832.16        75.35112
832.57        75.35524
832.97        75.30399
833.38        75.17162
833.79        74.97353
834.20        74.76383
834.60        74.61269
835.01        74.55502
835.42        74.59125
835.82        74.64814
836.23        74.54551
836.64        74.27721
837.04        73.88673
837.45        73.54546
837.86         73.5751
838.26        74.04498
838.67        74.82719
839.08         75.6442
839.48        75.97755
839.89        75.69415
840.29         74.9864
840.70        74.21809
841.11        73.85081
841.51        74.01486
841.92        74.50961
842.33        75.21083
842.73        75.90514
843.14        76.38391
843.54         76.7709
843.95        76.94247
844.35        76.77827
844.76         76.3025
845.17        75.58244
845.57        74.83215
845.98        74.41103
846.38        74.40559
846.79        74.72427
847.19        75.29613
847.60        75.83139
848.00        76.26546
848.41        76.58739
848.81        76.84483
849.22        77.03936
849.62         77.2159
850.03        77.29375
850.43        77.29291
850.84        77.16457
851.24        76.98264
851.65        76.73811
852.05        76.52644
852.46        76.42859
852.86        76.48055
853.27        76.50916
853.67         76.4882
854.07        76.89046
854.48        77.49213
854.88        77.43655
855.29        76.74051
855.69        76.39667
856.10        76.41457
856.50        76.33083
856.90        76.08031
857.31        75.86981
857.71        75.78539
858.12        75.72456
858.52        75.72488
858.92        75.71949
859.33        75.67387
859.73        75.64168
860.13        75.63582
860.54        75.68736
860.94         75.8554
861.34        76.07664
861.75        76.23855
862.15        76.26697
862.55         76.1045
862.96        75.81248
863.36        75.47665
863.76        75.21046
864.17        75.05815
864.57          75.011
864.97        75.07968
865.38        75.25929
865.78        75.57407
866.18        75.94224
866.58         76.2464
866.99        76.28742
867.39        76.05525
867.79         75.5852
868.19         74.8797
868.60        73.92851
869.00        72.75266
869.40         71.4249
869.80         70.2662
870.21        69.79419
870.61        70.17201
871.01        71.20087
871.41        72.42168
871.81        73.09167
872.22        73.04049
872.62        72.48224
873.02         71.6905
873.42        71.32474
873.82        71.35855
874.22        71.12201
874.63        70.76842
875.03        70.72542
875.43        71.01996
875.83         72.5062
876.23        72.35508
876.63        71.85938
877.03        70.53322
877.44         68.4724
877.84        129.0824
878.24        68.96487
878.64        70.30585
879.04        74.00466
879.44        70.78121
879.84        68.77725
880.24        72.63744
880.64        72.50601
881.04        69.36334
881.44        67.41888
881.84        67.38627
882.24        68.56381
882.65        70.27419
883.05        71.19929
883.45        70.90702
883.85        70.09806
884.25        69.27524
884.65        68.93306
885.05        69.23328
885.45        69.97055
885.85        70.82755
886.25        71.30941
886.65         71.2681
887.05        70.88454
887.45        70.40846
887.85        70.19716
888.25        70.34928
888.65         70.7467
889.04        71.25418
889.44        71.56922
889.84        71.62633
890.24        71.50665
890.64        71.31095
891.04         71.1903
891.44        71.16022
891.84        71.12489
892.24        71.01992
892.64        70.74873
893.04        70.31852
893.44        69.85991
893.83         69.3363
894.23        68.70596
894.63        67.98726
895.03        67.18614
895.43        66.59607
895.83        66.70654
896.23        67.57099
896.63         69.0201
897.02        70.53473
897.42        71.17279
897.82          70.715
898.22        69.45908
898.62        67.92122
899.01        66.90046
899.41        66.65285
899.81        66.91828
900.21         67.4921
900.61        68.06638
901.00        68.50462
901.40        68.87664
901.80        69.17281
902.20        69.34046
902.59        69.37985
902.99        69.28367
903.39        69.02483
903.79        68.58745
904.18        68.01597
904.58        67.39683
904.98        66.95563
905.38         67.0298
905.77        67.64247
906.17        68.66875
906.57         69.7792
906.96        70.47881
907.36         70.5868
907.76        70.22219
908.15        69.63493
908.55        69.18505
908.95        69.00744
909.34        69.03997
909.74        69.07229
910.14        68.74104
910.53        67.98519
910.93        67.00977
911.33        66.21221
911.72        66.20918
912.12        67.05143
912.52        68.44386
912.91        69.90042
913.31        70.59102
913.70        70.37224
914.10        69.48195
914.49         68.1851
914.89         67.1266
915.29        66.59323
915.68        66.42352
916.08        66.62652
916.47        67.19273
916.87        68.01042
917.26        69.06126
917.66        70.07686
918.05        70.64197
918.45        70.62643
918.84        70.18031
919.24        69.41659
919.64        68.56286
920.03        67.76157
920.42        66.99487
920.82        66.51861
921.21         66.6698
921.61        67.41552
922.00        68.68651
922.40        69.98315
922.79        70.71384
923.19        70.70285
923.58        69.89207
923.98        68.50803
924.37        67.70346
924.77        67.95848
925.16        65.61295
925.55        66.86955
925.95            66.6
926.34        66.66013
926.74        66.87949
927.13        67.29182
927.52        67.72565
927.92        68.09139
928.31        68.49352
928.70        68.80016
929.10        68.83687
929.49        68.58607
929.89        68.08204
930.28        67.62818
930.67        67.71741
931.07        68.40115
931.46        69.56795
931.85         70.7672
932.24         71.3324
932.64        71.10452
933.03        70.18517
933.42        68.94374
933.82        68.16418
934.21        68.06882
934.60        68.45005
934.99        68.74584
935.39        68.45093
935.78        67.50528
936.17        65.53391
936.56        62.78207
936.96        63.68216
937.35        62.91834
937.74        64.61602
938.13        66.40015
938.53        67.69618
938.92        68.42889
939.31        68.84767
939.70         69.0396
940.09        68.99557
940.49        68.79184
940.88        68.42845
941.27        68.14565
941.66        68.35184
942.05        69.08096
942.44        70.18913
942.84        71.39519
943.23         72.2168
943.62        72.47507
944.01        72.34854
944.40        71.87391
944.79         71.1203
945.18        70.17615
945.57        68.99281
945.97        67.96533
946.36        67.73846
946.75        68.47269
947.14        69.92384
947.53        71.42326
947.92        72.03872
948.31        71.61428
948.70         70.4266
949.09        68.93161
949.48        67.95172
949.87         67.7594
950.26        68.10374
950.65        68.71176
951.04        69.12718
951.43        69.18193
951.82        69.03999
952.21        68.77705
952.60        68.48803
952.99        68.22636
953.38        67.93803
953.77        67.64854
954.16        67.42696
954.55        67.28453
954.94        67.22166
955.33        67.21764
955.72        67.21281
956.11         67.2001
956.50        67.21667
956.89        67.25127
957.28        67.28941
957.66         67.3418
958.05        67.31435
958.44        67.30994
958.83        67.47589
959.22        67.80739
959.61         68.2743
960.00        68.60624
960.39        68.32568
960.78        67.36517
961.16        65.89661
961.55        64.43287
961.94        63.62465
962.33        63.62988
962.72        64.27689
963.11        65.21324
963.49         65.8326
963.88        65.85253
964.27        65.46664
964.66        64.94625
965.04        64.74561
965.43        64.98287
965.82        65.52225
966.21        66.10978
966.60        66.35268
966.98        66.17937
967.37        65.70648
967.76        65.26653
968.15        65.35776
968.53        66.08325
968.92        67.17712
969.31        68.28584
969.69        68.82849
970.08        68.58469
970.47        67.77441
970.86        66.61208
971.24        65.41985
971.63        64.40639
972.02        63.51755
972.40        62.80758
972.79        62.38371
973.17        62.28796
973.56        62.44831
973.95        62.86071
974.33        63.46311
974.72        64.05663
975.11        64.59319
975.49        64.88994
975.88        64.68539
976.26        63.97277
976.65        62.91144
977.04        61.65566
977.42        60.49265
977.81        59.59547
978.19        58.89439
978.58        58.62267
978.96        59.15624
979.35        60.44524
979.74        62.46019
980.12        64.61251
980.51        65.57863
980.89        65.16187
981.28        63.68968
981.66        62.00646
982.05        61.31867
982.43        61.83134
982.82         63.1516
983.20        64.80815
983.59        65.66614
983.97        65.46053
984.35        64.47187
984.74        63.19596
985.12        62.29063
985.51        61.96007
985.89        61.95607
986.28        62.08357
986.66        62.08061
987.04        61.78907
987.43        61.42549
987.81        60.90749
988.20         60.0434
988.58        58.72497
988.96        56.81306
989.35         54.6466
989.73        53.40385
990.12        53.71833
990.50        55.33166
990.88         57.2168
991.27        58.17597
991.65        58.21191
992.03        57.60645
992.42        56.97658
992.80        57.43472
993.18        59.23125
993.56        61.71682
993.95        64.11766
994.33        65.81409
994.71        66.49557
995.10        66.44261
995.48        65.82955
995.86        64.80077
996.24        63.47873
996.63        61.82343
997.01        60.00306
997.39        58.69375
997.77         58.2542
998.15        58.53094
998.54        59.24165
998.92         60.0415
999.30        60.85367
999.68         61.8782
1000.06        62.65518
1000.45         61.9465
1000.83        59.69415
1001.21        56.66142
1001.59        54.12869
1001.97        53.02677
1002.35        53.18383
1002.73        54.27913
1003.12        55.83636
1003.50        56.75136
1003.88        56.39589
1004.26        55.19884
1004.64        53.45794
1005.02        51.53134
1005.40        49.59471
1005.78        47.44412
1006.16        45.76383
1006.54        45.96188
1006.92        48.00292
1007.30        50.99349
1007.69         53.6406
1008.07        54.83029
1008.45        54.28867
1008.83         52.0914
1009.21        47.83522
1009.59        42.19247
1009.97        36.90445
1010.35        32.78678
1010.73        31.29452
1011.11        33.00286
1011.49        37.13715
1011.86        43.37905
1012.24        49.03174
1012.62        51.66804
1013.00        51.13797
1013.38        48.25186
1013.76        44.48573
1014.14        42.50276
1014.52        43.06002
1014.90        45.33984
1015.28        48.02734
1015.66        48.89056
1016.04         47.1809
1016.41        43.51199
1016.79        38.76849
1017.17        35.32431
1017.55        34.46529
1017.93        35.25825
1018.31        36.92706
1018.69        38.88017
1019.06        40.86969
1019.44        42.93921
1019.82        44.60994
1020.20        44.45391
1020.58        41.97488
1020.95        37.70597
1021.33        32.27076
1021.71        25.45334
1022.09        16.05111
1022.46      -0.1336789
1022.84       -22.70728
1023.22        -28.2226
1023.60       -5.331879
1023.97        20.06651
1024.35        34.48649
1024.73        39.69673
