SpectraSmart Spectrum 2.9.0.0
--------- Device Information -----------
Spectrum Name :  反射率_0
Saving Time :  2024/04/20 00:41:31
Spectro-Module Model Name : SE2030-DUVN
Spectro-Module Serial Number : OS361AC55029948
Wavelength Start : 200
Wavelength End : 1025
Wavelength Unit : Wavelength(nm)
Spectrum Unit : Reflectance(%)
-----------Spectrum Setting ------------
Integration Time : 30ms
Average : 10
Boxcar : 0
Background removal :  enabled
linearity correction :  enabled
SC :  disabled
Intensity correction :  disabled
DWT denoise :  enabled
savitzky-golay :  disabled
FFT :  disabled
Running average :  disabled
Kalman :  disabled
High pass :  disabled
---------------BEGIN--------------------
Wavelength(nm)             Reflectance(%)
200.29               0
200.75        48.25405
201.21        50.24419
201.67        54.89264
202.13        60.83662
202.58        67.05354
203.04        73.89573
203.50        79.75648
203.96        80.87091
204.42        77.44415
204.88        71.97842
205.34        66.95503
205.80        63.48747
206.26        60.94939
206.72         58.4128
207.18        55.85984
207.64        54.63813
208.10        56.06245
208.55        60.03367
209.01        63.25013
209.47        63.61153
209.93         61.4887
210.39        57.84861
210.85         54.1893
211.31        52.09112
211.77        51.70042
212.23        52.71154
212.69        54.58788
213.14        55.45963
213.60        54.28009
214.06        52.70723
214.52        51.86615
214.98        52.55462
215.44        54.57307
215.90        57.30846
216.36        60.52467
216.81        63.17907
217.27        64.39142
217.73        64.80163
218.19        63.53753
218.65        59.19456
219.11        51.66294
219.57        40.73743
220.02        29.28693
220.48         24.9692
220.94        30.23323
221.40        43.67872
221.86        58.98536
222.32        66.44539
222.77        63.99555
223.23        54.77177
223.69        44.51401
224.15        41.45944
224.61        45.85526
225.06        53.52239
225.52        60.25286
225.98        62.44908
226.44        60.12473
226.90        54.86102
227.36         48.7765
227.81        45.55506
228.27        46.46206
228.73          49.759
229.19        53.39194
229.65        55.02542
230.10          54.483
230.56        52.90062
231.02        51.25365
231.48        50.69313
231.93        51.29573
232.39        52.51702
232.85         53.8174
233.31        54.47813
233.77        54.28358
234.22        53.50232
234.68        52.34227
235.14        51.04287
235.60         49.8208
236.05        48.69691
236.51        47.77977
236.97         47.1791
237.43        46.94082
237.88        47.23426
238.34        48.13802
238.80        49.90967
239.26        52.33297
239.71        54.97993
240.17        57.14944
240.63        58.59953
241.08         59.3973
241.54        59.53254
242.00        58.77943
242.46        56.56117
242.91        52.42795
243.37        45.41425
243.83        36.13649
244.28        30.85109
244.74        35.69611
245.20        49.47814
245.66         63.1741
246.11        69.31873
246.57        67.57979
247.03        58.79116
247.48        45.12326
247.94        40.17056
248.40        46.49626
248.85        54.87701
249.31        61.15358
249.77        64.57707
250.22        65.94593
250.68        66.44388
251.14        65.84145
251.59        63.27188
252.05        58.89494
252.51        52.97281
252.96        47.16826
253.42        44.76435
253.88         46.4265
254.33        50.84392
254.79          56.586
255.25        61.87759
255.70        66.17142
256.16        69.58817
256.62        71.84827
257.07        72.65538
257.53        72.27273
257.99        70.78825
258.44        68.23986
258.90        65.63882
259.35        63.10211
259.81        61.24014
260.27        59.69921
260.72        58.11737
261.18        56.62021
261.63        54.84865
262.09        53.38587
262.55         52.5419
263.00        52.23151
263.46        52.42268
263.91        52.36986
264.37        51.44904
264.83        49.68106
265.28        47.32049
265.74        45.29757
266.19        44.48731
266.65        44.99172
267.11        46.27705
267.56        47.60312
268.02        47.90547
268.47        46.99492
268.93        45.24615
269.38        43.10242
269.84        41.51807
270.30        40.75462
270.75        40.54239
271.21        40.56284
271.66        40.32915
272.12        39.69374
272.57        38.82295
273.03        37.90986
273.48        37.14702
273.94        36.63794
274.39        36.26392
274.85        35.92191
275.31        35.43856
275.76        34.76328
276.22         33.9825
276.67        33.20922
277.13        32.71205
277.58         32.4705
278.04        32.43263
278.49        32.34874
278.95        31.93804
279.40        31.13653
279.86        30.13167
280.31        29.10666
280.77        28.46084
281.22        28.18687
281.68        28.17662
282.13        28.21823
282.59        28.03851
283.04        27.57783
283.50        26.98483
283.95         26.3496
284.41        25.83538
284.86        25.46724
285.32        25.20025
285.77        25.03914
286.22         25.0616
286.68        25.23664
287.13        25.50928
287.59        25.73577
288.04         25.6787
288.50        25.33009
288.95        24.74426
289.41        24.10169
289.86        23.61379
290.32        23.39099
290.77        23.35699
291.22        23.46474
291.68        23.60576
292.13        23.74346
292.59        23.91995
293.04        24.15159
293.50        24.47376
293.95         24.8788
294.40         25.3346
294.86         25.7995
295.31        26.22756
295.77        26.61194
296.22        26.97233
296.68        27.33788
297.13        27.73126
297.58        28.17171
298.04        28.65468
298.49        29.18122
298.95        29.78943
299.40        30.45867
299.85        31.17043
300.31        31.86856
300.76        32.46661
301.21        32.94502
301.67        33.35019
302.12         33.6936
302.58        34.05235
303.03        34.42608
303.48        34.81384
303.94        35.24642
304.39        35.72935
304.84        36.26415
305.30        36.83586
305.75         37.3736
306.20        37.79122
306.66        38.08877
307.11         38.2739
307.57        38.40831
308.02        38.51447
308.47        38.63093
308.93        38.74281
309.38        38.86031
309.83         39.0495
310.29        39.30307
310.74        39.60191
311.19        39.84525
311.65        39.87028
312.10        39.64961
312.55        39.23881
313.00        38.78122
313.46        38.49687
313.91        38.42179
314.36        38.50955
314.82        38.64009
315.27        38.64074
315.72        38.45334
316.18        38.14426
316.63        37.79673
317.08         37.5452
317.53         37.4179
317.99        37.35951
318.44         37.3026
318.89        37.13211
319.35         36.8205
319.80        36.41043
320.25        35.96631
320.70        35.58905
321.16        35.30231
321.61        35.08062
322.06        34.87408
322.51        34.60471
322.97        34.24704
323.42        33.83802
323.87        33.41052
324.32        33.02224
324.78        32.68564
325.23        32.38879
325.68        32.10737
326.13        31.80838
326.59        31.48322
327.04        31.17073
327.49        30.87402
327.94         30.5992
328.39        30.34748
328.85         30.0884
329.30        29.88103
329.75         29.7827
330.20        29.79408
330.66        29.87626
331.11          29.943
331.56        29.79935
332.01         29.4051
332.46        28.80951
332.92        28.14696
333.37        27.66024
333.82        27.43082
334.27        27.41861
334.72        27.51307
335.17        27.51545
335.63        27.35382
336.08        27.08368
336.53        26.81796
336.98        26.75557
337.43        26.93024
337.88        27.26877
338.34        27.56217
338.79        27.52376
339.24        27.07862
339.69        26.32596
340.14        25.51954
340.59        25.08414
341.05        25.11644
341.50        25.49045
341.95        25.97318
342.40        26.20011
342.85        26.07846
343.30         25.7389
343.75        25.30391
344.20         24.9714
344.66         24.8048
345.11        24.70223
345.56        24.66825
346.01        24.71569
346.46        24.81626
346.91        24.98488
347.36        25.08327
347.81        24.88496
348.26        24.37733
348.72        23.66075
349.17         22.9328
349.62        22.60406
350.07          22.768
350.52        23.28255
350.97        23.93271
351.42        24.39471
351.87        24.56866
352.32        24.54098
352.77        24.36891
353.22        24.14799
353.67        23.92448
354.13        23.67667
354.58        23.40577
355.03        23.16159
355.48        22.95944
355.93        22.81065
356.38        22.70766
356.83        22.62212
357.28        22.53917
357.73        22.45522
358.18        22.36603
358.63        22.26792
359.08         22.1605
359.53         22.0495
359.98        21.91951
360.43        21.74716
360.88         21.5371
361.33         21.2992
361.78        21.08797
362.23        20.99276
362.68        21.01968
363.13        21.12365
363.58         21.2271
364.03        21.21219
364.48        21.04576
364.93        20.76366
365.38        20.39634
365.83         20.0018
366.28        19.62093
366.73        19.25342
367.18        18.93732
367.63         18.7265
368.08        18.62469
368.53        18.61551
368.98        18.65472
369.43        18.66587
369.88        18.62581
370.33        18.55436
370.78        18.45234
371.23        18.32949
371.68        18.19573
372.13        18.03774
372.58        17.89906
373.03        17.85724
373.48        17.91649
373.93        18.04808
374.38        18.16504
374.83        18.13092
375.28        17.92131
375.72        17.57562
376.17        17.19429
376.62        16.89957
377.07        16.73843
377.52        16.67603
377.97        16.68753
378.42        16.73315
378.87        16.78519
379.32        16.84482
379.77         16.8954
380.22        16.90836
380.67        16.87782
381.11         16.8153
381.56        16.70289
382.01        16.53555
382.46        16.32367
382.91        16.06898
383.36        15.84266
383.81        15.74775
384.26        15.79587
384.71        15.96473
385.15        16.13292
385.60        16.11381
386.05        15.87708
386.50        15.48014
386.95         15.0796
387.40        14.92492
387.85        15.05838
388.29        15.38611
388.74        15.73723
389.19        15.87178
389.64        15.74264
390.09        15.42686
390.54         15.0549
390.98        14.82852
391.43        14.81465
391.88        14.93203
392.33        15.07557
392.78        15.09684
393.23        14.97217
393.67        14.75313
394.12        14.54174
394.57        14.42248
395.02        14.41527
395.47        14.48536
395.91        14.58559
396.36        14.62034
396.81        14.56955
397.26        14.45891
397.71        14.34271
398.15        14.28753
398.60        14.32442
399.05        14.42071
399.50        14.51663
399.95        14.52857
400.39        14.43984
400.84        14.27197
401.29        14.09919
401.74        14.05651
402.18        14.17907
402.63        14.41453
403.08        14.64826
403.53        14.69842
403.97        14.53135
404.42        14.21687
404.87         13.8795
405.32        13.72373
405.76        13.79612
406.21        14.02545
406.66        14.30354
407.11        14.46126
407.55        14.45438
408.00         14.3415
408.45         14.1788
408.90        14.02745
409.34        13.93743
409.79        13.94847
410.24        14.02466
410.68        14.05568
411.13        14.03077
411.58        14.01472
412.03         14.0057
412.47        13.97799
412.92         13.9295
413.37        13.85831
413.81        13.79959
414.26        13.82141
414.71        13.92642
415.15        14.10565
415.60        14.26688
416.05        14.28251
416.49        14.12453
416.94        13.83865
417.39        13.53347
417.83        13.38512
418.28        13.43829
418.73        13.62829
419.17        13.85468
419.62        13.94831
420.07        13.87471
420.51        13.69426
420.96         13.4772
421.41        13.31472
421.85        13.23411
422.30        13.21268
422.74        13.23709
423.19        13.31483
423.64        13.42953
424.08        13.58935
424.53        13.74161
424.98        13.81371
425.42         13.7884
425.87        13.68517
426.31        13.54231
426.76        13.43294
427.21        13.36904
427.65        13.32472
428.10        13.31074
428.54        13.32083
428.99        13.35201
429.44        13.46977
429.88        13.59361
430.33        13.50182
430.77        13.24328
431.22        13.08722
431.66        13.08219
432.11        13.15563
432.56        13.29171
433.00         13.5453
433.45        13.76724
433.89        13.73547
434.34        13.53031
434.78        13.29691
435.23        13.03618
435.67        13.63098
436.12        13.17951
436.57        13.09945
437.01        12.89251
437.46        12.82216
437.90        12.90057
438.35        13.00988
438.79        13.10417
439.24        13.16969
439.68        13.18914
440.13        13.05695
440.57        12.85635
441.02         12.9287
441.46        13.15658
441.91        13.13573
442.35        12.56983
442.80        12.35137
443.24        12.35176
443.69        12.29955
444.13        12.18317
444.58        12.12428
445.02        12.12753
445.47        12.19112
445.91        12.27824
446.36        12.30208
446.80        12.24371
447.24        12.14148
447.69        12.03179
448.13        11.94313
448.58        11.89354
449.02        11.87201
449.47        11.85934
449.91        11.81906
450.36        11.75006
450.80        11.66559
451.25         11.5965
451.69        11.57477
452.13        11.60957
452.58        11.67729
453.02         11.7596
453.47        11.82633
453.91        11.86864
454.36        11.89509
454.80        11.89559
455.24        11.85567
455.69        11.78429
456.13        11.67473
456.58        11.57553
457.02        11.55152
457.46        11.60938
457.91        11.70125
458.35        11.78711
458.79        11.83087
459.24        11.81927
459.68        11.76667
460.13        11.73627
460.57        11.71052
461.01         11.6907
461.46        11.97845
461.90        12.09012
462.34         12.0001
462.79         12.1001
463.23        11.99321
463.68        11.88775
464.12        11.80293
464.56        11.85027
465.01        11.93423
465.45        12.01543
465.89         12.0465
466.34        12.02228
466.78        11.92246
467.22        11.80068
467.67        11.82689
468.11         11.9804
468.55        12.01649
468.99        11.94016
469.44        11.95579
469.88        12.06606
470.32        12.14846
470.77        12.17785
471.21        12.18047
471.65         12.1531
472.10        12.09186
472.54        12.01919
472.98        12.00186
473.42        12.04971
473.87        12.10979
474.31        12.16392
474.75         12.2537
475.20        12.34669
475.64        12.31953
476.08        12.21676
476.52        12.21599
476.97        12.32845
477.41        12.47117
477.85        12.60148
478.29         12.6877
478.74        12.71687
479.18        12.67662
479.62        12.61669
480.06        12.62085
480.50        12.68804
480.95        12.73312
481.39         12.7394
481.83        12.74309
482.27         12.7458
482.72        12.73976
483.16        12.73363
483.60        12.75694
484.04        12.80842
484.48        12.90367
484.93        13.10244
485.37        13.24268
485.81        13.33622
486.25        13.80774
486.69        13.97889
487.14        13.41773
487.58        13.50544
488.02        14.34635
488.46        13.92856
488.90        13.96468
489.34        13.77559
489.79        13.90442
490.23        14.27724
490.67        14.50978
491.11        14.55351
491.55         14.4629
491.99        14.30091
492.43        14.23303
492.88        14.29578
493.32        14.36403
493.76        14.44637
494.20        14.62154
494.64        14.88402
495.08        15.19697
495.52        15.50599
495.96        15.74221
496.41        15.88765
496.85        15.93252
497.29        15.92016
497.73        15.99852
498.17        16.16577
498.61        16.24401
499.05        16.24957
499.49        16.37238
499.93        16.62038
500.37        16.84646
500.82        17.03354
501.26        17.29625
501.70        17.58283
502.14        17.66298
502.58        17.56539
503.02        17.54103
503.46        17.61274
503.90        17.65029
504.34        17.64951
504.78        17.66217
505.22        17.69163
505.66        17.73418
506.10        17.78959
506.54        17.85121
506.98        17.91915
507.42        17.99689
507.86        18.09091
508.30        18.21136
508.74        18.35408
509.18        18.50557
509.62         18.6531
510.06        18.77854
510.50         18.8764
510.94        18.95647
511.38        19.00705
511.82        19.01049
512.26        18.97045
512.70        18.89205
513.14        18.82377
513.58        18.83856
514.02        18.94103
514.46        19.11088
514.90        19.28277
515.34        19.29398
515.78        19.14686
516.22         18.9611
516.66        18.82749
517.10        18.53912
517.54        18.12199
517.98         18.7249
518.42        18.61424
518.86        18.87517
519.30        18.97114
519.74        19.07503
520.18        19.15885
520.62        19.15615
521.06        19.08114
521.50        18.93469
521.93        18.75872
522.37        18.63232
522.81        18.57633
523.25        18.57633
523.69        18.60443
524.13        18.61345
524.57        18.58893
525.01        18.54251
525.45        18.49432
525.89        18.47532
526.32        18.48932
526.76         18.5241
527.20         18.5464
527.64        18.51009
528.08        18.40554
528.52        18.24579
528.96        18.07406
529.40        17.95455
529.83        17.90179
530.27        17.90542
530.71        17.91403
531.15        17.84646
531.59        17.69165
532.03         17.4793
532.46        17.27825
532.90        17.21045
533.34        17.28814
533.78        17.46392
534.22         17.6575
534.66        17.74719
535.09        17.69958
535.53        17.56029
535.97        17.37602
536.41        17.21855
536.85        17.11668
537.28        17.06014
537.72        17.04871
538.16        17.02884
538.60        17.07694
539.04        17.12365
539.47        17.18146
539.91        17.27299
540.35        17.40473
540.79        17.41958
541.22        17.53439
541.66        17.61428
542.10           17.74
542.54         17.6294
542.97        17.76627
543.41        17.84954
543.85        18.01141
544.29        18.19854
544.72        18.37082
545.16        18.51956
545.60        18.63172
546.04        18.65397
546.47        18.65984
546.91        18.88441
547.35        19.28506
547.79        19.60088
548.22        19.77631
548.66        19.86186
549.10        19.89166
549.53        20.01413
549.97        20.25436
550.41        20.28188
550.84        20.47898
551.28        20.63558
551.72        20.87124
552.15        21.12593
552.59        21.39028
553.03        21.66666
553.46        21.91292
553.90        22.08674
554.34        22.18112
554.77        22.21062
555.21        22.21741
555.65        22.25867
556.08        22.34782
556.52        22.46742
556.96        22.60201
557.39        22.75548
557.83        22.91052
558.27        23.01229
558.70        23.06312
559.14        23.11206
559.57        23.15632
560.01        23.19718
560.45        23.22593
560.88        23.20085
561.32        23.17428
561.75        23.20868
562.19        23.38619
562.63        23.50075
563.06        23.56745
563.50        23.65341
563.93          23.755
564.37        23.90914
564.80        24.00366
565.24        24.13342
565.68        24.24765
566.11        24.35345
566.55        24.46625
566.98        24.53534
567.42        24.56161
567.85        24.85721
568.29        24.78428
568.72        25.09676
569.16         25.5132
569.60        25.76832
570.03         25.8304
570.47        25.84654
570.90        25.74605
571.34        26.07744
571.77        26.01188
572.21        26.28585
572.64        26.66226
573.08        26.73716
573.51        26.94941
573.95        27.54647
574.38        27.41583
574.82        27.60604
575.25        27.74148
575.69        27.64086
576.12        27.58865
576.56        27.56714
576.99        27.70888
577.42        27.72927
577.86        27.85325
578.29        27.82496
578.73        28.13557
579.16        27.83911
579.60        27.68325
580.03        27.45133
580.47        27.71695
580.90        27.19257
581.33        27.14704
581.77        27.30525
582.20        27.58602
582.64        26.92146
583.07        26.62227
583.51        26.74032
583.94        26.30497
584.37        26.29012
584.81        25.99048
585.24        25.96313
585.68        25.89898
586.11        25.70491
586.54        25.63578
586.98        25.50897
587.41        25.73124
587.85        25.70107
588.28        25.50725
588.71        25.29298
589.15        25.14827
589.58        24.95476
590.01        25.20985
590.45        25.53779
590.88        25.27389
591.31        25.17864
591.75         25.0409
592.18        25.17982
592.61        24.99268
593.05        25.34007
593.48        25.18612
593.91        25.70033
594.35        25.41606
594.78        25.69061
595.21        25.88443
595.65        26.23998
596.08        26.19149
596.51        26.19859
596.94        26.20307
597.38         26.3322
597.81        26.64486
598.24        26.72505
598.68        27.36578
599.11        27.49775
599.54        28.28341
599.97        28.31748
600.41        28.58751
600.84        29.32298
601.27        29.70553
601.70        30.13286
602.14        30.33029
602.57        30.70313
603.00        31.24032
603.43        31.76644
603.87        32.18208
604.30        32.55761
604.73         32.8987
605.16        33.39334
605.60         33.7396
606.03        34.39756
606.46        35.09846
606.89        35.72883
607.32        36.27134
607.76        36.25961
608.19        36.87056
608.62        37.21161
609.05        37.33611
609.48        37.56616
609.92        37.86896
610.35        38.19189
610.78        39.06009
611.21        39.75903
611.64        39.67377
612.07        40.03592
612.50        40.42377
612.94        40.38466
613.37        40.99823
613.80        41.35468
614.23        41.76732
614.66         42.2117
615.09        42.60976
615.52        42.96371
615.96        43.18948
616.39        43.47692
616.82        43.91861
617.25        43.54206
617.68        44.16351
618.11        44.43474
618.54        44.81759
618.97        44.90834
619.40        44.66307
619.84        45.00541
620.27        44.76038
620.70        45.16862
621.13        45.75722
621.56        45.99757
621.99        45.96088
622.42        46.06423
622.85        46.37032
623.28        46.44338
623.71        46.24818
624.14        46.61372
624.57        46.21774
625.00         46.1596
625.43        46.22832
625.86        45.74521
626.29        45.77292
626.72          45.596
627.15        45.54137
627.58        45.50755
628.01        45.42846
628.44        45.35242
628.87        45.09009
629.30        44.58892
629.73        44.15601
630.16        43.83066
630.59        43.48085
631.02         43.1251
631.45        42.69419
631.88        42.28828
632.31        41.89817
632.74        41.46962
633.17        40.99683
633.60        40.49656
634.03        39.97418
634.46        39.42788
634.89        38.88022
635.32        38.36792
635.75        37.90303
636.18        37.48254
636.61        37.08692
637.04        36.68086
637.47        36.25066
637.89        35.80062
638.32          35.347
638.75        34.94457
639.18        34.60783
639.61        34.32423
640.04        34.06041
640.47        33.76141
640.90        33.41788
641.33        33.05173
641.76        32.70879
642.18        32.46543
642.61        32.33464
643.04        32.29365
643.47        32.30534
643.90        32.30743
644.33        32.28312
644.76        32.25723
645.18        32.24602
645.61         32.2778
646.04        32.36456
646.47        32.49538
646.90        32.68442
647.33        32.95594
647.75        33.30766
648.18        33.72725
648.61        34.17891
649.04        34.59395
649.47        34.96363
649.89        35.32828
650.32         35.7215
650.75        36.17478
651.18        36.73406
651.61        37.38986
652.03        38.11759
652.46        39.03157
652.89          40.041
653.32        40.52676
653.74         40.5641
654.17        41.38448
654.60        42.00986
655.03         42.9389
655.46        42.95382
655.88        44.87451
656.31        45.85875
656.74        51.82559
657.16        49.18948
657.59        45.76611
658.02        46.69576
658.45        47.74718
658.87        48.92463
659.30        49.37387
659.73        50.07341
660.15        50.93768
660.58        51.33479
661.01        51.42197
661.44        51.15899
661.86           51.47
662.29        52.31989
662.72        53.10606
663.14        53.65795
663.57         53.7888
664.00        53.64373
664.42        53.77732
664.85        54.25942
665.27        54.70798
665.70        55.04263
666.13         55.3539
666.55        55.62555
666.98        55.82715
667.41        55.98728
667.83        56.14682
668.26        56.31474
668.69        56.49537
669.11        56.67963
669.54        56.84639
669.96        56.99529
670.39        57.13738
670.82        57.30548
671.24         57.5065
671.67        57.74686
672.09        58.09792
672.52        58.47182
672.94        58.59297
673.37        58.48396
673.80         58.3806
674.22        58.35519
674.65        58.34546
675.07        58.38457
675.50        58.53817
675.92        58.75633
676.35        58.84965
676.77        58.78574
677.20        58.74837
677.62        58.62515
678.05        58.59586
678.47        58.61131
678.90        58.95256
679.32         59.0439
679.75        59.25634
680.17        59.40569
680.60        59.53797
681.02        59.65191
681.45        59.68234
681.87        59.67344
682.30        59.74991
682.72        59.89899
683.15        59.93363
683.57        59.88338
684.00        59.86378
684.42        60.01464
684.85        60.11338
685.27        60.19217
685.70        60.31274
686.12        60.46035
686.54        60.60309
686.97        60.72852
687.39        60.83482
687.82        60.90118
688.24        60.95599
688.66        61.00213
689.09        60.90392
689.51        60.92233
689.94        60.86961
690.36        60.84821
690.78        60.81606
691.21        60.78347
691.63        60.90594
692.06         61.2071
692.48        61.18197
692.90        61.36982
693.33        61.76718
693.75        61.47369
694.17        61.41761
694.60         61.3241
695.02        61.09616
695.44        60.80593
695.87        60.95338
696.29        61.42113
696.71        61.39598
697.14        61.04308
697.56        61.25194
697.98        61.83791
698.41        62.63346
698.83        62.19192
699.25        61.82749
699.68         61.8463
700.10        61.73232
700.52        61.70854
700.94        61.79099
701.37        61.92969
701.79        62.04814
702.21        62.09496
702.64        62.08886
703.06        62.07256
703.48        62.15106
703.90         62.3289
704.33        62.51266
704.75         62.6507
705.17        62.68718
705.59        62.60425
706.01         62.4054
706.44        62.19069
706.86        62.13609
707.28        62.27036
707.70        62.53465
708.12        62.83266
708.55        63.00724
708.97        63.01718
709.39        62.91752
709.81        62.76466
710.23        62.65895
710.66        62.63885
711.08        62.67799
711.50        62.74634
711.92        62.81355
712.34        62.86879
712.76         62.9292
713.19        62.98037
713.61        63.05001
714.03        63.11635
714.45        63.17225
714.87        63.23157
715.29        63.32071
715.71        63.44111
716.13        63.58489
716.56         63.7099
716.98        63.81033
717.40        63.83849
717.82         63.8472
718.24         63.8742
718.66        63.83167
719.08        63.69759
719.50        64.06775
719.92        63.87032
720.34        63.91893
720.76         63.8959
721.19        63.82933
721.61        63.73892
722.03        63.67351
722.45        63.65991
722.87        63.60313
723.29        63.53965
723.71        63.57864
724.13        63.72744
724.55         63.9321
724.97        64.15865
725.39        64.34832
725.81        64.46917
726.23        64.57294
726.65        64.68481
727.07        64.62769
727.49        64.68888
727.91        64.80495
728.33        64.75075
728.75        64.76341
729.17        64.75957
729.59        64.76212
730.01        64.76281
730.43        64.77238
730.85        64.79321
731.27         64.7659
731.69         64.7326
732.10        64.85421
732.52        65.06489
732.94        65.17784
733.36        65.15156
733.78        64.95241
734.20        64.72347
734.62        64.76158
735.04        64.97315
735.46        65.14911
735.88        65.32333
736.30        64.58451
736.72        64.96536
737.13         65.0575
737.55        65.34239
737.97         65.6166
738.39        65.77238
738.81        65.58842
739.23        65.20657
739.65        65.23075
740.06        65.52246
740.48        66.02382
740.90        65.52389
741.32        65.35188
741.74        65.24953
742.16        65.26019
742.57        65.41878
742.99        65.59436
743.41        65.72012
743.83        66.11533
744.25        66.00983
744.67        66.01623
745.08        65.93681
745.50        65.80103
745.92        65.64007
746.34        65.45945
746.75        65.30912
747.17        65.24923
747.59        65.29771
748.01        65.44688
748.42        65.65946
748.84        65.86089
749.26        66.03215
749.68        66.09534
750.09        66.08956
750.51        66.25684
750.93        66.52089
751.35        66.47308
751.76        66.15125
752.18        65.93096
752.60        65.92793
753.01        65.84562
753.43        65.73415
753.85        65.76869
754.27        65.95762
754.68        66.29261
755.10        66.65605
755.52        66.78107
755.93        66.67339
756.35        66.59437
756.77         66.6041
757.18        66.61411
757.60         66.6695
758.02        66.81249
758.43        66.95876
758.85        67.04131
759.26         67.1841
759.68        66.71563
760.10        66.72133
760.51        66.54398
760.93        66.48047
761.34        66.40342
761.76        66.23209
762.18        66.11372
762.59        66.09038
763.01        66.18654
763.42        66.43091
763.84        66.77511
764.26        67.11807
764.67        67.02443
765.09        66.66876
765.50        66.73687
765.92        67.21705
766.33        67.53268
766.75        67.48454
767.16        67.41132
767.58        66.90254
768.00        66.50459
768.41        66.32996
768.83          66.713
769.24        67.41651
769.66        68.22226
770.07        67.83835
770.49        67.80013
770.90        67.84663
771.32         67.8729
771.73        67.87307
772.15        67.90909
772.56        67.99384
772.97        67.89322
773.39        67.52013
773.80        67.85094
774.22        67.30215
774.63        67.01941
775.05        66.66251
775.46        66.59299
775.88        66.82249
776.29        67.28773
776.70        67.79224
777.12        68.00119
777.53         67.8491
777.95         67.4114
778.36        66.89875
778.77        66.67483
779.19         66.8296
779.60        67.29047
780.02         67.8137
780.43        68.15937
780.84        68.24694
781.26        67.84167
781.67        67.21049
782.09        67.65269
782.50        68.92113
782.91        68.94274
783.33        67.67375
783.74        68.16502
784.15        67.96056
784.57        68.10812
784.98        67.84536
785.39        67.83682
785.81        67.97424
786.22        67.69125
786.63        67.14907
787.04        66.96847
787.46        67.19323
787.87        67.50335
788.28        67.80479
788.70        68.05534
789.11        68.20683
789.52        68.26711
789.93        68.29278
790.35        68.39345
790.76        68.56491
791.17        68.69505
791.58        68.76179
792.00        68.67969
792.41        68.44325
792.82        68.37812
793.23        68.40807
793.65        67.78073
794.06        66.90024
794.47        67.20243
794.88        68.33739
795.29         69.4101
795.71        68.94213
796.12        68.20673
796.53        68.57836
796.94        68.06834
797.35        67.39363
797.76        67.42828
798.18        68.07901
798.59        68.41561
799.00        68.34229
799.41        68.32687
799.82        68.48277
800.23        68.58498
800.64        68.67872
801.06         68.4871
801.47        68.57422
801.88        68.60889
802.29        68.73968
802.70         68.9064
803.11        69.04206
803.52        69.03204
803.93        68.86533
804.34        68.61194
804.75          68.308
805.17        68.09238
805.58        68.04417
805.99        67.84007
806.40        67.60343
806.81        68.25378
807.22         69.4632
807.63        69.53407
808.04        68.62905
808.45        68.48165
808.86        69.19253
809.27        69.75219
809.68         69.9968
810.09        70.14458
810.50        70.14584
810.91        69.94785
811.32        69.63158
811.73        69.32217
812.14        69.06565
812.55        68.86702
812.96         68.7352
813.37        68.62121
813.78         68.5445
814.19        68.62551
814.60        68.78862
815.01        68.82475
815.42        68.70593
815.83        68.49582
816.24          68.284
816.65        68.22256
817.05        68.36168
817.46        68.61354
817.87        68.87477
818.28        68.93953
818.69        68.77827
819.10        68.46828
819.51        68.13482
819.92         68.0487
820.33        68.29125
820.74        68.62282
821.14        68.99885
821.55        69.65407
821.96         70.3821
822.37        70.44748
822.78        69.92614
823.19        69.63434
823.60        69.65289
824.00        69.53802
824.41        69.25298
824.82        69.06776
825.23         69.0081
825.64        69.02509
826.04        69.11573
826.45        69.21715
826.86        69.31674
827.27        69.42804
827.68        69.52712
828.08        69.59317
828.49        69.57133
828.90        69.49013
829.31        69.38486
829.72        69.32549
830.12        69.35221
830.53        69.41379
830.94        69.49361
831.35         69.5353
831.75        69.54494
832.16        69.49844
832.57        69.43786
832.97        69.40901
833.38         69.4061
833.79        69.41322
834.20         69.4127
834.60        69.36956
835.01        69.29646
835.42        69.22153
835.82        69.14806
836.23        69.02886
836.64        68.88438
837.04        68.71134
837.45        68.59148
837.86        68.70116
838.26        69.07006
838.67        69.61855
839.08         70.1403
839.48        70.24677
839.89        69.85745
840.29        69.13131
840.70        68.38887
841.11        68.03107
841.51        68.16904
841.92        68.62985
842.33        69.30416
842.73        69.99733
843.14        70.51296
843.54        70.95415
843.95        71.19244
844.35        71.10083
844.76        70.69352
845.17        70.03234
845.57         69.3216
845.98        68.90457
846.38        68.86404
846.79        69.11214
847.19        69.57983
847.60        69.99564
848.00        70.30523
848.41        70.51193
848.81        70.66898
849.22        70.77632
849.62        70.88615
850.03        70.93959
850.43        70.96124
850.84        70.92433
851.24        70.87554
851.65        70.76364
852.05        70.68904
852.46        70.69418
852.86        70.79179
853.27        70.99651
853.67        71.13748
854.07        71.08208
854.48        70.78671
854.88        70.31766
855.29        69.80656
855.69        69.62947
856.10        69.80082
856.50        70.30849
856.90        70.90575
857.31        71.17724
857.71        71.07642
858.12        70.66742
858.52        70.19171
858.92        69.91165
859.33        69.89371
859.73        70.08644
860.13        70.39612
860.54        70.66219
860.94        70.85832
861.34        70.99046
861.75        71.02008
862.15        70.97968
862.55        70.84824
862.96        70.64764
863.36        70.40443
863.76        70.15298
864.17        69.91794
864.57        69.72139
864.97        69.64253
865.38        69.77709
865.78        70.17017
866.18        70.71468
866.58        71.21508
866.99        71.33319
867.39        71.01442
867.79        70.33747
868.19        69.40501
868.60        68.36827
869.00        67.28862
869.40         66.1974
869.80        65.32094
870.21        65.01544
870.61        65.39243
871.01        66.29894
871.41         67.3736
871.81        68.02345
872.22        68.11934
872.62        67.83171
873.02        67.32001
873.42        67.09844
873.82        67.07994
874.22        66.56099
874.63        65.86874
875.03        65.77306
875.43        66.38079
875.83        68.54876
876.23        68.82958
876.63        68.44589
877.03        66.77097
877.44        63.96954
877.84        133.7747
878.24        63.58628
878.64        65.11536
879.04        69.60744
879.44        66.15885
879.84        64.26448
880.24        69.06122
880.64        69.28383
881.04        66.11061
881.44        64.15685
881.84        64.15082
882.24        65.32645
882.65        66.96854
883.05        67.66747
883.45        66.99544
883.85        65.74658
884.25        64.55143
884.65        64.03143
885.05        64.37177
885.45        65.33141
885.85        66.48529
886.25         67.1497
886.65        67.11744
887.05        66.61632
887.45        65.97572
887.85         65.6808
888.25         65.8636
888.65        66.36494
889.04        66.99787
889.44        67.37871
889.84        67.41972
890.24        67.24103
890.64        66.99135
891.04        66.88941
891.44        66.96317
891.84        67.08393
892.24         67.1586
892.64        67.03778
893.04        66.70907
893.44        66.33038
893.83        65.84828
894.23        65.19612
894.63        64.39473
895.03          63.431
895.43        62.68509
895.83        62.79271
896.23        63.82801
896.63         65.6006
897.02        67.40157
897.42        67.95956
897.82        67.01463
898.22        65.00623
898.62        62.75514
899.01        61.52515
899.41        61.64631
899.81        62.66566
900.21        64.14567
900.61        65.42714
901.00        66.25544
901.40        66.80921
901.80        67.08379
902.20        67.03761
902.59        66.71616
902.99        66.10082
903.39        65.32692
903.79        64.66437
904.18        64.21618
904.58        63.99708
904.98        64.03644
905.38        64.35098
905.77        64.88948
906.17        65.62305
906.57        66.34661
906.96        66.76788
907.36        66.76428
907.76        66.38409
908.15        65.82625
908.55        65.37405
908.95        65.14341
909.34        65.12384
909.74        65.11844
910.14        64.76759
910.53        64.02003
910.93        63.05898
911.33        62.33118
911.72         62.5386
912.12        63.71967
912.52        65.53696
912.91        67.38009
913.31        68.23663
913.70         67.9238
914.10         66.7197
914.49        65.00442
914.89        63.66589
915.29        63.08244
915.68        63.04357
916.08        63.42878
916.47        64.04267
916.87        64.73328
917.26        65.53651
917.66        66.30771
918.05        66.82817
918.45        67.00655
918.84        66.92445
919.24        66.52171
919.64        65.74953
920.03        64.69836
920.42        63.45037
920.82        62.46171
921.21        62.37548
921.61        63.22419
922.00        64.83687
922.40        66.56007
922.79        67.54632
923.19        67.55071
923.58        66.57711
923.98        64.93386
924.37        64.00062
924.77        64.34629
925.16        61.87021
925.55        63.44498
925.95          63.375
926.34        63.68739
926.74        64.17821
927.13        64.86246
927.52        65.53271
927.92        66.08032
928.31        66.61001
928.70        66.93739
929.10        66.81004
929.49         66.2076
929.89        65.20609
930.28        64.22392
930.67         63.9301
931.07        64.43195
931.46        65.59738
931.85        66.88959
932.24        67.49444
932.64        67.21141
933.03        66.16014
933.42        64.80304
933.82        64.09069
934.21        64.27135
934.60        65.06467
934.99        65.72829
935.39        65.56861
935.78        64.50463
936.17        62.14524
936.56        58.88703
936.96        59.89872
937.35        59.36945
937.74        61.74379
938.13        64.16328
938.53        65.70981
938.92        66.26188
939.31         66.1588
939.70        65.70462
940.09        65.30429
940.49        65.17471
940.88        65.19682
941.27        65.33834
941.66        65.60609
942.05        65.95618
942.44        66.37033
942.84        66.84391
943.23        67.34801
943.62          67.827
944.01        68.32568
944.40         68.5721
944.79        68.14701
945.18        67.00172
945.57        65.19742
945.97        63.43658
946.36         62.9348
946.75        64.01318
947.14          66.215
947.53        68.48765
947.92        69.38811
948.31        68.68096
948.70        66.82241
949.09        64.55795
949.48         63.2011
949.87        63.17648
950.26        64.07793
950.65        65.39927
951.04        66.29783
951.43        66.47616
951.82        66.21497
952.21        65.72627
952.60        65.31686
952.99        65.10921
953.38        64.97608
953.77        64.86684
954.16        64.74672
954.55        64.59998
954.94         64.4659
955.33        64.40094
955.72        64.46116
956.11        64.66177
956.50         64.9995
956.89        65.34165
957.28        65.45536
957.66        65.29807
958.05        64.86372
958.44        64.40715
958.83        64.26827
959.22        64.48923
959.61        64.99755
960.00        65.45705
960.39        65.27388
960.78        64.32992
961.16        62.80635
961.55         61.2842
961.94        60.52228
962.33        60.68239
962.72        61.55468
963.11        62.62866
963.49        63.03102
963.88         62.4581
964.27        61.23795
964.66        59.89593
965.04        59.28957
965.43        59.64246
965.82        60.66883
966.21        61.98497
966.60        62.97696
966.98        63.44349
967.37        63.53936
967.76        63.44657
968.15        63.43604
968.53        63.60049
968.92        63.73648
969.31        63.77957
969.69        63.64708
970.08        63.26902
970.47        62.77097
970.86        62.13654
971.24        61.27308
971.63        60.27399
972.02        59.20235
972.40        58.28332
972.79        57.92521
973.17        58.23556
973.56        59.00562
973.95        60.05263
974.33        61.03477
974.72        61.66137
975.11        61.99183
975.49        61.92642
975.88         61.3224
976.26        60.24001
976.65        58.81009
977.04        57.26792
977.42        56.04107
977.81        55.32225
978.19        55.00502
978.58         55.1785
978.96        55.94615
979.35        57.18349
979.74         58.9305
980.12        60.69134
980.51        61.34331
980.89        60.77629
981.28        59.25215
981.66        57.63171
982.05        57.13652
982.43        57.95567
982.82        59.70158
983.20        61.79136
983.59        62.86861
983.97        62.60367
984.35        61.32975
984.74        59.68676
985.12        58.58159
985.51        58.27703
985.89        58.42393
986.28        58.75113
986.66         58.8037
987.04        58.37377
987.43        57.81436
987.81        57.00801
988.20        55.64949
988.58        53.60497
988.96        50.64537
989.35        47.46968
989.73        46.19563
990.12        47.77291
990.50        51.46523
990.88        55.30832
991.27        57.14041
991.65        56.92657
992.03        55.24206
992.42        53.14718
992.80        52.69442
993.18        54.50697
993.56        57.57944
993.95        60.87169
994.33        63.42138
994.71        64.76756
995.10        65.31516
995.48        65.09852
995.86        64.00923
996.24         62.1314
996.63        59.41461
997.01        56.26032
997.39        54.06901
997.77        53.53997
998.15        54.33831
998.54         55.7851
998.92        57.05942
999.30         57.9958
999.68        58.93081
1000.06        59.46048
1000.45        58.57562
1000.83         56.3243
1001.21        53.29121
1001.59        50.77707
1001.97        49.76091
1002.35        50.07766
1002.73        51.51565
1003.12        53.37431
1003.50        53.99898
1003.88        52.64796
1004.26        49.90723
1004.64         46.8692
1005.02        45.01835
1005.40        44.73598
1005.78        45.63464
1006.16        47.36249
1006.54        49.06174
1006.92        50.10192
1007.30        50.53072
1007.69        50.50137
1008.07        50.40517
1008.45         50.2187
1008.83        49.95126
1009.21        48.90101
1009.59        45.54636
1009.97        39.61242
1010.35        32.20714
1010.73        27.04407
1011.11        27.83878
1011.49        34.02741
1011.86        43.87865
1012.24        52.98197
1012.62        56.94674
1013.00        55.42496
1013.38        50.10672
1013.76        43.24097
1014.14        38.76131
1014.52        37.98505
1014.90         39.7859
1015.28        42.59784
1015.66        43.77505
1016.04        42.37215
1016.41        39.11242
1016.79        35.11507
1017.17        32.91183
1017.55        33.54104
1017.93        35.75909
1018.31        38.13555
1018.69        39.49211
1019.06        39.64263
1019.44        38.67348
1019.82        36.92842
1020.20        35.16221
1020.58        33.80946
1020.95        32.88908
1021.33        31.34297
1021.71         26.5407
1022.09         16.3301
1022.46       -4.399759
1022.84       -36.83245
1023.22       -50.36203
1023.60       -24.74013
1023.97        7.226139
1024.35        26.12037
1024.73        32.91365
