SpectraSmart Spectrum 2.9.0.0
--------- Device Information -----------
Spectrum Name :  反射率_0
Saving Time :  2024/04/20 00:52:53
Spectro-Module Model Name : SE2030-DUVN
Spectro-Module Serial Number : OS361AC55029948
Wavelength Start : 200
Wavelength End : 1025
Wavelength Unit : Wavelength(nm)
Spectrum Unit : Reflectance(%)
-----------Spectrum Setting ------------
Integration Time : 30ms
Average : 10
Boxcar : 0
Background removal :  enabled
linearity correction :  enabled
SC :  disabled
Intensity correction :  disabled
DWT denoise :  enabled
savitzky-golay :  disabled
FFT :  disabled
Running average :  disabled
Kalman :  disabled
High pass :  disabled
---------------BEGIN--------------------
Wavelength(nm)             Reflectance(%)
200.29               0
200.75        64.73302
201.21        65.10355
201.67        67.98221
202.13        74.11721
202.58        83.53716
203.04        96.46054
203.50        108.9515
203.96        111.3878
204.42        103.5503
204.88        91.80936
205.34        81.27715
205.80        73.95338
206.26        68.54481
206.72        63.04712
207.18        57.53007
207.64        55.53145
208.10        60.10006
208.55        70.00071
209.01          78.856
209.47        82.12519
209.93        80.45149
210.39        75.54453
210.85        70.04469
211.31        66.82846
211.77        66.21107
212.23        67.58934
212.69         69.8372
213.14        69.62441
213.60        65.99586
214.06        62.03864
214.52        59.66372
214.98        59.80362
215.44        62.08064
215.90         65.8148
216.36        70.55672
216.81        74.65676
217.27        76.77512
217.73         77.4785
218.19        76.52661
218.65        73.53112
219.11        68.63194
219.57        61.59466
220.02        54.02359
220.48        50.77108
220.94        53.32204
221.40        60.91727
221.86        70.21168
222.32        75.89606
222.77        76.64745
223.23        74.20379
223.69        70.83307
224.15        69.86399
224.61        71.54662
225.06         74.1442
225.52        76.56873
225.98        78.02165
226.44        78.46134
226.90        78.34664
227.36        77.73428
227.81        76.53707
228.27        75.22044
228.73         73.8168
229.19        72.59917
229.65        71.87231
230.10        71.56252
230.56        71.62204
231.02        71.89876
231.48        72.27379
231.93        72.62389
232.39        73.01221
232.85        73.22811
233.31         73.0125
233.77        72.33056
234.22        71.23378
234.68        69.98379
235.14        68.98893
235.60         68.4117
236.05        68.20142
236.51        68.17449
236.97        67.98346
237.43        67.51434
237.88        66.96052
238.34        66.26266
238.80        66.08717
239.26        66.71983
239.71        67.91901
240.17        69.14555
240.63        70.14266
241.08         70.8569
241.54        71.30025
242.00        71.11105
242.46        69.41285
242.91        65.69001
243.37        58.98459
243.83        49.64545
244.28        43.30202
244.74          45.885
245.20        56.86129
245.66        68.74522
246.11        75.09015
246.57        75.58634
247.03        71.30007
247.48        63.68884
247.94        61.26248
248.40        65.43649
248.85        70.61798
249.31        74.34273
249.77        76.11759
250.22        76.41087
250.68        75.80656
251.14        74.54662
251.59        73.04077
252.05        71.77707
252.51        70.85963
252.96        69.73945
253.42        67.76195
253.88        65.21069
254.33        62.73713
254.79        62.05713
255.25        64.44506
255.70        69.20444
256.16        74.94431
256.62         79.8264
257.07        81.84997
257.53        81.15833
257.99        78.58712
258.44        74.76414
258.90        71.43484
259.35        68.75186
259.81        67.02374
260.27        65.66743
260.72        64.16116
261.18        62.68458
261.63        60.95295
262.09        59.63831
262.55        59.11657
263.00        59.25498
263.46        59.93987
263.91        60.35838
264.37        59.88477
264.83        58.51006
265.28        56.49369
265.74        54.72395
266.19        53.96356
266.65        54.35783
267.11        55.42268
267.56        56.54237
268.02        56.84919
268.47        56.17138
268.93        54.82707
269.38        53.15681
269.84        51.92457
270.30          51.332
270.75         51.1711
271.21        51.17773
271.66        50.94014
272.12        50.34796
272.57        49.52363
273.03        48.69107
273.48        48.08517
273.94        47.80126
274.39        47.68475
274.85        47.55563
275.31        47.10284
275.76        46.25703
276.22        45.16996
276.67        44.02869
277.13        43.24147
277.58        42.81293
278.04         42.6677
278.49        42.51099
278.95        42.02592
279.40        41.11976
279.86        40.01294
280.31        38.88082
280.77        38.13717
281.22        37.76559
281.68        37.66621
282.13        37.61178
282.59         37.3363
283.04         36.7679
283.50        36.05339
283.95         35.2935
284.41        34.68773
284.86        34.25075
285.32         33.9403
285.77        33.69693
286.22        33.51381
286.68        33.36705
287.13        33.23543
287.59        33.08112
288.04        32.79779
288.50        32.39856
288.95        31.88078
289.41        31.33857
289.86        30.83878
290.32        30.46234
290.77        30.18337
291.22        30.01177
291.68        29.92298
292.13         29.9022
292.59        29.96388
293.04         30.1165
293.50        30.39466
293.95        30.77538
294.40         31.2254
294.86        31.67501
295.31        32.02835
295.77        32.27104
296.22        32.44121
296.68        32.59011
297.13        32.78132
297.58        33.05481
298.04        33.40034
298.49        33.83509
298.95        34.42206
299.40        35.13159
299.85        35.92891
300.31        36.71809
300.76        37.34496
301.21        37.77851
301.67        38.09353
302.12        38.31601
302.58        38.55593
303.03        38.82618
303.48        39.11892
303.94        39.49395
304.39        39.99908
304.84         40.6319
305.30        41.35489
305.75        42.03769
306.20        42.50406
306.66        42.73911
307.11        42.78488
307.57        42.74265
308.02        42.69061
308.47        42.69203
308.93        42.71459
309.38        42.78505
309.83        42.99884
310.29        43.34302
310.74        43.78787
311.19        44.17531
311.65        44.24762
312.10        43.96116
312.55        43.40384
313.00        42.78221
313.46        42.41842
313.91        42.37233
314.36        42.56184
314.82        42.83096
315.27        42.94717
315.72        42.82746
316.18        42.56161
316.63         42.2276
317.08        41.95272
317.53         41.7748
317.99        41.64228
318.44          41.526
318.89        41.37499
319.35        41.17491
319.80        40.94996
320.25        40.72614
320.70        40.54012
321.16        40.39271
321.61         40.2725
322.06        40.14017
322.51        39.93962
322.97        39.65208
323.42        39.30489
323.87        38.93073
324.32        38.59101
324.78        38.29962
325.23        38.05487
325.68         37.8287
326.13         37.5786
326.59        37.29567
327.04        37.02422
327.49        36.78404
327.94        36.61002
328.39        36.51009
328.85        36.44578
329.30        36.45259
329.75        36.53266
330.20        36.66788
330.66        36.82517
331.11        36.95459
331.56        36.92064
332.01        36.69695
332.46        36.31411
332.92        35.85822
333.37        35.50113
333.82        35.30035
334.27        35.23774
334.72        35.25206
335.17         35.2285
335.63        35.12113
336.08        34.97243
336.53        34.85144
336.98        34.88517
337.43        35.09103
337.88        35.42248
338.34        35.71439
338.79        35.75282
339.24        35.47623
339.69        34.95154
340.14        34.39003
340.59        34.14648
341.05        34.29275
341.50        34.72463
341.95        35.21806
342.40        35.42537
342.85        35.26753
343.30        34.86849
343.75        34.38325
344.20        34.06319
344.66        33.98018
345.11         34.0229
345.56        34.14082
346.01        34.25388
346.46        34.31661
346.91        34.37302
347.36        34.34937
347.81        34.11955
348.26         33.6913
348.72        33.12928
349.17        32.57718
349.62        32.35247
350.07        32.52107
350.52        32.97262
350.97        33.53011
351.42        33.92535
351.87        34.07605
352.32        34.05121
352.77         33.8956
353.22        33.68742
353.67        33.46635
354.13        33.21912
354.58        32.95146
355.03        32.72079
355.48        32.54484
355.93          32.435
356.38        32.37008
356.83        32.30218
357.28         32.2139
357.73        32.10286
358.18        31.99282
358.63        31.92776
359.08        31.90767
359.53        31.91272
359.98        31.87559
360.43        31.69558
360.88        31.36328
361.33        30.91938
361.78        30.45852
362.23        30.13632
362.68        29.98927
363.13        29.96231
363.58        29.97791
364.03        29.91327
364.48        29.72826
364.93        29.46003
365.38        29.12574
365.83        28.75944
366.28        28.38816
366.73        28.00489
367.18        27.64716
367.63        27.37344
368.08        27.19259
368.53        27.09592
368.98        27.03339
369.43        26.91851
369.88        26.73187
370.33        26.49669
370.78        26.25543
371.23        26.08542
371.68        26.00817
372.13        25.99271
372.58        26.01022
373.03        26.01543
373.48        25.98506
373.93         25.9277
374.38        25.83563
374.83        25.69589
375.28         25.5087
375.72        25.26777
376.17        25.01425
376.62        24.77484
377.07        24.56997
377.52        24.40413
377.97        24.27791
378.42         24.1881
378.87        24.12634
379.32        24.08125
379.77        24.05529
380.22        24.05054
380.67        24.05984
381.11        24.08718
381.56        24.07138
382.01        23.93503
382.46         23.6705
382.91        23.29956
383.36        22.93413
383.81         22.7425
384.26        22.75329
384.71        22.92517
385.15        23.11018
385.60        23.08529
386.05        22.80852
386.50        22.35136
386.95        21.88814
387.40        21.69409
387.85        21.81759
388.29        22.15085
388.74        22.51232
389.19         22.6351
389.64        22.46638
390.09         22.0885
390.54        21.65163
390.98        21.38611
391.43         21.3701
391.88         21.5148
392.33        21.68765
392.78        21.70016
393.23        21.52719
393.67        21.23192
394.12        20.96423
394.57        20.85669
395.02        20.93591
395.47        21.14835
395.91        21.40602
396.36         21.5321
396.81        21.48426
397.26        21.31121
397.71        21.10552
398.15        20.98844
398.60        21.01223
399.05         21.1211
399.50        21.23689
399.95        21.24967
400.39        21.13699
400.84        20.93127
401.29         20.7144
401.74        20.63316
402.18        20.72935
402.63        20.94588
403.08        21.16893
403.53        21.21721
403.97        21.05488
404.42        20.75283
404.87        20.43084
405.32         20.2855
405.76        20.36099
406.21        20.59003
406.66        20.86558
407.11        21.02108
407.55        21.01367
408.00        20.90029
408.45        20.74261
408.90        20.59328
409.34        20.50845
409.79        20.56437
410.24        20.69705
410.68        20.72397
411.13        20.63273
411.58        20.51933
412.03        20.42533
412.47        20.39039
412.92         20.4261
413.37        20.50877
413.81        20.62264
414.26        20.76095
414.71         20.9048
415.15         21.0634
415.60        21.17491
416.05        21.16992
416.49        21.03652
416.94        20.80077
417.39        20.54165
417.83        20.38732
418.28        20.37712
418.73        20.47222
419.17        20.60553
419.62        20.65978
420.07        20.61032
420.51        20.49307
420.96        20.36506
421.41        20.29222
421.85        20.28521
422.30        20.33183
422.74        20.39731
423.19        20.46568
423.64        20.51969
424.08        20.57808
424.53        20.62168
424.98        20.64947
425.42        20.66718
425.87        20.67638
426.31        20.67697
426.76        20.68037
427.21        20.67832
427.65        20.65765
428.10         20.6517
428.54          20.687
428.99        20.76906
429.44        20.97804
429.88        21.18758
430.33        21.06155
430.77        20.67338
431.22        20.45065
431.66        20.45316
432.11        20.53379
432.56        20.66205
433.00        20.93111
433.45        21.15222
433.89        21.03809
434.34        20.73224
434.78        20.50075
435.23        20.28225
435.67        21.23795
436.12        20.45435
436.57        20.47316
437.01        20.47803
437.46        20.52823
437.90        20.62076
438.35        20.76555
438.79        20.90389
439.24        20.94712
439.68        20.88415
440.13        20.57733
440.57        20.19852
441.02        20.34401
441.46        20.83857
441.91        21.01489
442.35          20.335
442.80        20.15565
443.24        20.26687
443.69        20.23787
444.13        20.06756
444.58        19.98194
445.02        20.00196
445.47        20.11577
445.91         20.2629
446.36        20.30028
446.80        20.20118
447.24        20.03736
447.69        19.87381
448.13        19.76646
448.58        19.74352
449.02        19.78175
449.47        19.84344
449.91        19.85962
450.36        19.82067
450.80        19.74781
451.25        19.68236
451.69        19.66649
452.13        19.71544
452.58        19.80138
453.02        19.90328
453.47        19.99561
453.91        20.06662
454.36        20.12146
454.80        20.14675
455.24        20.11786
455.69        20.04435
456.13        19.91794
456.58        19.79021
457.02        19.72698
457.46        19.73755
457.91        19.75715
458.35         19.7695
458.79        19.80044
459.24        19.83728
459.68        19.88012
460.13         19.9686
460.57        19.97437
461.01        19.87524
461.46        20.22317
461.90        20.25452
462.34        20.03299
462.79        20.23376
463.23        20.16329
463.68        20.12071
464.12        20.06194
464.56        20.14913
465.01        20.25308
465.45        20.33418
465.89        20.35369
466.34         20.3131
466.78         20.1586
467.22        19.97713
467.67        20.05166
468.11         20.3436
468.55        20.44312
468.99        20.34186
469.44        20.36103
469.88        20.50272
470.32        20.56702
470.77        20.54497
471.21        20.52977
471.65        20.52765
472.10        20.51124
472.54        20.49011
472.98        20.52186
473.42        20.60703
473.87          20.674
474.31        20.70737
474.75        20.80886
475.20        20.93235
475.64        20.85983
476.08        20.66416
476.52        20.63999
476.97        20.80597
477.41        21.02645
477.85        21.23108
478.29        21.36697
478.74        21.41167
479.18        21.34282
479.62        21.24693
480.06        21.26658
480.50        21.40114
480.95        21.51213
481.39        21.55807
481.83         21.5773
482.27        21.56687
482.72        21.51573
483.16        21.46434
483.60        21.47706
484.04         21.5558
484.48        21.74293
484.93        22.06233
485.37        22.13122
485.81        22.15654
486.25        22.60246
486.69        23.38629
487.14        22.72891
487.58        21.91255
488.02        23.14218
488.46        22.55905
488.90        22.96424
489.34        22.91702
489.79        23.03858
490.23        23.27382
490.67        23.40973
491.11        23.47613
491.55        23.48023
491.99        23.45448
492.43        23.46321
492.88         23.5256
493.32        23.60203
493.76        23.70083
494.20        23.85245
494.64        24.05597
495.08         24.3008
495.52        24.55441
495.96        24.76904
496.41        24.94105
496.85        25.06783
497.29        25.16726
497.73        25.34585
498.17        25.57968
498.61        25.65739
499.05        25.60852
499.49        25.70866
499.93        25.97064
500.37        26.15736
500.82        26.26485
501.26        26.52001
501.70        26.85437
502.14        26.89575
502.58        26.69967
503.02        26.66779
503.46        26.82972
503.90        26.97792
504.34        27.06807
504.78        27.12021
505.22        27.12347
505.66        27.08144
506.10        27.03277
506.54        27.03498
506.98        27.10456
507.42        27.22882
507.86        27.37808
508.30        27.50259
508.74        27.58525
509.18        27.63475
509.62        27.67628
510.06        27.74912
510.50         27.8628
510.94        28.00971
511.38        28.14581
511.82        28.20147
512.26        28.16543
512.70         28.0575
513.14        27.95422
513.58        27.97171
514.02        28.12313
514.46        28.37296
514.90        28.62691
515.34        28.66654
515.78        28.50955
516.22        28.26087
516.66        28.04123
517.10        27.71566
517.54         27.3239
517.98        27.87199
518.42        27.80925
518.86        28.07992
519.30        28.19929
519.74        28.32607
520.18        28.43524
520.62        28.46567
521.06        28.42995
521.50         28.3283
521.93        28.19395
522.37        28.09412
522.81        28.04712
523.25        28.03836
523.69        28.05625
524.13        28.07949
524.57        28.09617
525.01        28.11019
525.45         28.1123
525.89         28.0863
526.32        28.02923
526.76         27.9477
527.20         27.8478
527.64        27.74567
528.08        27.64811
528.52        27.55048
528.96        27.46556
529.40        27.40946
529.83        27.38232
530.27        27.38927
530.71        27.39574
531.15        27.34917
531.59        27.24378
532.03        27.09507
532.46        26.95297
532.90        26.91668
533.34        26.99175
533.78        27.14126
534.22        27.29836
534.66        27.36068
535.09        27.30082
535.53        27.16314
535.97        26.98932
536.41        26.84216
536.85        26.74745
537.28        26.70178
537.72        26.71097
538.16        26.70097
538.60        26.79493
539.04        26.87867
539.47        26.96371
539.91        27.07877
540.35        27.23434
540.79        27.18851
541.22        27.30038
541.66        27.39039
542.10        27.58788
542.54        27.44608
542.97        27.68566
543.41        27.78539
543.85         27.9415
544.29        28.08484
544.72        28.19343
545.16        28.31509
545.60        28.44033
546.04        28.46966
546.47        28.47432
546.91        28.74515
547.35        29.20588
547.79        29.48941
548.22        29.55856
548.66         29.5559
549.10        29.54231
549.53         29.7124
549.97          30.076
550.41        30.10434
550.84        30.34929
551.28        30.50939
551.72        30.76034
552.15        31.00587
552.59         31.2378
553.03        31.48107
553.46        31.69798
553.90        31.82291
554.34        31.84096
554.77        31.93947
555.21        31.86477
555.65        31.93203
556.08        32.06202
556.52        32.24041
556.96         32.4231
557.39        32.58654
557.83        32.70822
558.27         32.7171
558.70        32.65826
559.14        32.66996
559.57         32.7579
560.01        32.89971
560.45        33.04021
560.88        33.04752
561.32        32.97694
561.75         32.9572
562.19        33.12631
562.63         33.1926
563.06        33.20835
563.50        33.32915
563.93        33.52392
564.37        33.75214
564.80        33.83511
565.24        33.92932
565.68        33.98341
566.11        34.04588
566.55        34.14704
566.98        34.19794
567.42        34.19331
567.85        34.56151
568.29        34.41009
568.72        34.80669
569.16        35.37324
569.60        35.67924
570.03        35.68678
570.47        35.78817
570.90        35.83041
571.34        36.13479
571.77        35.71896
572.21        36.16042
572.64        36.42683
573.08         36.4614
573.51        36.76163
573.95           36.98
574.38        37.40588
574.82        37.62778
575.25         37.7467
575.69        37.49496
576.12        37.34443
576.56        37.20445
576.99        37.24373
577.42        37.51493
577.86        37.53178
578.29        37.50944
578.73        37.98318
579.16        37.62527
579.60        37.50631
580.03        37.29657
580.47          37.283
580.90        37.15088
581.33        37.07009
581.77        36.86193
582.20         37.6706
582.64        37.24125
583.07        36.70197
583.51        36.57541
583.94        36.18866
584.37        36.30041
584.81        35.94563
585.24        35.98494
585.68        36.13237
586.11        35.92834
586.54        35.79456
586.98        35.57223
587.41        35.68841
587.85        35.71233
588.28         35.6758
588.71        35.50003
589.15        35.25214
589.58         34.9945
590.01        35.08587
590.45        35.45071
590.88        35.53171
591.31        35.43999
591.75        35.00531
592.18        35.14059
592.61        35.11419
593.05        35.41672
593.48        35.33819
593.91        36.38993
594.35         35.6345
594.78        35.71177
595.21        36.10162
595.65        36.66455
596.08        36.71346
596.51        36.71454
596.94        36.60091
597.38        36.57509
597.81        36.74711
598.24        36.99909
598.68        37.67097
599.11        37.77437
599.54        38.68544
599.97        38.49689
600.41        38.69256
600.84         39.1339
601.27        39.56009
601.70        39.89852
602.14        40.14375
602.57        40.52691
603.00        41.04486
603.43        41.62049
603.87          41.721
604.30        42.25588
604.73         42.5886
605.16        43.02424
605.60         43.1072
606.03        43.70953
606.46        44.53637
606.89         45.0277
607.32        45.13461
607.76        45.21456
608.19        45.78255
608.62         46.1017
609.05        46.26741
609.48        46.51405
609.92        46.91114
610.35        46.76212
610.78        47.69807
611.21        48.36653
611.64        48.11673
612.07        48.36638
612.50        48.71534
612.94        48.71154
613.37         49.1858
613.80        49.47748
614.23        49.83451
614.66        50.22478
615.09        50.60522
615.52        50.96619
615.96        51.21611
616.39        51.47838
616.82        51.81539
617.25        51.46955
617.68        51.68387
618.11        52.05834
618.54        52.76862
618.97        52.77457
619.40        52.13404
619.84        52.26115
620.27        52.00769
620.70          52.545
621.13        53.30516
621.56        53.53476
621.99        53.33793
622.42        53.39931
622.85        53.79068
623.28        53.94121
623.71        53.84098
624.14        54.12923
624.57        53.70899
625.00        53.92038
625.43        54.05756
625.86        53.24709
626.29        53.34217
626.72        53.37719
627.15        53.11911
627.58        53.08701
628.01        52.95205
628.44        53.01967
628.87        52.96093
629.30        52.14667
629.73        52.14012
630.16        51.82535
630.59        51.79044
631.02        51.54119
631.45        51.13037
631.88        50.78758
632.31        50.49913
632.74          50.122
633.17        49.66451
633.60        49.22924
634.03         48.8272
634.46        48.43593
634.89        48.04574
635.32        47.60634
635.75        47.11306
636.18        46.65411
636.61        46.26865
637.04        45.69949
637.47        45.44845
637.89        45.10573
638.32        44.81012
638.75         44.5623
639.18        44.35994
639.61        44.19793
640.04        44.02356
640.47        43.76449
640.90        43.41195
641.33        42.99315
641.76        42.58607
642.18         42.3235
642.61        42.23004
643.04        42.26844
643.47         42.3757
643.90        42.44361
644.33        42.44049
644.76        42.40517
645.18        42.36098
645.61        42.34683
646.04        42.38067
646.47        42.44238
646.90        42.55727
647.33        42.77133
647.75        43.08607
648.18        43.48457
648.61        43.90453
649.04        44.24564
649.47        44.49475
649.89        44.66565
650.32        44.83008
650.75        45.17564
651.18        45.72518
651.61        46.23083
652.03        46.67608
652.46        47.44315
652.89        48.41199
653.32        48.69098
653.74        48.41214
654.17        49.14952
654.60        49.56287
655.03        50.78051
655.46        49.86294
655.88        51.78234
656.31        52.69723
656.74        59.78746
657.16        56.47134
657.59        51.59018
658.02        52.16916
658.45         53.2435
658.87        54.20265
659.30        54.82788
659.73        55.23466
660.15        55.79685
660.58        55.83841
661.01        55.68238
661.44        55.32924
661.86        55.50941
662.29        56.19471
662.72        57.04854
663.14        57.81012
663.57        57.82212
664.00        57.28604
664.42        57.22999
664.85         57.7422
665.27        58.17442
665.70        58.42861
666.13        58.67516
666.55        58.92295
666.98        59.08612
667.41        59.20079
667.83        59.30613
668.26        59.41164
668.69        59.52936
669.11        59.64806
669.54        59.74562
669.96        59.82804
670.39        59.89208
670.82        59.96715
671.24        60.18597
671.67        60.57487
672.09        60.93323
672.52        61.08744
672.94        61.79895
673.37         61.2752
673.80         61.1388
674.22        60.98522
674.65        60.94503
675.07        61.06641
675.50        61.36203
675.92        61.74949
676.35        61.97823
676.77         62.0096
677.20        61.92655
677.62         61.8123
678.05        61.80548
678.47        61.93801
678.90        62.15973
679.32        62.43573
679.75        62.70272
680.17        62.92347
680.60        63.16606
681.02        63.40347
681.45        63.41851
681.87        63.27918
682.30        63.36789
682.72        63.65502
683.15        63.64494
683.57        63.41589
684.00        63.45368
684.42        63.86084
684.85        64.10004
685.27        64.18335
685.70        64.34605
686.12        64.56346
686.54        64.74368
686.97        64.87994
687.39        64.91662
687.82        64.92053
688.24        65.11107
688.66        65.43311
689.09        65.51414
689.51        65.38161
689.94        65.36237
690.36        65.49475
690.78        65.56675
691.21        65.56578
691.63        65.68372
692.06        65.94176
692.48         65.9352
692.90        66.03084
693.33         66.5416
693.75        66.42289
694.17        66.68477
694.60        66.91832
695.02         66.7632
695.44        66.29456
695.87        66.27736
696.29        66.67561
696.71        66.55247
697.14        66.10783
697.56        66.48769
697.98        67.46307
698.41        68.21045
698.83         67.8231
699.25        67.60095
699.68        67.45528
700.10        67.40649
700.52        67.51624
700.94        67.78191
701.37        68.10938
701.79        68.38615
702.21        68.54211
702.64         68.6092
703.06        68.63879
703.48        68.72562
703.90        68.89453
704.33        69.10644
704.75         69.2961
705.17        69.33014
705.59        69.18882
706.01        68.92435
706.44        68.67285
706.86        68.63868
707.28        68.85514
707.70        69.27013
708.12        69.74789
708.55         70.0144
708.97        70.03907
709.39        70.02185
709.81         70.0017
710.23        69.93504
710.66         69.8561
711.08        69.81851
711.50        69.83585
711.92        69.91328
712.34        70.05379
712.76        70.26905
713.19        70.49449
713.61        70.67418
714.03        70.75932
714.45        70.76503
714.87         70.7555
715.29        70.83751
715.71        71.02885
716.13        71.29279
716.56        71.54076
716.98        71.69906
717.40        71.69898
717.82        71.61723
718.24        71.52173
718.66        71.39375
719.08        71.24219
719.50        71.55031
719.92        71.37388
720.34        71.48132
720.76        71.60435
721.19        71.48164
721.61         71.6319
722.03        71.61655
722.45        71.62134
722.87        71.61105
723.29        71.63045
723.71        71.73352
724.13        71.92401
724.55        72.18641
724.97        72.47253
725.39        72.70342
725.81        72.85062
726.23        72.92714
726.65        72.96035
727.07        72.99886
727.49        73.05752
727.91        73.12476
728.33        73.18263
728.75         73.1894
729.17        73.16547
729.59         73.1201
730.01        73.07956
730.43        73.10518
730.85        73.21236
731.27        73.30094
731.69        73.36089
732.10        73.70273
732.52        73.87233
732.94        74.04495
733.36        74.08059
733.78        74.06033
734.20        74.01418
734.62        73.97041
735.04        73.95042
735.46        73.95947
735.88        73.99763
736.30        74.03922
736.72        74.12932
737.13        74.34618
737.55        74.59528
737.97         74.9301
738.39        75.19787
738.81        74.89615
739.23        74.23514
739.65        74.05992
740.06        74.33986
740.48        74.72881
740.90        75.13482
741.32        74.43446
741.74         74.6178
742.16        74.56301
742.57        74.88531
742.99        75.19433
743.41        75.42882
743.83        75.62188
744.25        75.73243
744.67        75.68755
745.08        75.53383
745.50        75.50805
745.92         75.5635
746.34        75.27243
746.75        74.76508
747.17        74.58478
747.59         74.7806
748.01        75.15527
748.42        75.56269
748.84        75.74625
749.26        75.73421
749.68        75.67628
750.09        75.67801
750.51        76.07221
750.93        76.65829
751.35        76.57167
751.76        75.91943
752.18        75.63876
752.60        75.76382
753.01        75.93176
753.43        75.79443
753.85        75.91768
754.27        76.19871
754.68        76.60745
755.10         76.9986
755.52        77.07681
755.93        76.85147
756.35        76.58085
756.77        76.37835
757.18        76.33966
757.60        76.56213
758.02        76.87764
758.43        77.02168
758.85        77.72853
759.26        77.42623
759.68        76.81354
760.10        76.86847
760.51        77.03377
760.93        77.34811
761.34        76.83725
761.76         76.8969
762.18        76.67189
762.59        76.76745
763.01        76.28308
763.42        76.81062
763.84        77.15891
764.26        77.65061
764.67        77.53896
765.09        77.06947
765.50        77.34782
765.92        78.24671
766.33         78.5323
766.75        78.09319
767.16        77.89213
767.58        77.92634
768.00        77.47873
768.41        76.82971
768.83        77.05975
769.24        78.02307
769.66        78.69028
770.07        78.84063
770.49        78.56949
770.90        78.08517
771.32        78.11232
771.73        78.60056
772.15        78.69438
772.56        78.37178
772.97        78.12978
773.39        77.97302
773.80        77.90914
774.22        77.63202
774.63        77.41866
775.05         77.2647
775.46        77.39252
775.88        77.72832
776.29        78.31162
776.70        78.88968
777.12        79.10043
777.53        78.87967
777.95        78.30072
778.36        77.65016
778.77         77.4159
779.19        77.71197
779.60        78.44267
780.02        79.25113
780.43        79.73861
780.84        79.79122
781.26        79.14777
781.67        78.24599
782.09        78.75728
782.50        80.31118
782.91        80.47426
783.33        79.33424
783.74        79.01629
784.15        79.56194
784.57         79.9037
784.98         79.8712
785.39        79.33886
785.81        78.51167
786.22        78.30496
786.63        78.69035
787.04        78.81647
787.46        78.66692
787.87        78.75387
788.28        79.07691
788.70        79.32926
789.11        79.47422
789.52        79.69429
789.93        79.91374
790.35        79.96975
790.76        79.51294
791.17        79.70028
791.58         80.3167
792.00        80.49458
792.41        80.12783
792.82          79.908
793.23        79.83086
793.65        78.98997
794.06        77.88043
794.47         78.2768
794.88        79.81462
795.29        80.68876
795.71        80.80336
796.12        79.79282
796.53        80.80978
796.94        80.22939
797.35        79.24754
797.76        79.15656
798.18        79.90278
798.59        80.25964
799.00        80.10888
799.41        80.20354
799.82        80.51514
800.23        80.65392
800.64        80.59338
801.06        80.38888
801.47        80.18842
801.88        80.17998
802.29        80.39223
802.70        80.72827
803.11        81.03887
803.52        81.08724
803.93        80.84164
804.34        80.41721
804.75        79.91035
805.17        79.59271
805.58        79.58766
805.99        79.40598
806.40        79.18241
806.81        80.14733
807.22        81.80651
807.63        81.81914
808.04         80.4516
808.45        80.07453
808.86         80.9305
809.27        81.94567
809.68        82.78735
810.09        83.23304
810.50        83.12392
810.91        82.63316
811.32        82.01732
811.73        81.50762
812.14        81.19758
812.55        81.28115
812.96        81.55464
813.37        81.09066
813.78        80.10595
814.19        79.94683
814.60        80.52061
815.01         80.7775
815.42        80.71292
815.83        80.26262
816.24        80.75276
816.65        80.90409
817.05        81.09344
817.46        81.30851
817.87        81.51261
818.28        81.57473
818.69        81.47882
819.10        81.26659
819.51        81.04768
819.92        81.07579
820.33        81.41179
820.74        81.83686
821.14        82.26459
821.55        82.82819
821.96        83.33484
822.37        83.14306
822.78        82.39738
823.19        81.96825
823.60        81.96607
824.00        81.96128
824.41        81.85699
824.82        81.81331
825.23        81.81627
825.64        81.84789
826.04        81.91586
826.45        81.97388
826.86        82.02177
827.27        82.06038
827.68        82.08713
828.08        82.12971
828.49         82.1323
828.90        82.12324
829.31        82.10704
829.72        82.09332
830.12        82.10603
830.53         82.1082
830.94        82.11489
831.35         82.1154
831.75        82.13232
832.16        82.12643
832.57        82.12512
832.97        82.14961
833.38        82.17842
833.79        82.20229
834.20        82.21887
834.60          82.217
835.01        82.21193
835.42        82.22308
835.82        82.22456
836.23         82.1126
836.64        81.90328
837.04        81.61604
837.45        81.37753
837.86        81.44238
838.26        81.86465
838.67        82.53476
839.08        83.21558
839.48        83.45327
839.89        83.13768
840.29        82.44801
840.70        81.72256
841.11        81.37725
841.51        81.53068
841.92        81.98499
842.33        82.65313
842.73        83.38455
843.14        83.97585
843.54        84.54298
843.95        84.87863
844.35        84.73621
844.76        84.12182
845.17        83.14278
845.57        82.13822
845.98        81.66244
846.38        81.83302
846.79        82.49641
847.19        83.45241
847.60        84.15592
848.00        84.48026
848.41         84.5078
848.81        84.40834
849.22        84.36469
849.62        84.48719
850.03        84.63113
850.43         84.8112
850.84         84.9467
851.24        85.06379
851.65        85.13527
852.05        85.17326
852.46        85.05908
852.86        84.79923
853.27         84.4618
853.67        84.07355
854.07        83.81602
854.48        83.69147
854.88        83.69005
855.29        83.70798
855.69        83.73008
856.10        83.64005
856.50        83.54584
856.90        83.43153
857.31        83.31147
857.71        83.28402
858.12        83.28152
858.52        83.32836
858.92        83.35416
859.33         83.3257
859.73        83.29855
860.13        83.31897
860.54        83.48105
860.94        83.85564
861.34        84.33761
861.75        84.73687
862.15        84.86107
862.55        84.62554
862.96        84.13972
863.36         83.5417
863.76        83.02966
864.17         82.6925
864.57        82.49534
864.97         82.5008
865.38        82.77847
865.78        83.35607
866.18        84.14908
866.58         84.9013
866.99        85.14761
867.39        84.82173
867.79        84.02051
868.19        82.94912
868.60        81.93507
869.00         81.0811
869.40         80.3481
869.80        79.87209
870.21        79.84943
870.61        80.33664
871.01        81.22707
871.41        82.15957
871.81        82.54279
872.22         82.2688
872.62        81.52975
873.02        80.61494
873.42        80.15307
873.82        80.17457
874.22        80.16732
874.63        80.21812
875.03        80.58189
875.43        81.19697
875.83        82.58746
876.23        82.85091
876.63         82.6968
877.03         81.7839
877.44        80.12211
877.84        118.8069
878.24        79.59322
878.64        80.39685
879.04        82.93744
879.44        80.95383
879.84        79.54118
880.24        81.74842
880.64        81.21996
881.04        78.63319
881.44        77.09237
881.84        77.20293
882.24        78.40485
882.65        80.03297
883.05         80.9465
883.45        80.74393
883.85        79.97661
884.25        79.14759
884.65        78.84115
885.05        79.22959
885.45        80.09425
885.85         81.1014
886.25        81.71881
886.65        81.77779
887.05        81.45609
887.45        81.01749
887.85        80.84373
888.25        81.03603
888.65        81.47262
889.04        81.97685
889.44        82.16579
889.84        81.98198
890.24         81.5526
890.64        81.06931
891.04        80.81132
891.44        80.81345
891.84        80.92776
892.24         81.0319
892.64        80.92339
893.04        80.56509
893.44        80.12611
893.83        79.54565
894.23        78.76209
894.63        77.80747
895.03        76.70092
895.43        75.84097
895.83        75.89578
896.23        76.95539
896.63        78.79969
897.02        80.79176
897.42        81.76029
897.82        81.41843
898.22        80.12938
898.62        78.47824
899.01         77.3755
899.41        77.12617
899.81        77.42493
900.21        78.08138
900.61        78.81728
901.00        79.48537
901.40        80.14815
901.80        80.73157
902.20        81.06541
902.59        81.12769
902.99         80.9453
903.39        80.54197
903.79        79.99415
904.18        79.37499
904.58        78.72873
904.98        78.30352
905.38        78.47112
905.77        79.23782
906.17        80.48383
906.57        81.75535
906.96        82.35778
907.36         82.0996
907.76        81.17239
908.15        80.02165
908.55        79.31759
908.95        79.26405
909.34        79.71002
909.74        80.27113
910.14        80.28439
910.53        79.58887
910.93        78.48997
911.33        77.47173
911.72        77.28283
912.12        78.03606
912.52        79.38161
912.91        80.85142
913.31        81.66774
913.70         81.6791
914.10        81.09701
914.49        80.11984
914.89        79.20891
915.29        78.60419
915.68        78.20523
916.08        78.07703
916.47         78.2682
916.87         78.7144
917.26        79.38027
917.66        80.09409
918.05         80.5998
918.45        80.78709
918.84        80.76599
919.24        80.48035
919.64        79.87614
920.03        79.02277
920.42        77.97269
920.82        77.14485
921.21         77.1277
921.61        77.95078
922.00        79.47427
922.40        81.07236
922.79        81.93937
923.19        81.81378
923.58        80.80159
923.98        79.27397
924.37         78.3601
924.77        78.53165
925.16         77.2305
925.55        78.45097
925.95         78.5752
926.34        78.76194
926.74        78.96946
927.13         79.2982
927.52        79.73907
927.92        80.24799
928.31        80.84129
928.70        81.35925
929.10        81.57541
929.49        81.44165
929.89        81.01057
930.28        80.51056
930.67        80.30289
931.07        80.45131
931.46        80.90792
931.85        81.41121
932.24        81.57734
932.64        81.30334
933.03        80.63406
933.42        79.80053
933.82         79.3014
934.21        79.25535
934.60        79.54459
934.99         79.7129
935.39        79.29832
935.78        78.24582
936.17        76.31589
936.56        73.83056
936.96        74.29131
937.35        74.06383
937.74        75.91428
938.13        77.86581
938.53        79.15388
938.92        79.69005
939.31        79.73469
939.70        79.53351
940.09        79.43812
940.49        79.60437
940.88        79.91882
941.27        80.31193
941.66        80.74377
942.05        81.17609
942.44        81.60537
942.84        82.04208
943.23        82.51884
943.62        82.98881
944.01        83.45837
944.40          83.708
944.79        83.39805
945.18        82.48473
945.57        81.03958
945.97        79.55702
946.36        78.91418
946.75        79.37758
947.14        80.64504
947.53        82.05479
947.92         82.6842
948.31        82.36689
948.70        81.40017
949.09        80.19383
949.48        79.46866
949.87        79.45882
950.26        79.91048
950.65        80.59689
951.04        81.15614
951.43        81.43294
951.82        81.55297
952.21        81.50005
952.60        81.23167
952.99        80.78397
953.38        80.16273
953.77        79.51646
954.16        79.09807
954.55        78.97263
954.94        79.10406
955.33        79.37571
955.72        79.56612
956.11        79.61897
956.50        79.60027
956.89        79.59431
957.28        79.76106
957.66        80.12246
958.05        80.49417
958.44        80.81947
958.83        81.03822
959.22        81.12521
959.61        81.13904
960.00        80.93289
960.39         80.2642
960.78        79.15757
961.16        77.70298
961.55        76.38484
961.94        75.80082
962.33        76.06403
962.72         77.0255
963.11        78.20963
963.49        78.79613
963.88        78.45999
964.27        77.46181
964.66        76.28224
965.04        75.73265
965.43        76.01579
965.82        76.89127
966.21         77.9389
966.60        78.48306
966.98        78.35748
967.37        77.76289
967.76        77.08636
968.15        76.91143
968.53        77.39143
968.92        78.23407
969.31         79.1252
969.69        79.55766
970.08        79.32699
970.47        78.65421
970.86        77.72729
971.24        76.80647
971.63        76.07799
972.02        75.50981
972.40        75.14323
972.79        75.05974
973.17        75.28725
973.56        75.68086
973.95        76.29675
974.33         77.1762
974.72        78.12244
975.11        79.10316
975.49         79.7082
975.88        79.32356
976.26        77.92841
976.65        75.78857
977.04        73.52664
977.42        72.22651
977.81        72.21814
978.19        73.19228
978.58        74.76064
978.96        76.27309
979.35        77.33622
979.74        78.19161
980.12        78.70044
980.51        78.37901
980.89        77.38464
981.28        75.82598
981.66        74.32056
982.05        73.79268
982.43        74.33891
982.82        75.67934
983.20        77.40925
983.59        78.44451
983.97        78.53171
984.35         77.8716
984.74        76.83636
985.12        75.94167
985.51           75.34
985.89        74.83479
986.28        74.36619
986.66        74.04533
987.04        73.82875
987.43        73.87361
987.81        73.85995
988.20        73.33348
988.58         72.1451
988.96        70.20652
989.35         67.9707
989.73         67.0362
990.12        68.04879
990.50        70.52219
990.88        73.05278
991.27        74.11176
991.65        73.67852
992.03         72.1927
992.42        70.51225
992.80        70.32162
993.18        72.09286
993.56        75.01449
993.95        78.12602
994.33        80.52271
994.71        81.78262
995.10        82.19807
995.48        81.95612
995.86        81.23994
996.24        80.19701
996.63        78.80775
997.01        77.05783
997.39        75.17022
997.77         73.5143
998.15        72.19718
998.54        71.67808
998.92        72.37016
999.30        74.34311
999.68        77.88617
1000.06        81.95139
1000.45        82.80711
1000.83        79.20824
1001.21        73.02376
1001.59        67.37701
1001.97        64.68587
1002.35        64.77546
1002.73        66.90855
1003.12        70.16008
1003.50        72.39607
1003.88        72.37023
1004.26        70.79491
1004.64        68.54344
1005.02        66.83023
1005.40        66.05111
1005.78        65.75727
1006.16        65.97209
1006.54        66.79938
1006.92        67.95506
1007.30        69.23134
1007.69        70.30743
1008.07        71.00371
1008.45        71.30472
1008.83        71.35158
1009.21         70.7589
1009.59        68.75706
1009.97        65.21251
1010.35        60.56086
1010.73        57.10835
1011.11        57.25415
1011.49        60.69215
1011.86        66.55235
1012.24        71.78173
1012.62         73.3726
1013.00        71.18571
1013.38        66.41743
1013.76        60.90788
1014.14        57.94592
1014.52         58.5131
1014.90        61.53151
1015.28         65.5592
1015.66        68.20786
1016.04        68.60235
1016.41        67.46967
1016.79        64.97281
1017.17        62.08215
1017.55        59.78739
1017.93        57.95397
1018.31        56.99207
1018.69        57.34083
1019.06        58.84094
1019.44        61.29605
1019.82        64.16225
1020.20         65.7369
1020.58        65.18857
1020.95        62.88111
1021.33        59.45289
1021.71        55.19685
1022.09        49.51833
1022.46        39.74451
1022.84         25.4038
1023.22        19.68651
1023.60        31.02151
1023.97        45.29477
1024.35        53.74795
1024.73        56.77503
