SpectraSmart Spectrum 2.9.0.0
--------- Device Information -----------
Spectrum Name :  反射率_0
Saving Time :  2024/04/20 00:43:21
Spectro-Module Model Name : SE2030-DUVN
Spectro-Module Serial Number : OS361AC55029948
Wavelength Start : 200
Wavelength End : 1025
Wavelength Unit : Wavelength(nm)
Spectrum Unit : Reflectance(%)
-----------Spectrum Setting ------------
Integration Time : 30ms
Average : 10
Boxcar : 0
Background removal :  enabled
linearity correction :  enabled
SC :  disabled
Intensity correction :  disabled
DWT denoise :  enabled
savitzky-golay :  disabled
FFT :  disabled
Running average :  disabled
Kalman :  disabled
High pass :  disabled
---------------BEGIN--------------------
Wavelength(nm)             Reflectance(%)
200.29               0
200.75        58.77065
201.21        60.06454
201.67        63.55178
202.13        68.82696
202.58        75.35498
203.04        83.44919
203.50        90.61113
203.96        90.99993
204.42        84.98746
204.88        76.64052
205.34        69.35446
205.80        64.41737
206.26        60.91522
206.72        57.66125
207.18        54.51971
207.64        52.96976
208.10        54.53117
208.55        58.85657
209.01        62.93525
209.47         65.0399
209.93        65.23366
210.39        64.10253
210.85         62.1416
211.31        59.77497
211.77        56.91286
212.23         53.0663
212.69        48.50666
213.14        45.91057
213.60        46.44807
214.06        49.19626
214.52         52.2691
214.98        54.72673
215.44         56.7254
215.90        58.37753
216.36        60.16512
216.81        62.63015
217.27        65.43703
217.73         68.4083
218.19         69.8778
218.65        67.60159
219.11        61.34407
219.57        51.26993
220.02        40.21362
220.48        35.71266
220.94        40.22787
221.40        52.17689
221.86         66.0353
222.32        73.28271
222.77        72.01632
223.23        65.22108
223.69        57.13435
224.15        53.87844
224.61        55.97501
225.06        60.36728
225.52        64.65017
225.98         66.9483
226.44        67.17566
226.90        66.25894
227.36        64.73958
227.81        63.34166
228.27        62.69577
228.73        62.39949
229.19        62.30143
229.65        62.25602
230.10        62.19594
230.56        62.29859
231.02        62.56284
231.48        63.03135
231.93        63.60693
232.39        64.19668
232.85          64.694
233.31        64.99436
233.77        65.04468
234.22        64.91367
234.68        64.44049
235.14        63.28457
235.60        61.52832
236.05        59.38543
236.51        57.45248
236.97        56.56137
237.43         56.9723
237.88        58.87069
238.34        61.84027
238.80        64.57196
239.26        65.85368
239.71        65.59459
240.17        64.28118
240.63        63.46476
241.08        63.66063
241.54        64.47403
242.00        65.01155
242.46        63.50918
242.91        59.00015
243.37        50.44203
243.83        38.63256
244.28        31.62353
244.74        37.26342
245.20         53.8471
245.66        69.98574
246.11        76.08324
246.57        71.37514
247.03        56.33496
247.48        34.47929
247.94        26.63175
248.40        36.77248
248.85        50.63176
249.31        60.79616
249.77        65.38531
250.22        65.82065
250.68        63.85847
251.14        60.42287
251.59        57.44001
252.05        56.42508
252.51        57.02496
252.96        58.40488
253.42        59.29319
253.88        59.37157
254.33        59.22013
254.79        60.39592
255.25        64.13798
255.70        69.90199
256.16        76.41483
256.62        81.87146
257.07        84.33875
257.53        84.00407
257.99        81.65954
258.44        78.08118
258.90        75.16423
259.35        72.93121
259.81        71.63346
260.27        70.47211
260.72        68.73567
261.18        66.70963
261.63        64.21309
262.09        62.17917
262.55        61.33403
263.00        61.54751
263.46        62.52866
263.91         63.2155
264.37        62.71616
264.83        61.00618
265.28         58.4688
265.74        56.14268
266.19        54.97486
266.65        55.15056
267.11        56.11975
267.56         57.1749
268.02        57.32606
268.47         56.3754
268.93        54.67518
269.38        52.65471
269.84        51.23094
270.30        50.63063
270.75        50.57768
271.21        50.67678
271.66        50.32514
272.12        49.37606
272.57        48.02851
273.03         46.6152
273.48        45.54078
273.94        44.96571
274.39        44.70552
274.85        44.53577
275.31        44.08549
275.76        43.26024
276.22        42.21074
276.67        41.15238
277.13        40.52566
277.58        40.32001
278.04        40.42293
278.49        40.45167
278.95        39.96348
279.40          38.873
279.86        37.46714
280.31        36.03846
280.77        35.15676
281.22        34.83619
281.68        34.90997
282.13        35.09615
282.59        35.03835
283.04        34.63112
283.50        34.04523
283.95        33.36474
284.41        32.75965
284.86        32.25468
285.32        31.81563
285.77        31.44369
286.22        31.22519
286.68        31.15417
287.13        31.18798
287.59         31.2291
288.04        31.08796
288.50        30.75737
288.95        30.25457
289.41        29.72072
289.86        29.29858
290.32        29.07643
290.77        28.99749
291.22        29.00407
291.68        28.97323
292.13        28.88278
292.59        28.79414
293.04        28.79288
293.50        29.02844
293.95        29.50726
294.40        30.15687
294.86        30.86688
295.31        31.47624
295.77        31.94592
296.22        32.33453
296.68        32.68447
297.13         33.0454
297.58        33.45438
298.04        33.88953
298.49        34.40001
298.95         35.1068
299.40         35.9883
299.85        36.99836
300.31        37.98419
300.76         38.6997
301.21        39.10732
301.67        39.32178
302.12        39.44773
302.58        39.71401
303.03         40.1496
303.48         40.6984
303.94        41.35413
304.39        42.06042
304.84           42.79
305.30        43.54779
305.75        44.22374
306.20        44.67577
306.66        44.90641
307.11        44.93665
307.57        44.90471
308.02        44.94444
308.47        45.11824
308.93        45.37905
309.38        45.66812
309.83        45.94927
310.29        46.19217
310.74         46.4095
311.19        46.54659
311.65        46.51128
312.10        46.29212
312.55        45.91809
313.00        45.50568
313.46        45.23608
313.91        45.13338
314.36        45.16851
314.82        45.23276
315.27        45.17145
315.72        44.93546
316.18        44.58999
316.63        44.21747
317.08        43.95652
317.53        43.83422
317.99        43.79169
318.44        43.76205
318.89        43.62784
319.35        43.35678
319.80        42.99067
320.25        42.57859
320.70        42.19912
321.16        41.87362
321.61        41.58582
322.06        41.30967
322.51        41.00849
322.97        40.66492
323.42        40.30296
323.87        39.93518
324.32        39.58546
324.78        39.25388
325.23        38.94498
325.68        38.63197
326.13        38.28073
326.59        37.88717
327.04        37.48998
327.49        37.12132
327.94        36.83649
328.39        36.64636
328.85        36.51136
329.30        36.44458
329.75        36.40818
330.20        36.37753
330.66        36.33252
331.11        36.25904
331.56        36.07724
332.01        35.77279
332.46        35.36152
332.92        34.89161
333.37        34.46835
333.82        34.13157
334.27         33.8812
334.72        33.69501
335.17        33.52757
335.63        33.35204
336.08        33.18505
336.53        33.06347
336.98        33.05881
337.43        33.17338
337.88        33.38748
338.34        33.54526
338.79        33.44485
339.24        33.03578
339.69        32.37541
340.14        31.71246
340.59         31.4656
341.05        31.70952
341.50        32.31696
341.95        32.98283
342.40        33.23481
342.85        32.96894
343.30        32.34372
343.75        31.59255
344.20        31.09945
344.66        30.97205
345.11        31.05885
345.56          31.248
346.01        31.36079
346.46        31.32581
346.91        31.22373
347.36        31.02277
347.81        30.65541
348.26        30.14662
348.72        29.54313
349.17        28.96674
349.62        28.70311
350.07        28.81293
350.52        29.20221
350.97        29.71438
351.42        30.10958
351.87        30.30589
352.32        30.35094
352.77        30.26959
353.22        30.11157
353.67        29.90405
354.13         29.6427
354.58        29.32689
355.03        29.00215
355.48        28.69554
355.93        28.43124
356.38        28.22348
356.83         28.0791
357.28        27.99174
357.73        27.94023
358.18        27.92541
358.63        27.94924
359.08        27.99183
359.53        28.04275
359.98        28.02123
360.43         27.8087
360.88        27.39942
361.33        26.83884
361.78         26.2595
362.23        25.88147
362.68        25.75438
363.13        25.80475
363.58        25.91579
364.03          25.901
364.48        25.70536
364.93        25.38771
365.38         24.9894
365.83        24.58529
366.28        24.21642
366.73        23.85918
367.18        23.54469
367.63        23.32424
368.08        23.19724
368.53        23.15369
368.98        23.13161
369.43        23.02418
369.88         22.8113
370.33        22.52796
370.78        22.22462
371.23        21.99383
371.68        21.86768
372.13        21.81166
372.58        21.82225
373.03        21.89211
373.48         21.9976
373.93        22.13247
374.38        22.23125
374.83        22.19502
375.28        22.00795
375.72        21.68557
376.17        21.32657
376.62        21.05521
377.07        20.91302
377.52        20.87061
377.97        20.87601
378.42        20.84344
378.87        20.74943
379.32        20.62131
379.77        20.49607
380.22        20.42447
380.67        20.41506
381.11        20.45012
381.56        20.47498
382.01        20.42222
382.46        20.27414
382.91        20.04659
383.36        19.80501
383.81        19.64638
384.26        19.59024
384.71        19.61845
385.15         19.6407
385.60        19.52309
386.05        19.24686
386.50         18.8581
386.95        18.49186
387.40        18.35866
387.85        18.48942
388.29        18.80076
388.74        19.13168
389.19        19.24983
389.64        19.11001
390.09        18.78077
390.54        18.39636
390.98        18.16581
391.43        18.15831
391.88        18.29266
392.33        18.44911
392.78         18.4567
393.23        18.29273
393.67        18.01637
394.12         17.7585
394.57        17.63484
395.02        17.66896
395.47        17.81329
395.91         17.9972
396.36        18.07869
396.81        18.02457
397.26        17.87559
397.71        17.70291
398.15        17.59687
398.60        17.60116
399.05        17.67384
399.50        17.75658
399.95        17.76785
400.39        17.69025
400.84        17.54689
401.29        17.40294
401.74        17.37532
402.18        17.49401
402.63        17.70862
403.08        17.91825
403.53        17.96318
403.97        17.81304
404.42        17.53135
404.87        17.22584
405.32        17.07428
405.76        17.11864
406.21        17.29988
406.66        17.52749
407.11        17.65891
407.55        17.65689
408.00        17.57089
408.45         17.4477
408.90        17.32315
409.34        17.24069
409.79        17.26201
410.24        17.34287
410.68          17.345
411.13        17.26018
411.58        17.16916
412.03        17.08617
412.47        17.00995
412.92        16.94896
413.37        16.89762
413.81        16.88579
414.26        16.97349
414.71        17.15497
415.15        17.41662
415.60        17.65615
416.05        17.73267
416.49        17.61041
416.94        17.33476
417.39        17.00715
417.83        16.79481
418.28        16.74946
418.73        16.81808
419.17        16.92804
419.62        16.95264
420.07        16.86639
420.51         16.7163
420.96        16.55721
421.41        16.45079
421.85        16.41126
422.30        16.42463
422.74         16.4694
423.19        16.54662
423.64        16.63903
424.08        16.75273
424.53        16.85142
424.98         16.8989
425.42        16.88816
425.87        16.83302
426.31        16.74146
426.76         16.6367
427.21        16.52154
427.65        16.38535
428.10        16.28128
428.54        16.27227
428.99        16.36857
429.44        16.61816
429.88        16.88562
430.33         16.8478
430.77        16.55144
431.22        16.35304
431.66        16.31985
432.11        16.36759
432.56        16.48272
433.00        16.72823
433.45        16.93995
433.89        16.87733
434.34        16.64735
434.78        16.43501
435.23        16.20578
435.67        16.97687
436.12        16.38782
436.57        16.29704
437.01        16.08807
437.46        16.02241
437.90        16.11635
438.35        16.26553
438.79        16.40675
439.24        16.48985
439.68        16.49368
440.13        16.30113
440.57        16.03072
441.02        16.12975
441.46        16.45591
441.91        16.49109
442.35        15.84869
442.80        15.63433
443.24        15.68503
443.69        15.65794
444.13        15.53102
444.58        15.44585
445.02        15.40954
445.47        15.42417
445.91        15.46008
446.36        15.43465
446.80        15.33378
447.24        15.20296
447.69        15.07663
448.13        14.97272
448.58          14.909
449.02        14.87721
449.47        14.86322
449.91        14.83768
450.36        14.79834
450.80        14.74995
451.25        14.71544
451.69        14.71328
452.13        14.74992
452.58        14.80827
453.02        14.86858
453.47         14.9013
453.91        14.90038
454.36        14.87376
454.80        14.82847
455.24        14.77734
455.69        14.73333
456.13        14.67737
456.58        14.63197
457.02        14.62159
457.46        14.64654
457.91        14.66782
458.35         14.6712
458.79        14.66964
459.24        14.65813
459.68        14.63554
460.13        14.65606
460.57         14.6627
461.01        14.64368
461.46        14.99114
461.90        15.10681
462.34        14.97401
462.79        15.08716
463.23        14.94861
463.68        14.81556
464.12        14.71266
464.56        14.77647
465.01        14.88649
465.45        14.99987
465.89        15.06794
466.34        15.08299
466.78        15.01548
467.22        14.90972
467.67        14.94305
468.11        15.08288
468.55        15.03203
468.99         14.8349
469.44        14.80457
469.88        14.95621
470.32        15.12174
470.77         15.2366
471.21        15.27773
471.65        15.22837
472.10          15.101
472.54        14.94877
472.98        14.89143
473.42        14.95195
473.87        15.05096
474.31        15.15278
474.75        15.29407
475.20        15.42739
475.64        15.40248
476.08        15.27548
476.52        15.26732
476.97         15.3936
477.41        15.55151
477.85        15.68656
478.29        15.75944
478.74        15.75611
479.18        15.66226
479.62        15.55335
480.06        15.55061
480.50        15.65481
480.95        15.75884
481.39        15.81566
481.83         15.8279
482.27        15.79046
482.72        15.70404
483.16        15.61353
483.60         15.6107
484.04         15.7147
484.48         15.8978
484.93        16.17102
485.37        16.37812
485.81        16.50348
486.25         16.7475
486.69        17.27961
487.14         16.5656
487.58        16.45075
488.02        17.21916
488.46        16.94287
488.90        17.10364
489.34        16.94521
489.79        17.11065
490.23        17.50937
490.67        17.67423
491.11        17.60421
491.55        17.51748
491.99        17.46169
492.43        17.42611
492.88        17.43662
493.32         17.4817
493.76        17.57337
494.20         17.7375
494.64        17.97079
495.08        18.25758
495.52        18.54627
495.96        18.77313
496.41        18.92253
496.85        18.97074
497.29        18.97354
497.73        19.11443
498.17        19.38504
498.61        19.56723
499.05        19.64223
499.49        19.77873
499.93        19.97849
500.37        20.08727
500.82        20.13882
501.26        20.35068
501.70        20.68187
502.14        20.83626
502.58        20.81629
503.02        20.86778
503.46        20.99959
503.90        21.07212
504.34        21.07549
504.78        21.06425
505.22        21.04513
505.66        21.01112
506.10        20.98654
506.54        21.00681
506.98        21.08146
507.42        21.20646
507.86         21.3598
508.30        21.50203
508.74        21.61718
509.18        21.70607
509.62        21.78471
510.06        21.88088
510.50        21.99991
510.94        22.13637
511.38        22.25137
511.82        22.28378
512.26        22.22617
512.70        22.09853
513.14        21.97393
513.58        21.96295
514.02        22.07999
514.46        22.29296
514.90        22.51809
515.34        22.55984
515.78        22.42142
516.22        22.22151
516.66        22.06552
517.10        21.77784
517.54        21.39077
517.98        21.99904
518.42        21.92892
518.86        22.20866
519.30        22.31758
519.74        22.42282
520.18        22.50373
520.62        22.50546
521.06        22.44373
521.50        22.31917
521.93        22.15766
522.37        22.01265
522.81        21.90377
523.25        21.82608
523.69        21.78417
524.13        21.78072
524.57          21.808
525.01        21.85895
525.45        21.91434
525.89        21.94215
526.32        21.93059
526.76        21.88836
527.20        21.81174
527.64        21.70241
528.08        21.56747
528.52        21.40718
528.96         21.2541
529.40        21.15605
529.83        21.12049
530.27        21.14244
530.71        21.17234
531.15        21.13095
531.59        21.00507
532.03        20.81922
532.46        20.63268
532.90        20.55636
533.34         20.6019
533.78        20.72907
534.22        20.86973
534.66        20.91994
535.09        20.85221
535.53        20.70975
535.97        20.53565
536.41        20.39515
536.85        20.31228
537.28        20.27675
537.72        20.28728
538.16        20.27872
538.60        20.34174
539.04        20.39443
539.47        20.44583
539.91        20.51618
540.35        20.61612
540.79        20.56476
541.22          20.641
541.66        20.71967
542.10         20.9002
542.54         20.8381
542.97        21.07444
543.41        21.20518
543.85        21.37441
544.29        21.53143
544.72        21.65341
545.16        21.76843
545.60        21.87121
546.04        21.88939
546.47        21.89188
546.91         22.1263
547.35        22.53773
547.79        22.83274
548.22        22.96918
548.66        23.03718
549.10        23.07942
549.53        23.25558
549.97        23.57203
550.41        23.60855
550.84        23.80017
551.28        23.91311
551.72        24.10339
552.15        24.32865
552.59         24.5884
553.03        24.87848
553.46        25.14223
553.90        25.31977
554.34        25.39864
554.77        25.39946
555.21        25.37686
555.65        25.40559
556.08        25.50349
556.52        25.64848
556.96        25.81129
557.39        25.97886
557.83        26.12925
558.27        26.20448
558.70        26.22795
559.14        26.28863
559.57        26.38674
560.01        26.51079
560.45        26.62072
560.88        26.62282
561.32        26.56731
561.75        26.54119
562.19        26.66477
562.63        26.74486
563.06         26.8094
563.50        26.92108
563.93         27.0564
564.37        27.22763
564.80        27.29929
565.24         27.3912
565.68         27.4593
566.11        27.53062
566.55        27.62862
566.98        27.69168
567.42         27.7125
567.85        28.03091
568.29        27.92416
568.72        28.24849
569.16        28.70435
569.60         28.9844
570.03        29.04022
570.47        29.10937
570.90        29.10498
571.34        29.31878
571.77         29.2172
572.21        29.60748
572.64        29.75397
573.08        29.93001
573.51        30.02044
573.95        30.72589
574.38        30.79349
574.82        31.03102
575.25        31.07658
575.69        30.88128
576.12        30.80919
576.56        30.79415
576.99        30.91705
577.42         31.1558
577.86        30.90481
578.29        30.95358
578.73        31.35041
579.16        31.19228
579.60        30.83828
580.03        30.63962
580.47        30.82433
580.90        30.43111
581.33         30.4095
581.77        30.43503
582.20        30.78182
582.64        30.38184
583.07        29.88219
583.51        29.93987
583.94        29.60741
584.37        29.48532
584.81        29.17739
585.24        29.09286
585.68        29.16624
586.11        29.01415
586.54        28.80434
586.98        28.75423
587.41        28.89785
587.85        28.96032
588.28        28.88675
588.71        28.68169
589.15        28.40541
589.58        28.32291
590.01        28.26562
590.45        28.69798
590.88        28.54733
591.31         28.4912
591.75        28.24658
592.18        28.42571
592.61          28.348
593.05        28.60673
593.48        28.32056
593.91        28.81008
594.35        28.56084
594.78        28.68808
595.21         29.2937
595.65        29.63088
596.08        29.33944
596.51        29.34554
596.94        29.57557
597.38        29.69842
597.81        29.74085
598.24        30.02973
598.68        30.52564
599.11        30.57627
599.54        31.69664
599.97        31.41548
600.41        31.55299
600.84        32.11691
601.27        32.58967
601.70        32.96729
602.14        33.13109
602.57        33.51897
603.00        34.15189
603.43        34.58123
603.87        34.81697
604.30        35.27229
604.73        35.89075
605.16        36.09969
605.60        36.67544
606.03        37.09574
606.46        37.49204
606.89        38.18125
607.32         38.6314
607.76          38.806
608.19         39.0849
608.62        39.52163
609.05        39.45485
609.48        39.76139
609.92        40.24009
610.35        40.30401
610.78        41.18267
611.21        41.77768
611.64        41.78407
612.07         41.9952
612.50        42.40613
612.94        42.35807
613.37        42.85867
613.80        43.12116
614.23        43.41074
614.66        43.86003
615.09        44.12039
615.52        44.49331
615.96        44.78714
616.39        45.04979
616.82           45.35
617.25        45.11899
617.68         45.3306
618.11        45.91278
618.54        46.03372
618.97        46.16286
619.40         46.0029
619.84        46.22941
620.27        46.00793
620.70        46.38419
621.13        46.98621
621.56        47.11604
621.99        46.90979
622.42        47.07211
622.85        47.62119
623.28        47.80991
623.71        47.58353
624.14        47.83485
624.57        47.56186
625.00        47.34992
625.43         47.5268
625.86        47.05038
626.29        47.09999
626.72        46.91954
627.15        46.84981
627.58         46.7706
628.01        46.61891
628.44        46.55807
628.87        46.49091
629.30        45.67658
629.73        45.65251
630.16        45.21225
630.59        45.21868
631.02         44.8885
631.45        44.38429
631.88        43.99731
632.31        43.72246
632.74        43.38271
633.17        42.95266
633.60        42.49958
634.03        42.02695
634.46        41.52342
634.89        41.01267
635.32        40.53125
635.75        40.09285
636.18        39.69838
636.61        39.33657
637.04        38.97714
637.47        38.60141
637.89         38.2383
638.32        37.89743
638.75        37.54019
639.18        37.15783
639.61        37.06111
640.04        36.68532
640.47        36.41801
640.90        36.09516
641.33        35.74773
641.76        35.42424
642.18        35.21666
642.61        35.14178
643.04        35.16726
643.47        35.23814
643.90        35.26179
644.33        35.21437
644.76        35.12885
645.18        35.04122
645.61        35.01265
646.04        35.06431
646.47        35.17569
646.90        35.34825
647.33        35.58399
647.75        35.87573
648.18        36.22239
648.61        36.59321
649.04        36.92649
649.47        37.21403
649.89        37.48898
650.32        37.79616
650.75        38.17236
651.18        38.66323
651.61        39.30278
652.03         40.0374
652.46        40.81898
652.89        41.58067
653.32        41.98338
653.74        42.12596
654.17        42.85732
654.60        43.44989
655.03        44.48964
655.46        43.83503
655.88        45.71565
656.31        46.87007
656.74        53.09457
657.16        50.16098
657.59        46.54554
658.02        47.26226
658.45         47.7325
658.87        49.04557
659.30        49.24327
659.73        49.93094
660.15        50.64221
660.58        50.60164
661.01         50.5616
661.44        50.37547
661.86        50.57413
662.29         51.1555
662.72        52.03178
663.14        52.94535
663.57        53.05065
664.00        52.53563
664.42        52.51215
664.85        53.06216
665.27        53.52619
665.70        53.81144
666.13        53.96501
666.55        54.23655
666.98        54.35376
667.41        54.43918
667.83        54.55226
668.26        54.70448
668.69        54.88906
669.11        55.07658
669.54        55.21201
669.96        55.28864
670.39        55.35037
670.82        55.43204
671.24        55.51956
671.67        55.65361
672.09         55.9459
672.52        56.31627
672.94        56.54065
673.37        56.57787
673.80        56.44241
674.22        56.24647
674.65        56.21104
675.07        56.38954
675.50        56.66819
675.92        56.96498
676.35        57.14716
676.77         57.1764
677.20        57.10361
677.62        56.99334
678.05        56.92319
678.47        56.91542
678.90        57.07824
679.32        57.15453
679.75        57.26453
680.17        57.32309
680.60        57.36527
681.02        57.43124
681.45        57.51469
681.87        57.64891
682.30        57.94601
682.72        58.31528
683.15        58.38657
683.57        58.20378
684.00        58.09284
684.42        58.23348
684.85        58.28814
685.27        58.30589
685.70        58.44154
686.12        58.64931
686.54        58.79031
686.97        58.83815
687.39        58.83933
687.82        58.81448
688.24        58.82074
688.66        58.86719
689.09        58.93327
689.51        59.00582
689.94        59.04162
690.36        59.04356
690.78        59.01841
691.21        58.99021
691.63        59.04685
692.06        59.20346
692.48        59.33877
692.90        59.33594
693.33        59.75877
693.75        59.55382
694.17        59.57322
694.60        59.51973
695.02        59.42115
695.44        59.28075
695.87        59.20597
696.29         59.2207
696.71        59.16519
697.14        59.18384
697.56        59.61456
697.98         60.2552
698.41        60.98901
698.83        60.75559
699.25          60.279
699.68        60.20896
700.10        60.00582
700.52        59.97364
700.94        60.07722
701.37        60.24921
701.79        60.38728
702.21        60.42601
702.64        60.41363
703.06        60.38563
703.48        60.40308
703.90         60.4837
704.33        60.59664
704.75         60.7015
705.17        60.71127
705.59        60.61465
706.01        60.44726
706.44        60.29683
706.86        60.30116
707.28        60.47931
707.70        60.77482
708.12        61.10588
708.55        61.34005
708.97        61.43755
709.39        61.44485
709.81        61.38008
710.23         61.2795
710.66        61.17074
711.08        61.05682
711.50        60.98149
711.92        60.97077
712.34        61.02488
712.76        61.24534
713.19        61.59867
713.61        61.49039
714.03        61.78535
714.45        61.76576
714.87        61.74892
715.29        61.78552
715.71        61.89494
716.13        62.04197
716.56        62.16628
716.98        62.24123
717.40        62.21838
717.82        62.17731
718.24        62.16321
718.66        61.96378
719.08        61.96772
719.50        62.02374
719.92        61.95172
720.34         61.9558
720.76        61.94994
721.19        61.94456
721.61        61.94777
722.03        61.95465
722.45        61.98645
722.87        62.02555
723.29         62.0852
723.71         62.1788
724.13         62.3079
724.55        62.46677
724.97        62.63893
725.39        62.79842
725.81        62.93221
726.23        63.03659
726.65        63.12247
727.07        63.21222
727.49        63.30938
727.91        63.40804
728.33         63.4817
728.75        63.48668
729.17         63.4208
729.59        63.30656
730.01        63.19021
730.43        63.14854
730.85         63.1997
731.27         63.2993
731.69        63.41662
732.10        63.55667
732.52        63.67076
732.94         63.6631
733.36        63.54392
733.78        63.47619
734.20        63.51926
734.62        63.46996
735.04        63.28257
735.46        63.49796
735.88        63.70065
736.30        63.06618
736.72        63.55898
737.13        63.58209
737.55        63.69833
737.97        64.01308
738.39        64.40751
738.81        64.27374
739.23        63.71277
739.65        63.65755
740.06        64.05284
740.48        64.15652
740.90        63.92525
741.32        63.77806
741.74        63.77642
742.16        63.83229
742.57        63.96066
742.99        64.13458
743.41        64.31557
743.83        64.43733
744.25          64.475
744.67        64.43112
745.08         64.3307
745.50        64.19473
745.92        64.05357
746.34        63.90148
746.75        63.75687
747.17        63.64907
747.59        63.59687
748.01        63.61211
748.42        63.68554
748.84        63.81997
749.26        64.01988
749.68        64.09725
750.09        64.10087
750.51        64.50033
750.93        65.10675
751.35        65.02936
751.76        64.36803
752.18        64.05355
752.60        64.13763
753.01        64.11376
753.43        63.98456
753.85         64.0191
754.27        64.21861
754.68        64.56139
755.10        64.92661
755.52        64.96285
755.93        64.84747
756.35        64.60178
756.77        64.40151
757.18        64.35856
757.60         64.5535
758.02        64.86716
758.43        65.13849
758.85        65.47423
759.26        65.79834
759.68        65.06801
760.10        65.24638
760.51        64.97217
760.93        64.92727
761.34        64.50777
761.76        64.91756
762.18        64.66425
762.59        64.24945
763.01        64.33167
763.42        64.97108
763.84        65.38783
764.26          65.498
764.67        65.39991
765.09         65.2628
765.50        65.48772
765.92        65.98349
766.33        66.11155
766.75        65.79459
767.16        65.42901
767.58        65.09549
768.00        64.91091
768.41         64.9462
768.83        64.99973
769.24         65.0741
769.66        65.48007
770.07         66.0399
770.49        66.10044
770.90         65.7453
771.32        65.74232
771.73        66.07804
772.15        66.09624
772.56        65.80302
772.97        65.59988
773.39        65.48271
773.80        65.29506
774.22        65.03191
774.63        64.75728
775.05        64.56808
775.46        64.62839
775.88        64.93785
776.29        65.47862
776.70        66.02141
777.12        66.20895
777.53        65.97277
777.95        65.38947
778.36        64.73139
778.77        64.46107
779.19        64.69443
779.60        65.34292
780.02        66.08086
780.43        66.55672
780.84        66.66291
781.26        66.10697
781.67        65.30532
782.09        65.89555
782.50        67.50491
782.91        67.73048
783.33        66.61918
783.74        66.26754
784.15        66.73515
784.57        66.78915
784.98        66.40295
785.39        66.11185
785.81        65.94302
786.22         65.7915
786.63        65.68658
787.04        65.62732
787.46        65.66805
787.87        65.95082
788.28        66.34898
788.70        66.72482
789.11        66.66332
789.52        66.54012
789.93        66.31329
790.35         66.4577
790.76          66.344
791.17        66.43343
791.58        66.50075
792.00        66.41322
792.41        66.14955
792.82        66.16483
793.23        66.02177
793.65        65.70606
794.06        65.27156
794.47        65.55073
794.88        66.38553
795.29        66.79089
795.71         66.6583
796.12        66.69718
796.53        66.87424
796.94        66.51131
797.35        65.77973
797.76        65.64285
798.18        66.06873
798.59        66.24425
799.00         66.1208
799.41        66.21066
799.82         66.4967
800.23        66.69022
800.64        66.75712
801.06        66.72824
801.47        66.69167
801.88        66.73729
802.29        66.87672
802.70        67.05841
803.11         67.1753
803.52        67.06388
803.93        66.71549
804.34        66.21169
804.75         65.6871
805.17        65.42879
805.58        65.53931
805.99        65.66918
806.40        65.79916
806.81        66.56831
807.22        67.60223
807.63        67.37214
808.04        66.18232
808.45        65.86768
808.86        66.57525
809.27        67.51717
809.68        68.01049
810.09        68.39941
810.50        68.43783
810.91        68.13963
811.32        67.66126
811.73        67.24817
812.14         66.9857
812.55        66.86339
812.96        66.82347
813.37         66.6399
813.78        66.34632
814.19        66.26867
814.60        66.37891
815.01        66.39906
815.42        66.31195
815.83        66.23803
816.24        66.23419
816.65        66.34069
817.05        66.57389
817.46        66.88111
817.87        67.16172
818.28        67.21973
818.69        67.03453
819.10        66.66648
819.51        66.28523
819.92         66.2345
820.33        66.60292
820.74        67.16326
821.14        67.77123
821.55        68.41962
821.96        68.91021
822.37        68.73931
822.78        68.05172
823.19        67.61265
823.60        67.53484
824.00         67.4499
824.41        67.28229
824.82        67.16983
825.23        67.10767
825.64        67.08702
826.04        67.13351
826.45        67.22787
826.86        67.36767
827.27        67.54172
827.68        67.70269
828.08         67.7974
828.49        67.76174
828.90        67.63625
829.31        67.46906
829.72        67.35162
830.12        67.33566
830.53         67.3661
830.94        67.43041
831.35        67.47781
831.75        67.51287
832.16        67.51269
832.57        67.50613
832.97         67.5135
833.38        67.52329
833.79        67.52473
834.20        67.51315
834.60        67.47772
835.01        67.43373
835.42        67.39462
835.82        67.35481
836.23        67.25436
836.64        67.10693
837.04        66.91848
837.45        66.75719
837.86        66.77427
838.26        67.00204
838.67        67.37308
839.08        67.73064
839.48        67.77436
839.89        67.44207
840.29        66.85841
840.70        66.28378
841.11        66.03315
841.51        66.19482
841.92        66.62359
842.33        67.22369
842.73        67.82751
843.14        68.25954
843.54        68.61175
843.95        68.78674
844.35        68.70679
844.76         68.3897
845.17        67.88347
845.57        67.33923
845.98        67.01588
846.38        66.97932
846.79        67.16414
847.19         67.5406
847.60        67.91611
848.00        68.25812
848.41         68.5406
848.81        68.78629
849.22        68.95359
849.62        69.07474
850.03        69.10097
850.43        69.05862
850.84        68.92665
851.24        68.76955
851.65        68.55573
852.05         68.3819
852.46        68.32101
852.86        68.39384
853.27        68.49965
853.67        68.54593
854.07        68.72059
854.48        68.88531
854.88        68.61677
855.29        67.96812
855.69        67.62201
856.10        67.59769
856.50        67.61994
856.90        67.65049
857.31        67.79874
857.71        68.10438
858.12        68.47635
858.52         68.8199
858.92        68.87895
859.33        68.59435
859.73        68.04494
860.13        67.42385
860.54           67.12
860.94        67.30064
861.34        67.83401
861.75        68.41605
862.15        68.63152
862.55        68.33709
862.96        67.70833
863.36        66.98378
863.76        66.54017
864.17        66.48984
864.57        66.71098
864.97        67.11878
865.38        67.57607
865.78        68.05585
866.18        68.53307
866.58        68.86709
866.99        68.81315
867.39        68.36713
867.79        67.57834
868.19        66.57713
868.60         65.5676
869.00         64.6094
869.40        63.72439
869.80        63.08303
870.21        62.92931
870.61         63.3423
871.01        64.20748
871.41        65.18363
871.81        65.71962
872.22        65.70953
872.62        65.29612
873.02        64.69463
873.42        64.52677
873.82        64.69081
874.22        64.42822
874.63        63.96266
875.03        63.84555
875.43        64.14401
875.83        65.90442
876.23        65.62656
876.63        64.91992
877.03        63.19449
877.44        60.60365
877.84        136.2792
878.24        61.47115
878.64        63.41402
879.04         68.2496
879.44        64.64642
879.84        62.58036
880.24        67.49287
880.64        67.59483
881.04        64.06257
881.44        61.72829
881.84        61.39618
882.24        62.28297
882.65        63.80711
883.05        64.70222
883.45        64.54592
883.85        64.09542
884.25        63.70261
884.65        63.57615
885.05        63.82283
885.45        64.30808
885.85        64.82696
886.25          65.092
886.65        65.01704
887.05         64.7082
887.45        64.34388
887.85        64.17597
888.25        64.27048
888.65        64.55588
889.04        64.90968
889.44         65.0528
889.84        64.94234
890.24        64.65786
890.64        64.33518
891.04        64.17828
891.44        64.20855
891.84        64.31708
892.24        64.39594
892.64        64.26825
893.04        63.90739
893.44        63.45114
893.83         62.8936
894.23        62.23338
894.63        61.50206
895.03        60.69377
895.43        60.06887
895.83        60.06464
896.23        60.73215
896.63        61.93069
897.02        63.20832
897.42         63.7387
897.82        63.33417
898.22        62.26572
898.62        60.98118
899.01        60.17503
899.41        60.06478
899.81        60.40752
900.21        61.04365
900.61        61.73832
901.00         62.3669
901.40        62.97433
901.80        63.48017
902.20        63.72022
902.59         63.6711
902.99        63.36147
903.39        62.86796
903.79        62.34674
904.18        61.88236
904.58        61.50868
904.98         61.3324
905.38        61.50755
905.77        62.02461
906.17        62.82151
906.57         63.6753
906.96        64.25732
907.36        64.42152
907.76        64.22266
908.15        63.83487
908.55        63.50264
908.95        63.32674
909.34        63.28798
909.74        63.20103
910.14        62.73646
910.53         61.8587
910.93        60.75833
911.33        59.87467
911.72        59.89106
912.12        60.85773
912.52        62.46669
912.91         64.1506
913.31        64.95084
913.70        64.69418
914.10        63.63976
914.49        62.13589
914.89         61.0136
915.29        60.59818
915.68        60.66528
916.08        61.08084
916.47        61.64415
916.87        62.21283
917.26        62.84668
917.66        63.40495
918.05        63.67688
918.45        63.60205
918.84        63.27654
919.24        62.73139
919.64        62.05672
920.03        61.34367
920.42        60.59955
920.82        60.13476
921.21        60.37459
921.61        61.29785
922.00         62.8035
922.40        64.29176
922.79         65.0162
923.19        64.79424
923.58        63.57697
923.98        61.73883
924.37        60.85411
924.77        61.51251
925.16        59.28638
925.55        61.38979
925.95        61.48016
926.34        61.66185
926.74        61.80748
927.13        62.08504
927.52        62.50277
927.92          63.007
928.31        63.64786
928.70        64.18197
929.10        64.24784
929.49        63.77526
929.89          62.872
930.28        61.97375
930.67        61.77835
931.07        62.38946
931.46        63.63684
931.85         64.9594
932.24        65.51565
932.64        65.10443
933.03        63.87326
933.42        62.28492
933.82         61.3019
934.21        61.21249
934.60        61.75226
934.99        62.25383
935.39        62.14322
935.78        61.35112
936.17        59.42088
936.56        56.61975
936.96        57.99619
937.35        57.30957
937.74        59.34571
938.13        61.38126
938.53        62.79412
938.92         63.5053
939.31        63.78283
939.70         63.7674
940.09        63.53233
940.49        63.20267
940.88        62.78505
941.27         62.4652
941.66        62.55865
942.05        63.08393
942.44        63.91325
942.84        64.88683
943.23        65.71684
943.62        66.25218
944.01        66.60275
944.40        66.58408
944.79        65.91234
945.18        64.59219
945.57        62.66479
945.97        60.78055
946.36        60.06643
946.75        60.85685
947.14        62.75486
947.53        64.84973
947.92        65.87939
948.31        65.60812
948.70        64.40929
949.09        62.83439
949.48        61.86155
949.87        61.80601
950.26        62.34604
950.65        63.12657
951.04         63.5718
951.43        63.49111
951.82        63.11412
952.21        62.59546
952.60          62.146
952.99        61.85152
953.38         61.6076
953.77         61.4259
954.16        61.35278
954.55        61.37782
954.94        61.52106
955.33        61.68353
955.72        61.67222
956.11         61.4651
956.50        61.12904
956.89        60.81743
957.28        60.82897
957.66        61.24218
958.05        61.82787
958.44        62.47669
958.83        63.06143
959.22        63.51842
959.61        63.89737
960.00        63.98646
960.39        63.42556
960.78        62.20415
961.16        60.45255
961.55        58.70475
961.94        57.64324
962.33        57.42427
962.72        57.89896
963.11        58.65882
963.49        58.98039
963.88         58.5834
964.27        57.71101
964.66         56.7538
965.04        56.35894
965.43        56.68381
965.82        57.51098
966.21        58.48985
966.60        59.06722
966.98        59.10643
967.37        58.77153
967.76        58.36369
968.15         58.3413
968.53        58.82047
968.92        59.53331
969.31        60.26857
969.69        60.68909
970.08        60.62349
970.47        60.23305
970.86        59.52619
971.24        58.47364
971.63         57.2058
972.02        55.76718
972.40        54.41906
972.79        53.64511
973.17        53.58935
973.56        54.07677
973.95        54.94326
974.33        55.84136
974.72        56.49472
975.11        56.98462
975.49        57.18908
975.88        56.93436
976.26        56.25299
976.65        55.22456
977.04         54.1165
977.42        53.42463
977.81        53.31764
978.19        53.64774
978.58        54.29789
978.96        55.03598
979.35        55.68151
979.74        56.38519
980.12        56.98218
980.51        56.95629
980.89        56.38832
981.28         55.3594
981.66        54.44677
982.05        54.47765
982.43        55.53523
982.82        57.31828
983.20        59.32079
983.59        60.32288
983.97        60.03523
984.35        58.74608
984.74        56.98992
985.12         55.5114
985.51        54.56284
985.89        53.85794
986.28        53.38743
986.66        53.19806
987.04        53.21772
987.43          53.544
987.81        53.73077
988.20        53.10166
988.58        51.45998
988.96        48.70281
989.35        45.44336
989.73        43.64547
990.12        44.35011
990.50         46.9474
990.88        49.90036
991.27         51.4566
991.65        51.58023
992.03        50.76572
992.42         49.7283
992.80        49.75196
993.18        51.22914
993.56        53.41371
993.95        55.69207
994.33        57.71511
994.71        59.12825
995.10        60.11494
995.48        60.46757
995.86        59.71646
996.24        57.83341
996.63        54.89386
997.01        51.36905
997.39        48.86361
997.77        48.21709
998.15        49.03674
998.54        50.58511
998.92         52.0187
999.30        53.14525
999.68        54.29579
1000.06        55.12146
1000.45        54.60665
1000.83        52.66948
1001.21        49.88939
1001.59        47.35704
1001.97        45.83678
1002.35        45.15219
1002.73        45.03551
1003.12        45.20183
1003.50        45.05508
1003.88        44.37754
1004.26        43.54772
1004.64        42.66694
1005.02        41.78778
1005.40        40.97686
1005.78         40.0684
1006.16        39.69311
1006.54        41.02903
1006.92        43.80993
1007.30         47.1024
1007.69        49.66328
1008.07         50.4616
1008.45        49.19895
1008.83        45.80193
1009.21        39.75516
1009.59        32.10245
1009.97        25.32244
1010.35        20.65048
1010.73        19.52448
1011.11        21.97397
1011.49        26.92662
1011.86        34.09612
1012.24        40.59555
1012.62        43.85068
1013.00        43.69649
1013.38        40.96496
1013.76        37.17381
1014.14        35.06958
1014.52        35.48144
1014.90         37.6348
1015.28        40.28149
1015.66        41.29429
1016.04        39.96723
1016.41        36.86574
1016.79        32.97009
1017.17        30.60756
1017.55        30.80557
1017.93        32.48087
1018.31        34.56334
1018.69          36.203
1019.06         37.1958
1019.44        37.61114
1019.82        37.30801
1020.20        35.83033
1020.58         33.2005
1020.95        29.84195
1021.33         25.7132
1021.71        19.55677
1022.09        9.737927
1022.46       -8.471437
1022.84       -34.84778
1023.22       -42.00826
1023.60       -16.06265
1023.97        13.05241
1024.35        29.31458
1024.73        34.21981
