SpectraSmart Spectrum 2.9.0.0
--------- Device Information -----------
Spectrum Name :  反射率_0
Saving Time :  2024/04/20 00:26:11
Spectro-Module Model Name : SE2030-DUVN
Spectro-Module Serial Number : OS361AC55029948
Wavelength Start : 200
Wavelength End : 1025
Wavelength Unit : Wavelength(nm)
Spectrum Unit : Reflectance(%)
-----------Spectrum Setting ------------
Integration Time : 30ms
Average : 10
Boxcar : 0
Background removal :  enabled
linearity correction :  enabled
SC :  disabled
Intensity correction :  disabled
DWT denoise :  enabled
savitzky-golay :  disabled
FFT :  disabled
Running average :  disabled
Kalman :  disabled
High pass :  disabled
---------------BEGIN--------------------
Wavelength(nm)             Reflectance(%)
200.29               0
200.75        48.52938
201.21        51.72375
201.67        58.01998
202.13        65.46619
202.58        72.54197
203.04        79.58449
203.50        84.64995
203.96         83.8223
204.42        78.05544
204.88        70.47553
205.34        63.64219
205.80        58.21213
206.26        53.06099
206.72         46.6995
207.18        38.69936
207.64        32.39371
208.10        32.32939
208.55         38.3981
209.01        45.45467
209.47        49.38153
209.93        50.08317
210.39        48.79782
210.85        46.93151
211.31        46.09366
211.77        46.55833
212.23        48.03795
212.69        49.75382
213.14        49.50301
213.60        46.72126
214.06        43.76804
214.52        42.07371
214.98        42.38285
215.44        44.38998
215.90        47.47639
216.36         51.4731
216.81        55.33462
217.27        57.94834
217.73        59.65254
218.19        59.42119
218.65        55.79466
219.11        48.63544
219.57        37.71935
220.02        25.49071
220.48        18.96746
220.94        20.59047
221.40        29.38861
221.86        40.32508
222.32        45.35384
222.77        42.78963
223.23         35.3433
223.69        27.68252
224.15        26.42517
224.61        31.38494
225.06        38.77177
225.52        45.10628
225.98        47.67807
226.44        46.53897
226.90        43.10507
227.36        38.54599
227.81        34.89798
228.27        33.37947
228.73        33.19425
229.19        34.00297
229.65        35.42572
230.10        37.09853
230.56        38.95656
231.02        40.68554
231.48        41.86259
231.93        42.42917
232.39        42.53897
232.85        42.22865
233.31        41.60096
233.77        40.76467
234.22        39.71558
234.68        38.74223
235.14        38.24612
235.60        38.33649
236.05        38.92556
236.51         39.7953
236.97        40.57978
237.43        41.23173
237.88        42.02939
238.34        42.88356
238.80        43.74403
239.26        44.42746
239.71        44.64183
240.17        44.75077
240.63        45.91164
241.08        48.37276
241.54        51.86168
242.00        55.09413
242.46        55.59811
242.91        52.19114
243.37        43.94421
243.83        31.30979
244.28          22.134
244.74        24.84261
245.20        38.40641
245.66        52.92241
246.11        59.46747
246.57        57.34888
247.03        47.91808
247.48        33.75259
247.94        29.27342
248.40        36.82284
248.85        46.37964
249.31        53.44675
249.77         57.4584
250.22        59.36091
250.68        60.33744
251.14        60.45662
251.59        59.29826
252.05        57.06954
252.51        53.94684
252.96        50.49841
253.42        48.18773
253.88        47.61989
254.33        48.47266
254.79        51.11088
255.25        55.56012
255.70        61.13914
256.16         67.0268
256.62        71.80539
257.07        73.91593
257.53        73.55641
257.99        71.38123
258.44          67.989
258.90        65.04398
259.35        62.66632
259.81        61.13388
260.27        59.86747
260.72        58.33268
261.18        56.70572
261.63        54.75895
262.09        53.18912
262.55        52.44661
263.00        52.43311
263.46        52.99896
263.91        53.33668
264.37        52.77312
264.83        51.30305
265.28        49.19592
265.74        47.33069
266.19        46.49843
266.65        46.82322
267.11        47.81662
267.56        48.84299
268.02        48.98588
268.47        48.07552
268.93        46.44094
269.38        44.44921
269.84        42.91999
270.30        42.07845
270.75        41.70718
271.21        41.53875
271.66        41.15562
272.12        40.43657
272.57        39.52621
273.03        38.61713
273.48        37.90355
273.94        37.47812
274.39         37.2114
274.85        36.98196
275.31        36.58794
275.76         35.9665
276.22        35.20674
276.67        34.41095
277.13        33.84062
277.58           33.48
278.04        33.28721
278.49        33.04362
278.95        32.51277
279.40        31.64248
279.86        30.62034
280.31        29.60185
280.77        28.94339
281.22        28.63541
281.68        28.58548
282.13        28.62055
282.59          28.529
283.04        28.24467
283.50         27.8706
283.95        27.44414
284.41        27.05774
284.86        26.72038
285.32        26.42459
285.77        26.17769
286.22        26.06245
286.68        26.07572
287.13         26.1743
287.59        26.28537
288.04        26.27267
288.50        26.13175
288.95        25.87153
289.41        25.58634
289.86        25.34542
290.32        25.21946
290.77        25.17568
291.22        25.20674
291.68        25.26724
292.13        25.35172
292.59        25.49256
293.04        25.72892
293.50        26.13378
293.95        26.70129
294.40        27.38932
294.86        28.12594
295.31        28.81231
295.77        29.42012
296.22        29.97264
296.68        30.49694
297.13        31.01774
297.58         31.5577
298.04        32.11343
298.49        32.69059
298.95        33.34058
299.40        34.04871
299.85        34.79524
300.31         35.5427
300.76        36.22538
301.21        36.82237
301.67        37.37344
302.12        37.84564
302.58        38.25797
303.03        38.59921
303.48        38.88896
303.94        39.20879
304.39         39.6402
304.84        40.20008
305.30        40.84795
305.75        41.46298
306.20        41.88522
306.66        42.10209
307.11        42.15006
307.57        42.13384
308.02        42.13248
308.47        42.20272
308.93        42.31231
309.38         42.4506
309.83        42.65708
310.29        42.91451
310.74        43.20892
311.19        43.44772
311.65        43.47812
312.10        43.27325
312.55        42.88519
313.00        42.44203
313.46        42.14253
313.91        42.02003
314.36        42.03384
314.82        42.09231
315.27        42.07061
315.72        41.91748
316.18        41.68352
316.63         41.4092
317.08        41.16654
317.53         40.9705
317.99        40.78445
318.44        40.58013
318.89        40.30581
319.35        39.95494
319.80        39.55782
320.25        39.14878
320.70        38.77899
321.16        38.46069
321.61        38.18441
322.06        37.93517
322.51         37.6921
322.97         37.4353
323.42        37.17287
323.87        36.88909
324.32        36.56628
324.78        36.19585
325.23         35.7953
325.68        35.36486
326.13        34.91563
326.59        34.46397
327.04        34.04181
327.49        33.67543
327.94        33.40672
328.39        33.23838
328.85        33.13139
329.30        33.09874
329.75        33.10616
330.20         33.1248
330.66        33.13288
331.11        33.08594
331.56         32.8613
332.01        32.44184
332.46        31.85741
332.92        31.21824
333.37        30.73068
333.82        30.46196
334.27        30.38512
334.72         30.4096
335.17         30.3665
335.63         30.1922
336.08        29.93695
336.53        29.68606
336.98        29.59513
337.43        29.69172
337.88        29.91888
338.34        30.10827
338.79        30.04021
339.24        29.65013
339.69        29.00793
340.14        28.32636
340.59         27.9604
341.05        27.98588
341.50          28.306
341.95        28.69424
342.40        28.79617
342.85        28.53309
343.30        28.02976
343.75        27.46071
344.20        27.10951
344.66        27.04889
345.11        27.15119
345.56        27.32873
346.01        27.44428
346.46        27.43785
346.91        27.37029
347.36        27.19752
347.81        26.83775
348.26        26.31586
348.72        25.69383
349.17          25.102
349.62        24.83795
350.07        24.96538
350.52        25.37949
350.97        25.93008
351.42        26.38801
351.87        26.66752
352.32        26.81429
352.77        26.81561
353.22         26.6614
353.67        26.37362
354.13        25.96907
354.58        25.50988
355.03        25.13927
355.48        24.90212
355.93         24.7882
356.38        24.75284
356.83        24.70875
357.28        24.62523
357.73        24.51399
358.18        24.40703
358.63        24.35851
359.08         24.3701
359.53         24.4136
359.98        24.41335
360.43        24.25962
360.88        23.94371
361.33        23.51392
361.78        23.07421
362.23        22.79356
362.68        22.71111
363.13        22.76373
363.58        22.87247
364.03        22.91487
364.48        22.84596
364.93        22.69985
365.38        22.47702
365.83        22.18161
366.28        21.83777
366.73        21.45482
367.18        21.08696
367.63        20.82156
368.08        20.67529
368.53        20.62175
368.98        20.62698
369.43        20.62893
369.88        20.60503
370.33        20.57806
370.78        20.52192
371.23         20.3969
371.68        20.20455
372.13        19.94509
372.58        19.70553
373.03        19.63859
373.48        19.76152
373.93        20.01331
374.38        20.25934
374.83         20.2924
375.28        20.06889
375.72        19.65255
376.17        19.15966
376.62        18.73948
377.07        18.45695
377.52        18.27325
377.97        18.18447
378.42        18.18195
378.87         18.2419
379.32        18.36009
379.77        18.49001
380.22         18.5547
380.67        18.53684
381.11        18.45724
381.56        18.32143
382.01        18.16758
382.46        18.01228
382.91        17.83625
383.36        17.68132
383.81        17.60813
384.26        17.62016
384.71        17.71487
385.15        17.78979
385.60        17.68651
386.05        17.38742
386.50        16.94462
386.95        16.52114
387.40        16.37561
387.85         16.5469
388.29        16.93381
388.74        17.34888
389.19        17.52608
389.64        17.41017
390.09        17.07982
390.54        16.67257
390.98        16.40365
391.43        16.34757
391.88        16.42392
392.33        16.52122
392.78        16.48167
393.23        16.28442
393.67        15.98646
394.12        15.71134
394.57        15.56757
395.02        15.57654
395.47        15.69627
395.91        15.85174
396.36        15.89695
396.81         15.8012
397.26        15.60664
397.71        15.40433
398.15        15.31487
398.60        15.37788
399.05        15.53758
399.50        15.70265
399.95        15.74537
400.39        15.63786
400.84        15.41431
401.29        15.16448
401.74        15.05193
402.18        15.12506
402.63        15.32623
403.08        15.53282
403.53        15.54968
403.97        15.34042
404.42        14.98106
404.87        14.60923
405.32        14.44806
405.76        14.54616
406.21        14.82486
406.66        15.15421
407.11        15.33267
407.55        15.30867
408.00        15.14785
408.45         14.9295
408.90         14.7551
409.34        14.68476
409.79        14.74695
410.24        14.87727
410.68        14.91903
411.13         14.8536
411.58        14.76439
412.03        14.67134
412.47        14.58486
412.92         14.5162
413.37        14.45231
413.81        14.41889
414.26           14.47
414.71        14.60086
415.15        14.80526
415.60        14.98698
416.05        15.01164
416.49        14.84922
416.94        14.54563
417.39        14.21142
417.83        14.02732
418.28        14.04307
418.73         14.1975
419.17        14.39644
419.62        14.47938
420.07        14.41252
420.51        14.25096
420.96        14.06254
421.41        13.93356
421.85        13.88589
422.30        13.89621
422.74         13.9388
423.19        14.00476
423.64        14.07541
424.08        14.16189
424.53        14.23025
424.98        14.24434
425.42        14.19918
425.87        14.10835
426.31        13.98733
426.76        13.87083
427.21        13.76306
427.65        13.65086
428.10        13.57259
428.54        13.56742
428.99         13.6415
429.44         13.8419
429.88         14.0576
430.33        14.02107
430.77        13.77206
431.22        13.60076
431.66        13.57304
432.11        13.63619
432.56        13.78121
433.00        14.06125
433.45        14.30527
433.89        14.25346
434.34        13.98724
434.78        13.67106
435.23        13.33878
435.67        13.93593
436.12        13.52172
436.57        13.52877
437.01         13.4079
437.46        13.36792
437.90        13.40668
438.35        13.42428
438.79         13.4046
439.24        13.38293
439.68        13.35823
440.13         13.2083
440.57        13.01415
441.02        13.11602
441.46        13.38817
441.91         13.4203
442.35        12.88697
442.80         12.6725
443.24        12.64421
443.69        12.53132
444.13        12.34264
444.58        12.23717
445.02        12.22916
445.47        12.30613
445.91           12.42
446.36        12.46448
446.80        12.41336
447.24        12.31208
447.69        12.19703
448.13        12.09531
448.58        12.02723
449.02        11.98224
449.47        11.94714
449.91        11.89694
450.36        11.83192
450.80        11.75934
451.25        11.70687
451.69        11.70073
452.13        11.74673
452.58        11.82424
453.02        11.90561
453.47        11.94608
453.91        11.93746
454.36        11.89376
454.80        11.82818
455.24        11.76554
455.69        11.72242
456.13        11.67805
456.58        11.65425
457.02        11.67631
457.46        11.74189
457.91        11.81555
458.35        11.87056
458.79        11.89197
459.24        11.87213
459.68        11.81602
460.13        11.78509
460.57        11.75977
461.01        11.73933
461.46        12.03034
461.90         12.1398
462.34        12.02879
462.79        12.08991
463.23        11.93057
463.68        11.77641
464.12         11.6765
464.56        11.74649
465.01        11.87838
465.45        12.01491
465.89        12.08465
466.34        12.07608
466.78        11.97569
467.22        11.83976
467.67        11.84289
468.11        11.96746
468.55          11.968
468.99        11.85749
469.44        11.85096
469.88        11.95362
470.32         12.0432
470.77        12.08899
471.21         12.1055
471.65        12.08696
472.10        12.03367
472.54        11.97034
472.98        11.96813
473.42        12.03671
473.87        12.11709
474.31         12.1924
474.75        12.30794
475.20        12.42977
475.64        12.43295
476.08        12.34838
476.52        12.33468
476.97        12.40196
477.41        12.47389
477.85         12.5312
478.29        12.58124
478.74        12.62028
479.18         12.6243
479.62        12.61957
480.06        12.65359
480.50        12.71703
480.95        12.73753
481.39        12.71275
481.83        12.69927
482.27        12.70539
482.72        12.71861
483.16        12.74203
483.60        12.79079
484.04        12.86026
484.48        12.97995
484.93        13.20793
485.37        13.35508
485.81        13.46257
486.25        13.96929
486.69        14.32578
487.14        13.74088
487.58        13.66977
488.02        14.58942
488.46        14.05749
488.90        14.14424
489.34        14.00049
489.79        14.11871
490.23        14.43256
490.67        14.66122
491.11        14.76154
491.55        14.71139
491.99        14.56033
492.43        14.48867
492.88        14.53047
493.32        14.55496
493.76         14.5883
494.20        14.74047
494.64        15.01365
495.08         15.3639
495.52        15.72436
495.96        16.00444
496.41        16.17928
496.85        16.24432
497.29        16.24818
497.73        16.34922
498.17        16.54679
498.61        16.65304
499.05        16.67997
499.49         16.8165
499.93        17.06977
500.37        17.29377
500.82        17.47112
501.26        17.71859
501.70        17.98544
502.14        18.03701
502.58        17.91576
503.02        17.89694
503.46        18.00566
503.90         18.1029
504.34        18.16339
504.78         18.2064
505.22         18.2264
505.66        18.22738
506.10         18.2289
506.54        18.25746
506.98        18.32219
507.42         18.4179
507.86        18.53404
508.30        18.65287
508.74        18.76463
509.18        18.86707
509.62        18.96635
510.06        19.07257
510.50        19.18752
510.94        19.31222
511.38        19.41868
511.82        19.46296
512.26        19.44038
512.70        19.36208
513.14        19.28871
513.58        19.31346
514.02        19.44385
514.46        19.64991
514.90        19.85247
515.34          19.867
515.78        19.69358
516.22        19.46107
516.66        19.27063
517.10        18.93197
517.54        18.47805
517.98        19.04867
518.42        18.92409
518.86        19.19478
519.30        19.32426
519.74        19.48081
520.18        19.61709
520.62        19.63544
521.06          19.544
521.50        19.35316
521.93        19.12331
522.37        18.96535
522.81        18.90867
523.25        18.92709
523.69        18.98312
524.13        19.01492
524.57        19.00094
525.01         18.9568
525.45        18.89792
525.89        18.84718
526.32        18.80944
526.76        18.77649
527.20        18.72668
527.64        18.63285
528.08        18.49268
528.52        18.31727
528.96        18.14577
529.40        18.03412
529.83          17.993
530.27        18.01232
530.71        18.04092
531.15         17.9983
531.59          17.871
532.03        17.68481
532.46        17.50092
532.90        17.43165
533.34        17.48785
533.78          17.626
534.22        17.77577
534.66           17.83
535.09        17.76114
535.53        17.61523
535.97        17.43244
536.41        17.27332
536.85        17.16418
537.28        17.09568
537.72        17.08138
538.16        17.08898
538.60        17.19545
539.04        17.32202
539.47        17.45177
539.91        17.56372
540.35        17.65846
540.79        17.59274
541.22        17.62134
541.66        17.66325
542.10        17.81214
542.54        17.76588
542.97        17.98361
543.41        18.11756
543.85        18.28826
544.29        18.45662
544.72        18.59568
545.16        18.71702
545.60        18.81472
546.04        18.82779
546.47        18.82984
546.91        19.05816
547.35        19.46935
547.79        19.80284
548.22         19.9989
548.66        20.10196
549.10        20.14497
549.53        20.27772
549.97        20.53041
550.41        20.57647
550.84        20.80386
551.28        20.99596
551.72        21.26336
552.15        21.52809
552.59        21.77827
553.03        22.02277
553.46        22.23326
553.90        22.38837
554.34        22.48586
554.77        22.53449
555.21        22.56561
555.65        22.61891
556.08        22.70307
556.52        22.80588
556.96        22.92154
557.39        23.06861
557.83        23.23344
558.27        23.35699
558.70        23.43155
559.14        23.49167
559.57        23.53222
560.01        23.55963
560.45        23.57915
560.88        23.57001
561.32        23.58713
561.75        23.68386
562.19        23.92622
562.63        24.07683
563.06        24.14395
563.50        24.20429
563.93        24.26729
564.37        24.39207
564.80        24.47185
565.24        24.59854
565.68        24.71394
566.11         24.8189
566.55        24.92952
566.98         24.9879
567.42        25.00372
567.85        25.33825
568.29        25.32681
568.72        25.66295
569.16        26.07858
569.60        26.37572
570.03        26.51406
570.47        26.62888
570.90        26.63249
571.34        26.93292
571.77        26.91111
572.21        27.22535
572.64        27.63739
573.08        27.76333
573.51        27.81037
573.95        28.12006
574.38        28.45731
574.82        28.58908
575.25        28.84628
575.69        28.66595
576.12        28.53025
576.56        28.49891
576.99         28.6758
577.42        28.89501
577.86        28.79193
578.29        28.81994
578.73        29.19539
579.16        28.93287
579.60        28.78068
580.03        28.45861
580.47         28.5579
580.90        28.23653
581.33        28.04441
581.77        28.20317
582.20        28.54166
582.64        28.04575
583.07        27.72812
583.51        27.71161
583.94        27.29248
584.37        27.10773
584.81        26.85664
585.24        26.75002
585.68         26.7217
586.11        26.58849
586.54        26.53856
586.98        26.21269
587.41         26.2147
587.85        26.21691
588.28        26.29154
588.71        26.15895
589.15        25.91479
589.58        25.42827
590.01        25.66494
590.45        25.99885
590.88        25.91675
591.31         25.8266
591.75        25.51357
592.18        25.63019
592.61        25.56911
593.05        25.96354
593.48        25.72921
593.91         26.3996
594.35        26.05279
594.78        26.23743
595.21        26.33106
595.65        26.59713
596.08        26.72235
596.51        26.81306
596.94        26.84718
597.38        26.97153
597.81        27.26365
598.24        27.32816
598.68        27.86196
599.11         28.2254
599.54        28.97894
599.97         29.0564
600.41        29.37022
600.84        29.98739
601.27        30.46108
601.70        30.83614
602.14        30.95959
602.57        31.39116
603.00        32.12969
603.43        32.71619
603.87         33.0959
604.30          33.644
604.73        34.36746
605.16        34.50438
605.60        34.96422
606.03        35.46571
606.46        36.15098
606.89        36.74748
607.32        37.37777
607.76        37.39891
608.19        38.03892
608.62        38.44369
609.05        38.59356
609.48        38.88521
609.92        39.41327
610.35        39.47267
610.78        40.27364
611.21        40.86907
611.64        40.78175
612.07        41.32419
612.50        41.78249
612.94        41.67987
613.37        42.26375
613.80        42.53292
614.23          42.961
614.66        43.08125
615.09        43.71735
615.52        44.15659
615.96        44.52872
616.39         44.8564
616.82        45.20372
617.25        44.95452
617.68        45.26691
618.11        45.66451
618.54        46.04581
618.97        46.17189
619.40         45.9659
619.84        46.23948
620.27        46.11615
620.70         46.6012
621.13        47.26376
621.56        47.44312
621.99        47.26583
622.42        47.27998
622.85        47.56726
623.28        47.78059
623.71        47.89439
624.14        47.94715
624.57        47.78792
625.00         47.6623
625.43         47.9184
625.86        47.10561
626.29        47.11632
626.72        47.05248
627.15        46.85519
627.58          46.872
628.01        46.83285
628.44        46.81325
628.87        46.46958
629.30        45.95867
629.73        45.51728
630.16        45.07872
630.59        44.70255
631.02        44.39315
631.45        44.10467
631.88        43.73677
632.31        43.25705
632.74        42.84072
633.17        42.24668
633.60        41.68948
634.03        41.10904
634.46        40.51083
634.89         39.9172
635.32        39.36994
635.75        38.88171
636.18        38.44588
636.61        38.03524
637.04        37.59808
637.47        37.11862
637.89        36.61208
638.32        36.09638
638.75        35.62651
639.18         35.2219
639.61         34.8725
640.04         34.5573
640.47        34.23858
640.90        33.90779
641.33        33.58107
641.76        33.28157
642.18        33.04837
642.61        32.88519
643.04        32.77882
643.47        32.71303
643.90        32.66147
644.33         32.6175
644.76        32.59524
645.18        32.59624
645.61        32.62461
646.04        32.68577
646.47        32.77804
646.90        32.92449
647.33        33.16335
647.75        33.49595
648.18        33.90269
648.61        34.34588
649.04        34.75411
649.47        35.11891
649.89         35.4873
650.32        35.88533
650.75        36.33414
651.18        36.87921
651.61        37.50539
652.03        38.22385
652.46        39.19069
652.89        40.30086
653.32        40.94703
653.74        41.19013
654.17        41.87204
654.60        42.53298
655.03        43.44162
655.46         43.3835
655.88        45.15688
656.31        46.10781
656.74        53.30749
657.16        51.21601
657.59        47.89161
658.02        48.17402
658.45        48.23055
658.87        49.12738
659.30        49.45321
659.73        50.22493
660.15        51.17376
660.58        50.94193
661.01        51.05428
661.44         51.1713
661.86        51.51834
662.29        52.08389
662.72        52.83172
663.14        53.60855
663.57        53.87066
664.00        53.72519
664.42        53.85366
664.85        54.31875
665.27        54.68468
665.70        54.90114
666.13         55.1282
666.55        55.36562
666.98        55.56887
667.41        55.75113
667.83        55.92451
668.26        56.08267
668.69        56.23841
669.11        56.39545
669.54        56.52278
669.96        56.61955
670.39        56.79284
670.82          56.978
671.24        57.06824
671.67        57.11644
672.09        57.46613
672.52        58.00996
672.94        58.28881
673.37        58.25098
673.80         58.0588
674.22        57.84719
674.65        57.76922
675.07         57.8774
675.50        58.25134
675.92        58.49474
676.35        58.72773
676.77        58.82032
677.20        58.82547
677.62        58.78469
678.05        58.77839
678.47        58.82924
678.90        58.91049
679.32        59.02142
679.75        59.15044
680.17        59.28082
680.60         59.4691
681.02        59.68432
681.45        59.70575
681.87        59.59803
682.30        59.73559
682.72        60.05378
683.15        60.11393
683.57          59.864
684.00        59.82124
684.42        60.05585
684.85        60.42444
685.27         60.3017
685.70        60.43098
686.12        60.60669
686.54        60.73846
686.97        60.80897
687.39        60.85447
687.82        60.88152
688.24        60.91275
688.66        60.94949
689.09        60.98233
689.51        61.01722
689.94        61.02962
690.36        61.03713
690.78        61.04128
691.21        61.05005
691.63        61.07671
692.06         61.3867
692.48        61.29163
692.90        61.43513
693.33        61.87967
693.75        61.73362
694.17        61.84787
694.60        61.90809
695.02        61.87371
695.44          61.734
695.87        61.76143
696.29        61.92096
696.71        61.68832
697.14        61.32063
697.56        61.68043
697.98        62.51071
698.41        63.30425
698.83        63.25307
699.25        62.35418
699.68        62.70143
700.10         62.5263
700.52        62.48341
700.94        62.57846
701.37        62.74167
701.79        62.87568
702.21        62.90571
702.64         62.8861
703.06        62.85521
703.48        62.88299
703.90        62.98793
704.33         63.1441
704.75        63.29935
705.17        63.32824
705.59        63.20909
706.01        63.04663
706.44        62.83712
706.86        62.84957
707.28        63.07484
707.70        63.45325
708.12        63.85912
708.55        64.09456
708.97        64.11902
709.39        64.00003
709.81        63.79747
710.23        63.71977
710.66        63.61621
711.08        63.63567
711.50        63.70535
711.92         63.7704
712.34        63.81029
712.76        63.93537
713.19        64.14733
713.61         64.0228
714.03        64.27592
714.45        64.30033
714.87        64.33604
715.29        64.42232
715.71        64.57367
716.13        64.68343
716.56        64.84463
716.98        64.93678
717.40        64.96722
717.82        64.94112
718.24        64.89458
718.66        64.88271
719.08         64.9203
719.50        64.99559
719.92        65.07047
720.34        65.09427
720.76        65.06174
721.19        64.94823
721.61        64.81491
722.03        64.83643
722.45        65.02071
722.87        65.02543
723.29        65.07317
723.71        65.12601
724.13         65.2515
724.55        65.35199
724.97        65.43451
725.39        65.55587
725.81        65.71265
726.23        65.87751
726.65         66.0381
727.07        66.18226
727.49        66.30132
727.91        66.39836
728.33        66.46023
728.75         66.4638
729.17        66.41502
729.59        66.33307
730.01        66.24718
730.43        66.21308
730.85        66.24639
731.27        66.29446
731.69        66.36034
732.10        66.53671
732.52        66.76613
732.94        66.85763
733.36        66.78235
733.78        66.73064
734.20        66.73601
734.62        66.58796
735.04        66.28119
735.46        66.55708
735.88        66.31823
736.30        66.37206
736.72         66.4407
737.13        66.66872
737.55        66.95026
737.97        67.31068
738.39        67.60055
738.81        67.31569
739.23        66.66856
739.65        66.54838
740.06        66.86935
740.48        67.35775
740.90        67.19199
741.32        66.72601
741.74        66.58144
742.16        66.47749
742.57        66.67643
742.99        66.91987
743.41        67.14414
743.83        67.31037
744.25        67.37521
744.67        67.34061
745.08        67.23759
745.50        67.09993
745.92        66.96252
746.34        66.80869
746.75         66.6701
747.17        66.59943
747.59         66.6176
748.01        66.73272
748.42        66.89329
748.84        67.04766
749.26        67.19498
749.68        67.10976
750.09        66.90778
750.51        67.31157
750.93        68.07955
751.35        67.97176
751.76         67.1269
752.18        66.77229
752.60        66.95827
753.01        67.17227
753.43         67.0499
753.85        67.09531
754.27        67.20644
754.68        67.35967
755.10        67.51442
755.52         67.5472
755.93        67.48692
756.35         67.5168
756.77        67.62759
757.18        67.71671
757.60        67.82347
758.02        67.88143
758.43        67.78683
758.85        68.20995
759.26        68.10316
759.68        67.76013
760.10        67.52497
760.51        67.76598
760.93        67.63717
761.34        67.11156
761.76        67.48097
762.18        67.28598
762.59        67.09476
763.01        67.21008
763.42        67.63609
763.84        67.90785
764.26        67.96154
764.67        67.72154
765.09        67.43565
765.50        67.73621
765.92         68.4925
766.33        68.88277
766.75        68.72346
767.16        68.31759
767.58        67.78738
768.00        67.37157
768.41        67.25958
768.83        67.49223
769.24        67.96532
769.66        68.48502
770.07        68.86616
770.49        68.83001
770.90        68.50348
771.32        68.54088
771.73        68.91615
772.15        68.94841
772.56        68.64433
772.97        68.46666
773.39        68.40453
773.80        68.24165
774.22        67.96463
774.63        67.66222
775.05        67.43967
775.46        67.46876
775.88        67.75407
776.29        68.27912
776.70        68.80914
777.12        68.98005
777.53        68.72303
777.95        68.11373
778.36        67.43865
778.77        67.18318
779.19        67.46468
779.60        68.18685
780.02        68.99114
780.43         69.4842
780.84         69.5515
781.26        68.88649
781.67         67.9473
782.09         68.5181
782.50        70.20309
782.91        70.40204
783.33        69.17945
783.74        68.80956
784.15        69.35485
784.57        69.51205
784.98        69.21056
785.39        68.88686
785.81        68.60137
786.22        68.41548
786.63        68.36201
787.04        68.34715
787.46        68.37711
787.87         68.5452
788.28        68.81221
788.70         69.0267
789.11        69.15075
789.52        69.23762
789.93        69.30727
790.35         69.3579
790.76        69.39909
791.17        69.45641
791.58        69.50747
792.00        69.36257
792.41        69.02747
792.82        68.87698
793.23         68.8472
793.65        68.24121
794.06        67.38778
794.47        67.58922
794.88        68.63955
795.29        69.64422
795.71        69.38026
796.12        69.68705
796.53        70.15572
796.94        69.82059
797.35          68.869
797.76        68.58176
798.18        68.98373
798.59         69.0929
799.00        68.87881
799.41        68.98263
799.82        69.36158
800.23         69.5959
800.64        69.63292
801.06        69.55698
801.47        69.45697
801.88        69.42138
802.29        69.46613
802.70        69.51533
803.11        69.52753
803.52        69.45219
803.93        69.29968
804.34        69.14276
804.75        68.95599
805.17         68.7754
805.58        68.68761
805.99        68.34939
806.40        67.95222
806.81        68.77262
807.22        70.35687
807.63        70.29677
808.04        68.86013
808.45        68.58015
808.86        69.61268
809.27        70.49962
809.68        70.97292
810.09        71.28217
810.50         71.3245
810.91        71.03021
811.32        70.53619
811.73        70.03314
812.14        69.59638
812.55        69.31785
812.96        69.17483
813.37        68.86436
813.78        68.52084
814.19        68.72926
814.60        69.30025
815.01         69.7979
815.42        69.50657
815.83        69.32196
816.24        69.16619
816.65        69.09963
817.05        69.18087
817.46        69.36282
817.87        69.57307
818.28        69.63642
818.69        69.53292
819.10        69.32394
819.51        69.12397
819.92        69.17913
820.33        69.54749
820.74        69.99165
821.14        70.43232
821.55        71.04247
821.96        71.62077
822.37        71.47915
822.78        70.74702
823.19        70.30486
823.60        70.26369
824.00        70.18164
824.41        69.99542
824.82        69.91284
825.23        69.93267
825.64        70.01341
826.04        70.15679
826.45        70.31111
826.86        70.46104
827.27        70.60537
827.68        70.69491
828.08        70.67455
828.49        70.48542
828.90        70.17538
829.31        69.82164
829.72         69.5667
830.12        69.48041
830.53        69.50004
830.94        69.59135
831.35        69.66158
831.75        69.70323
832.16        69.70619
832.57        69.70309
832.97        69.72166
833.38         69.7537
833.79        69.78005
834.20        69.80824
834.60        69.85168
835.01        69.92473
835.42        70.03025
835.82        70.13364
836.23        70.12189
836.64        69.99782
837.04        69.78797
837.45         69.5824
837.86        69.57166
838.26         69.8027
838.67        70.18885
839.08        70.58559
839.48        70.71014
839.89           70.49
840.29        70.04211
840.70        69.57298
841.11         69.3141
841.51        69.34438
841.92        69.54078
842.33        69.88223
842.73        70.33664
843.14        70.77209
843.54        71.25533
843.95        71.61884
844.35        71.66472
844.76         71.3754
845.17        70.82912
845.57        70.23641
845.98        69.95107
846.38        70.05289
846.79        70.43526
847.19        70.99831
847.60         71.4229
848.00        71.64594
848.41        71.69086
848.81        71.64991
849.22        71.58076
849.62        71.55246
850.03        71.49244
850.43        71.42541
850.84        71.31568
851.24        71.21697
851.65        71.10408
852.05        71.05107
852.46        71.07314
852.86        71.17668
853.27        71.30457
853.67        71.37541
854.07        71.52756
854.48        71.66498
854.88        71.52666
855.29         71.1258
855.69        70.91019
856.10        70.86117
856.50        70.84232
856.90        70.80537
857.31        70.78685
857.71        70.84875
858.12        70.93834
858.52        71.04924
858.92        71.05537
859.33        70.92239
859.73         70.6953
860.13        70.48958
860.54         70.5365
860.94        70.93102
861.34        71.55538
861.75        72.12424
862.15        72.27409
862.55        71.88484
862.96        71.11733
863.36        70.21935
863.76        69.58501
864.17         69.3484
864.57        69.41122
864.97         69.7121
865.38        70.13581
865.78        70.65441
866.18        71.22441
866.58        71.68716
866.99        71.76239
867.39        71.42258
867.79         70.7164
868.19        69.73437
868.60        68.62276
869.00        67.44497
869.40        66.24541
869.80        65.28315
870.21        64.95869
870.61        65.39005
871.01        66.40838
871.41        67.59953
871.81        68.28844
872.22        68.32864
872.62        67.91573
873.02        67.25983
873.42        66.95627
873.82        66.94032
874.22        66.48616
874.63        65.89273
875.03        65.87098
875.43        66.50256
875.83         68.6552
876.23        68.92307
876.63        68.56886
877.03        66.98162
877.44        64.31792
877.84        133.3547
878.24        64.04128
878.64         65.4459
879.04        69.73621
879.44        66.10542
879.84        64.06637
880.24        68.83988
880.64        69.06303
881.04        65.87624
881.44        63.86313
881.84        63.73915
882.24        64.76161
882.65        66.25371
883.05        66.85313
883.45        66.14835
883.85        64.92845
884.25        63.80938
884.65        63.38182
885.05        63.81955
885.45         64.8896
885.85         66.1496
886.25        66.88792
886.65        66.88504
887.05        66.35892
887.45         65.6703
887.85        65.35793
888.25        65.56165
888.65        66.11584
889.04        66.77099
889.44        67.03545
889.84        66.81589
890.24        66.28877
890.64        65.71935
891.04        65.48808
891.44         65.6588
891.84        66.05662
892.24        66.49097
892.64        66.64703
893.04        66.43381
893.44        66.01496
893.83         65.4144
894.23        64.67769
894.63        63.85531
895.03        62.93985
895.43        62.16873
895.83        61.94666
896.23        62.33406
896.63        63.21204
897.02        64.22807
897.42        64.71399
897.82        64.50599
898.22        63.81427
898.62        62.93701
899.01        62.33659
899.41        62.18426
899.81        62.31644
900.21        62.67477
900.61        63.18549
901.00        63.77001
901.40        64.41043
901.80        65.01186
902.20        65.38857
902.59        65.49254
902.99        65.36732
903.39        65.01329
903.79        64.45544
904.18        63.76249
904.58         63.0079
904.98        62.43349
905.38        62.40082
905.77        62.94414
906.17        63.94879
906.57         65.0694
906.96        65.77862
907.36        65.88579
907.76        65.50594
908.15        64.92694
908.55         64.5739
908.95        64.58324
909.34        64.86622
909.74        65.12148
910.14        64.82332
910.53        63.88382
910.93        62.57578
911.33        61.41835
911.72        61.21697
912.12        62.06438
912.52        63.59937
912.91        65.27724
913.31        66.17828
913.70        66.12157
914.10        65.37563
914.49        64.16216
914.89         63.0579
915.29        62.34233
915.68        61.88029
916.08        61.76899
916.47        62.13104
916.87        62.87228
917.26        63.94355
917.66        65.02307
918.05        65.59841
918.45        65.51611
918.84        64.96519
919.24        64.08778
919.64        63.15525
920.03        62.32885
920.42        61.56829
920.82        61.13917
921.21        61.40415
921.61        62.32077
922.00         63.8049
922.40         65.3048
922.79        66.14198
923.19        66.13274
923.58        65.20931
923.98        63.63438
924.37        62.74984
924.77        63.10387
925.16        60.48826
925.55        62.03721
925.95        61.86227
926.34        62.08278
926.74        62.49582
927.13        63.11552
927.52        63.72484
927.92        64.21661
928.31        64.69985
928.70        65.03582
929.10        65.04701
929.49        64.71551
929.89        64.08323
930.28        63.46638
930.67        63.38057
931.07        63.89081
931.46        64.89314
931.85        65.94607
932.24         66.3865
932.64        66.05676
933.03        65.05124
933.42        63.73994
933.82        62.90533
934.21        62.77089
934.60        63.13329
934.99         63.4061
935.39        63.10164
935.78        62.16636
936.17        60.12191
936.56        57.21467
936.96        58.42387
937.35        57.60462
937.74        59.53895
938.13        61.52187
938.53         62.9145
938.92        63.63331
939.31        63.92519
939.70          63.986
940.09        63.98897
940.49        64.03967
940.88        64.07891
941.27         64.1212
941.66        64.24112
942.05        64.43447
942.44        64.67172
942.84        64.96277
943.23        65.31601
943.62        65.69029
944.01        66.11946
944.40        66.36672
944.79        66.05658
945.18        65.13538
945.57         63.6621
945.97        62.19677
946.36        61.68972
946.75        62.42463
947.14        64.05458
947.53        65.77121
947.92        66.46298
948.31        65.94207
948.70        64.55175
949.09        62.87475
949.48        61.93523
949.87        62.04763
950.26        62.88463
950.65         64.0009
951.04        64.65962
951.43        64.62219
951.82        64.14413
952.21        63.45722
952.60         62.9121
952.99        62.63185
953.38        62.46941
953.77         62.3784
954.16        62.31555
954.55        62.24651
954.94        62.22176
955.33        62.18925
955.72         62.0267
956.11        61.73009
956.50        61.34421
956.89        60.97724
957.28        60.85248
957.66        61.04351
958.05        61.37104
958.44        61.78353
958.83        62.21895
959.22        62.62308
959.61        63.02105
960.00         63.1936
960.39        62.75912
960.78        61.69884
961.16        60.16652
961.55        58.66126
961.94        57.81783
962.33        57.79029
962.72        58.41614
963.11        59.38242
963.49        60.13463
963.88        60.39342
964.27         60.3245
964.66        60.09425
965.04        59.99513
965.43        60.11066
965.82        60.34028
966.21        60.55765
966.60        60.58542
966.98        60.40339
967.37        60.06958
967.76        59.78888
968.15         59.8481
968.53        60.30602
968.92        60.98212
969.31        61.64258
969.69         61.8992
970.08        61.59305
970.47        60.87553
970.86        59.89923
971.24        58.88675
971.63        58.00428
972.02        57.22237
972.40        56.57111
972.79        56.12845
973.17        55.92406
973.56         55.8835
973.95        56.05733
974.33        56.48772
974.72        57.02637
975.11        57.63845
975.49         58.0663
975.88        57.92231
976.26        57.17138
976.65        55.97416
977.04        54.64053
977.42        53.72333
977.81        53.42634
978.19        53.58287
978.58        54.08998
978.96        54.74802
979.35        55.38848
979.74        56.16564
980.12        56.91571
980.51        57.10722
980.89        56.78379
981.28        55.99054
981.66        55.26987
982.05        55.41853
982.43        56.52131
982.82        58.30157
983.20        60.23903
983.59         61.0959
983.97        60.59782
984.35        59.03803
984.74        57.06669
985.12        55.59877
985.51        54.93231
985.89        54.79102
986.28        54.97353
986.66        55.10717
987.04        54.98513
987.43        54.81409
987.81        54.50507
988.20        53.86573
988.58        52.79156
988.96        51.12935
989.35        49.15291
989.73        47.82844
990.12        47.75732
990.50        48.79909
990.88        50.13742
991.27        50.73786
991.65         50.6378
992.03        50.10281
992.42        49.71149
992.80        50.44368
993.18        52.49424
993.56        55.19447
993.95        57.85903
994.33        60.03539
994.71        61.39043
995.10        62.10598
995.48        62.12492
995.86        61.24976
996.24        59.51273
996.63        56.93131
997.01        53.85551
997.39        51.54745
997.77        50.70685
998.15         51.0911
998.54        52.09685
998.92        52.96518
999.30        53.48629
999.68        53.88116
1000.06        53.88317
1000.45        52.93945
1000.83        51.22928
1001.21        49.15627
1001.59        47.39404
1001.97         46.3649
1002.35        45.91063
1002.73        45.85736
1003.12        46.05967
1003.50        46.21455
1003.88        46.16304
1004.26        46.10949
1004.64        45.92736
1005.02        45.41333
1005.40        44.56125
1005.78        43.24996
1006.16        42.16594
1006.54        42.68033
1006.92        44.75072
1007.30        47.53968
1007.69        49.72907
1008.07        50.11583
1008.45        48.31292
1008.83        44.15149
1009.21        37.36374
1009.59        29.98205
1009.97        25.12996
1010.35        23.69893
1010.73        25.52218
1011.11        28.80341
1011.49        32.45722
1011.86        36.91495
1012.24        40.54137
1012.62        42.24449
1013.00        42.03833
1013.38        40.23673
1013.76        37.75171
1014.14        36.31181
1014.52        36.41823
1014.90         37.6213
1015.28        39.11477
1015.66        39.46459
1016.04        38.19814
1016.41        35.69371
1016.79        32.60322
1017.17         30.5091
1017.55         30.2067
1017.93        31.00035
1018.31        32.25478
1018.69        33.49029
1019.06        34.50217
1019.44        35.19488
1019.82        35.27894
1020.20        33.98807
1020.58         31.1592
1020.95        27.27499
1021.33        22.38806
1021.71        15.25361
1022.09        4.043213
1022.46       -16.53194
1022.84       -46.86804
1023.22       -57.48764
1023.60       -31.04222
1023.97       0.5085117
1024.35        18.71617
1024.73        24.91505
