SpectraSmart Spectrum 2.9.0.0
--------- Device Information -----------
Spectrum Name :  反射率_0
Saving Time :  2024/04/20 00:26:23
Spectro-Module Model Name : SE2030-DUVN
Spectro-Module Serial Number : OS361AC55029948
Wavelength Start : 200
Wavelength End : 1025
Wavelength Unit : Wavelength(nm)
Spectrum Unit : Reflectance(%)
-----------Spectrum Setting ------------
Integration Time : 30ms
Average : 10
Boxcar : 0
Background removal :  enabled
linearity correction :  enabled
SC :  disabled
Intensity correction :  disabled
DWT denoise :  enabled
savitzky-golay :  disabled
FFT :  disabled
Running average :  disabled
Kalman :  disabled
High pass :  disabled
---------------BEGIN--------------------
Wavelength(nm)             Reflectance(%)
200.29               0
200.75        50.34801
201.21        51.20388
201.67         54.4704
202.13        60.43191
202.58        68.84867
203.04        80.02283
203.50        90.28568
203.96        91.19641
204.42         83.0124
204.88        71.50246
205.34        61.49267
205.80        54.86608
206.26        50.38057
206.72        46.42192
207.18        42.60007
207.64        40.04936
208.10        40.47039
208.55        44.16405
209.01         48.2234
209.47        50.75296
209.93        51.71049
210.39        51.59357
210.85        50.83831
211.31        50.00016
211.77        49.16903
212.23        48.09229
212.69        47.02754
213.14         47.1468
213.60        48.28728
214.06        50.10843
214.52        51.79797
214.98        53.07972
215.44        54.07822
215.90        54.70932
216.36        55.31184
216.81        56.42209
217.27        57.88168
217.73        59.54569
218.19        60.03043
218.65        57.35313
219.11        51.17489
219.57        41.61985
220.02        30.70559
220.48        24.40327
220.94        24.81607
221.40        31.05337
221.86        39.25791
222.32        43.26204
222.77        41.66853
223.23        36.57497
223.69        31.28209
224.15        30.46749
224.61        33.97628
225.06        39.06807
225.52        43.33997
225.98        45.03361
226.44        44.16793
226.90        41.74731
227.36        38.38214
227.81        35.13707
228.27         33.0075
228.73        31.65508
229.19        31.30351
229.65        32.19194
230.10        33.99227
230.56        36.33784
231.02        38.61824
231.48        40.07268
231.93        40.59705
232.39        40.46688
232.85         39.8981
233.31        39.24604
233.77        38.67729
234.22        38.11621
234.68        37.65646
235.14         37.3707
235.60        37.29096
236.05        37.42139
236.51        37.82575
236.97        38.57459
237.43        39.76625
237.88        41.69646
238.34        44.04449
238.80        45.81357
239.26         46.1907
239.71         45.0393
240.17        43.42818
240.63        43.61993
241.08        46.15298
241.54        50.50428
242.00         54.9759
242.46        56.39852
242.91        53.29362
243.37        44.77035
243.83        31.42904
244.28        21.91725
244.74        25.36269
245.20        40.50199
245.66        56.16227
246.11        62.34216
246.57        58.15779
247.03        44.57678
247.48        25.72347
247.94        21.59716
248.40        34.17128
248.85        49.19654
249.31        59.78682
249.77        64.57377
250.22        65.16544
250.68        63.18559
251.14        59.79126
251.59        57.43484
252.05        57.66971
252.51        59.89621
252.96         62.3266
253.42        62.13729
253.88        58.96231
254.33        54.43425
254.79        51.27713
255.25        51.70267
255.70        55.29689
256.16        60.49313
256.62        65.24224
257.07        67.32548
257.53        66.80095
257.99        64.50508
258.44        61.43743
258.90        59.56945
259.35        58.66859
259.81        58.53111
260.27        58.17099
260.72        56.76299
261.18        54.61826
261.63          51.739
262.09        49.19108
262.55        47.93806
263.00        47.94767
263.46        48.86637
263.91        49.56886
264.37        48.98016
264.83        47.11398
265.28        44.42233
265.74        42.07152
266.19        41.25977
266.65        42.10004
267.11        43.89886
267.56        45.73046
268.02         46.2869
268.47        45.33488
268.93         43.3402
269.38        40.84231
269.84         38.9549
270.30        38.01115
270.75         37.7094
271.21        37.70446
271.66        37.47105
272.12         36.8448
272.57        36.00808
273.03        35.17759
273.48        34.57219
273.94        34.28411
274.39        34.17521
274.85        34.06424
275.31        33.68147
275.76        32.96839
276.22         32.0372
276.67        31.10618
277.13        30.59652
277.58         30.5071
278.04        30.72762
278.49        30.88877
278.95        30.53259
279.40        29.58038
279.86        28.29582
280.31        26.98563
280.77         26.2114
281.22        26.00124
281.68        26.19001
282.13        26.48496
282.59        26.48992
283.04        26.11483
283.50        25.53928
283.95        24.91843
284.41         24.5054
284.86        24.33835
285.32        24.33678
285.77         24.4226
286.22        24.55033
286.68        24.67513
287.13        24.79343
287.59        24.86673
288.04        24.80927
288.50        24.63632
288.95        24.34856
289.41        24.03038
289.86        23.74165
290.32        23.55418
290.77        23.44224
291.22        23.43128
291.68        23.51952
292.13        23.70085
292.59        23.98696
293.04        24.35082
293.50        24.76385
293.95        25.20304
294.40        25.65695
294.86        26.12984
295.31        26.64345
295.77        27.20014
296.22        27.79332
296.68        28.38338
297.13        28.88486
297.58        29.29426
298.04        29.64247
298.49        30.00681
298.95        30.54682
299.40        31.26766
299.85        32.10735
300.31        32.95048
300.76        33.61776
301.21        34.06908
301.67         34.3921
302.12         34.6251
302.58        34.88361
303.03        35.18225
303.48        35.50364
303.94         35.8933
304.39        36.38198
304.84        36.96686
305.30        37.62313
305.75        38.23542
306.20        38.64785
306.66        38.84924
307.11        38.87039
307.57        38.81884
308.02         38.7869
308.47        38.83195
308.93        38.92012
309.38        39.03486
309.83        39.20078
310.29        39.39936
310.74        39.62497
311.19        39.79562
311.65         39.7757
312.10        39.54367
312.55        39.14511
313.00        38.70141
313.46        38.40048
313.91        38.27282
314.36        38.28288
314.82        38.33905
315.27        38.31445
315.72        38.16075
316.18        37.92812
316.63        37.66736
317.08        37.46472
317.53        37.33558
317.99        37.23597
318.44        37.12276
318.89        36.92133
319.35         36.6147
319.80        36.23406
320.25        35.81777
320.70        35.42528
321.16        35.07362
321.61        34.75409
322.06        34.44978
322.51        34.13559
322.97        33.79734
323.42        33.45087
323.87        33.10039
324.32        32.75644
324.78        32.41665
325.23        32.08658
325.68         31.7471
326.13        31.37498
326.59        30.97182
327.04        30.57234
327.49        30.20743
327.94        29.92751
328.39        29.74209
328.85        29.61534
329.30        29.55817
329.75        29.54139
330.20         29.5392
330.66        29.52705
331.11        29.47839
331.56        29.29941
332.01        28.97246
332.46        28.51955
332.92        28.00039
333.37        27.53013
333.82        27.15953
334.27        26.88899
334.72        26.69945
335.17        26.54864
335.63        26.41037
336.08        26.29305
336.53        26.23084
336.98        26.28776
337.43        26.45712
337.88          26.713
338.34        26.88949
338.79        26.76801
339.24        26.30002
339.69        25.55656
340.14         24.7958
340.59        24.45366
341.05        24.61567
341.50        25.14964
341.95        25.77886
342.40         26.0702
342.85        25.91823
343.30        25.47109
343.75        24.89175
344.20        24.44931
344.66        24.22927
345.11        24.11135
345.56        24.07862
346.01        24.10727
346.46        24.15891
346.91        24.26548
347.36         24.2991
347.81        24.04414
348.26        23.49416
348.72        22.74728
349.17        22.00071
349.62        21.66749
350.07        21.83956
350.52        22.36891
350.97        23.04472
351.42        23.55023
351.87        23.78101
352.32        23.81821
352.77        23.69232
353.22         23.4575
353.67         23.1572
354.13          22.789
354.58        22.39497
355.03        22.08672
355.48        21.89802
355.93        21.82667
356.38        21.83965
356.83        21.86674
357.28        21.87807
357.73        21.87551
358.18        21.86776
358.63        21.87294
359.08        21.88698
359.53        21.89659
359.98        21.85476
360.43        21.69607
360.88        21.42126
361.33        21.06156
361.78        20.70515
362.23         20.4941
362.68        20.45618
363.13        20.53839
363.58        20.65495
364.03        20.67217
364.48        20.54891
364.93         20.3235
365.38        20.02434
365.83        19.70405
366.28        19.39683
366.73        19.09687
367.18        18.82944
367.63        18.63302
368.08        18.51284
368.53        18.46207
368.98        18.45794
369.43        18.45638
369.88        18.44316
370.33        18.43005
370.78         18.4069
371.23        18.36314
371.68        18.29749
372.13         18.1975
372.58        18.10348
373.03        18.08841
373.48        18.15656
373.93        18.28216
374.38        18.37755
374.83        18.30719
375.28        18.05128
375.72        17.65077
376.17         17.2277
376.62        16.93744
377.07        16.82986
377.52        16.85873
377.97         16.9631
378.42        17.04568
378.87        17.07022
379.32        17.06013
379.77        17.03243
380.22        17.01062
380.67        17.00008
381.11        16.98997
381.56        16.94918
382.01        16.85049
382.46        16.69037
382.91        16.47814
383.36        16.26606
383.81         16.1273
384.26         16.0768
384.71        16.10686
385.15        16.13939
385.60        16.05493
386.05        15.83798
386.50         15.5258
386.95        15.24074
387.40         15.1756
387.85         15.3523
388.29        15.68803
388.74        16.02573
389.19         16.1468
389.64        16.00762
390.09         15.6746
390.54        15.26702
390.98        14.97213
391.43        14.86102
391.88        14.86934
392.33        14.90956
392.78        14.85487
393.23        14.68723
393.67        14.45019
394.12        14.24186
394.57        14.14198
395.02        14.16559
395.47        14.27819
395.91        14.41761
396.36        14.46297
396.81        14.38683
397.26        14.21796
397.71        14.03246
398.15        13.93153
398.60        13.95075
399.05        14.04762
399.50        14.13824
399.95        14.10157
400.39        13.91562
400.84        13.61664
401.29        13.30629
401.74        13.16993
402.18        13.26157
402.63        13.51543
403.08        13.79768
403.53        13.89579
403.97         13.7637
404.42        13.47706
404.87        13.16117
405.32        13.02168
405.76        13.10559
406.21        13.33839
406.66        13.60978
407.11        13.75048
407.55        13.71664
408.00        13.56586
408.45          13.363
408.90        13.18679
409.34        13.08891
409.79        13.10017
410.24         13.1695
410.68        13.16527
411.13        13.07437
411.58        12.97199
412.03         12.8734
412.47        12.78396
412.92        12.71418
413.37        12.65235
413.81        12.63126
414.26        12.71559
414.71        12.89965
415.15        13.16906
415.60         13.4138
416.05        13.47586
416.49         13.3188
416.94        12.99787
417.39        12.63042
417.83        12.40947
418.28        12.39158
418.73        12.51182
419.17         12.6881
419.62        12.77722
420.07        12.74468
420.51        12.63939
420.96        12.50217
421.41        12.37789
421.85        12.28222
422.30        12.20559
422.74        12.15099
423.19        12.14951
423.64        12.19353
424.08        12.28428
424.53        12.37376
424.98        12.39723
425.42        12.34188
425.87        12.23257
426.31        12.10037
426.76        12.00337
427.21        11.95011
427.65        11.91497
428.10        11.91828
428.54        11.97184
428.99        12.06937
429.44        12.25824
429.88         12.4399
430.33        12.37539
430.77        12.10738
431.22        11.89749
431.66        11.81319
432.11        11.82633
432.56        11.93481
433.00        12.17935
433.45        12.41316
433.89        12.40999
434.34        12.23051
434.78        12.01292
435.23        11.76489
435.67        12.29037
436.12         11.8754
436.57        11.79296
437.01        11.58765
437.46         11.4888
437.90        11.50703
438.35        11.54363
438.79        11.56731
439.24        11.57887
439.68        11.56794
440.13        11.44023
440.57        11.26743
441.02        11.34482
441.46        11.56637
441.91        11.57475
442.35        11.10184
442.80        10.93048
443.24        10.94494
443.69        10.90427
444.13        10.79511
444.58        10.72342
445.02         10.6943
445.47        10.70996
445.91        10.74185
446.36        10.72003
446.80        10.63189
447.24        10.51156
447.69        10.39643
448.13          10.317
448.58        10.28981
449.02        10.30433
449.47         10.3324
449.91        10.32413
450.36        10.27291
450.80        10.18991
451.25        10.11734
451.69        10.10765
452.13        10.17182
452.58        10.28124
453.02        10.39329
453.47        10.43914
453.91        10.40593
454.36        10.31564
454.80        10.19821
455.24        10.10649
455.69        10.06363
456.13        10.04169
456.58        10.04367
457.02        10.06767
457.46        10.10749
457.91        10.14246
458.35        10.16138
458.79        10.16613
459.24         10.1545
459.68        10.12331
460.13        10.12239
460.57        10.12937
461.01        10.14032
461.46           10.42
461.90        10.53967
462.34         10.4579
462.79        10.51651
463.23        10.37676
463.68        10.23893
464.12        10.15178
464.56        10.21889
465.01        10.34265
465.45        10.47679
465.89        10.56357
466.34        10.59175
466.78         10.5479
467.22        10.46867
467.67        10.48762
468.11        10.58505
468.55         10.5501
468.99         10.4121
469.44        10.38787
469.88        10.48922
470.32        10.60149
470.77        10.68324
471.21        10.72557
471.65        10.71568
472.10        10.65869
472.54        10.58603
472.98        10.57682
473.42        10.64431
473.87        10.73364
474.31        10.81545
474.75        10.90764
475.20        10.97846
475.64        10.92498
476.08        10.80424
476.52        10.79858
476.97        10.92272
477.41        11.09687
477.85        11.26355
478.29        11.36215
478.74        11.37353
479.18        11.29591
479.62        11.19632
480.06        11.18329
480.50        11.26156
480.95        11.34385
481.39        11.39162
481.83        11.39947
482.27        11.36203
482.72        11.29078
483.16        11.21487
483.60        11.18348
484.04         11.2043
484.48        11.31043
484.93        11.55341
485.37        11.69926
485.81         11.7875
486.25        12.34274
486.69        12.81741
487.14        12.17772
487.58        12.29476
488.02        13.07341
488.46        12.61176
488.90        12.67682
489.34        12.56813
489.79        12.73146
490.23         13.0794
490.67        13.30027
491.11        13.35309
491.55        13.27442
491.99        13.12153
492.43        13.04395
492.88        13.07858
493.32        13.11891
493.76        13.18248
494.20        13.35041
494.64        13.62066
495.08        13.95801
495.52        14.30438
495.96        14.58234
496.41        14.76963
496.85        14.85766
497.29        14.88796
497.73        15.00297
498.17        15.20177
498.61        15.31463
499.05        15.35127
499.49        15.48308
499.93        15.71818
500.37        15.92369
500.82        16.09151
501.26        16.34242
501.70        16.63081
502.14        16.73315
502.58        16.67603
503.02        16.69718
503.46        16.81442
503.90        16.90202
504.34        16.93973
504.78        16.95168
505.22        16.93781
505.66        16.90385
506.10        16.87211
506.54        16.87288
506.98         16.9182
507.42        17.00414
507.86        17.12499
508.30        17.26896
508.74        17.42431
509.18         17.5832
509.62        17.73886
510.06        17.88244
510.50        18.00927
510.94        18.12265
511.38        18.20151
511.82        18.21527
512.26        18.16472
512.70        18.06013
513.14        17.95947
513.58        17.95023
514.02        18.04217
514.46         18.2125
514.90        18.39134
515.34        18.40888
515.78         18.2629
516.22        18.07857
516.66        17.95028
517.10         17.6744
517.54        17.27653
517.98         17.9122
518.42        17.82324
518.86        18.09571
519.30        18.18584
519.74        18.27323
520.18        18.33251
520.62        18.30105
521.06        18.19687
521.50        18.02013
521.93        17.82121
522.37        17.69262
522.81        17.65551
523.25        17.68986
523.69        17.75261
524.13        17.77262
524.57        17.73018
525.01        17.64474
525.45        17.54745
525.89        17.48747
526.32        17.47554
526.76        17.49489
527.20        17.51091
527.64        17.47513
528.08        17.37522
528.52        17.22393
528.96        17.06126
529.40        16.94576
529.83        16.89013
530.27        16.88493
530.71         16.8777
531.15        16.78616
531.59        16.60171
532.03        16.35651
532.46        16.12719
532.90        16.04736
533.34        16.13074
533.78        16.32429
534.22        16.54171
534.66        16.65134
535.09         16.6164
535.53        16.48654
535.97        16.30361
536.41        16.13258
536.85        16.00321
537.28        15.90546
537.72        15.85693
538.16        15.83609
538.60        15.91772
539.04        16.02954
539.47        16.15507
539.91        16.27122
540.35        16.37609
540.79        16.33573
541.22        16.38392
541.66         16.4413
542.10        16.59403
542.54        16.56181
542.97        16.77139
543.41        16.89817
543.85        17.05536
544.29        17.20621
544.72        17.33366
545.16        17.46036
545.60        17.58277
546.04        17.64197
546.47        17.69179
546.91        17.93104
547.35        18.31421
547.79        18.60178
548.22        18.75969
548.66        18.86271
549.10        18.94662
549.53        19.14164
549.97         19.4514
550.41        19.52301
550.84        19.71377
551.28        19.83308
551.72        20.01423
552.15        20.22888
552.59        20.47767
553.03        20.75653
553.46        21.01763
553.90         21.1989
554.34        21.28819
554.77        21.32337
555.21        21.35729
555.65        21.36851
556.08        21.51516
556.52        21.66905
556.96        21.84652
557.39        22.00764
557.83        22.14505
558.27         22.2628
558.70        22.35696
559.14        22.42305
559.57        22.45755
560.01        22.49204
560.45        22.52491
560.88        22.51275
561.32        22.50714
561.75        22.56811
562.19        22.76777
562.63        22.89353
563.06         22.9569
563.50        23.02608
563.93        23.10386
564.37        23.23689
564.80        23.32044
565.24        23.44483
565.68        23.55719
566.11        23.66299
566.55        23.77895
566.98        23.84505
567.42         23.8689
567.85        24.19978
568.29        24.19817
568.72        24.51257
569.16        24.89112
569.60        25.16771
570.03         25.3007
570.47        25.42526
570.90        25.44571
571.34        25.76729
571.77         25.5601
572.21        26.04135
572.64         26.1693
573.08        26.37911
573.51        26.56549
573.95        27.20125
574.38        27.25143
574.82        27.49381
575.25        27.60497
575.69        27.38673
576.12        27.17915
576.56        27.07801
576.99        27.23045
577.42        27.27258
577.86         27.5163
578.29          27.365
578.73        27.96407
579.16        27.58751
579.60        27.21241
580.03        27.17768
580.47        27.13827
580.90        26.95337
581.33        26.77927
581.77        26.90375
582.20        27.26033
582.64        26.71047
583.07         26.2597
583.51        26.26624
583.94        25.81361
584.37        25.79834
584.81        25.59484
585.24         25.4925
585.68        25.40845
586.11         25.2372
586.54        25.22879
586.98        25.13023
587.41         25.0389
587.85        24.97747
588.28         24.9163
588.71        24.78955
589.15        24.67299
589.58        24.27799
590.01        24.36986
590.45        24.86417
590.88         24.6157
591.31        24.61764
591.75        24.32827
592.18        24.42038
592.61        24.27143
593.05         24.6048
593.48        24.42714
593.91        24.94422
594.35        24.78967
594.78        24.95844
595.21        25.22297
595.65        25.45083
596.08        25.46378
596.51         25.4607
596.94        25.46772
597.38        25.61631
597.81        25.96703
598.24         26.1282
598.68        26.78246
599.11        26.95676
599.54        27.84173
599.97        27.62459
600.41        28.00213
600.84        28.49643
601.27        28.98071
601.70        29.44472
602.14        29.72586
602.57        30.09752
603.00        30.56603
603.43        31.12407
603.87        31.72631
604.30        32.16401
604.73        32.46086
605.16        33.00669
605.60        33.45594
606.03        34.00361
606.46        34.45843
606.89        35.04041
607.32         35.4409
607.76        35.90819
608.19        36.23626
608.62        36.54719
609.05        36.79629
609.48        37.12782
609.92        37.58242
610.35        37.63906
610.78        38.51356
611.21        39.15148
611.64        39.00532
612.07         39.4135
612.50        39.74496
612.94        39.69325
613.37        40.26484
613.80        40.54903
614.23        40.85963
614.66         41.3601
615.09        41.63873
615.52         42.0788
615.96        42.45856
616.39        42.76242
616.82        43.04519
617.25        42.81495
617.68         43.0924
618.11        43.49991
618.54        43.91792
618.97        44.04208
619.40        43.75916
619.84        43.97078
620.27        43.92308
620.70        44.39974
621.13        45.01804
621.56        45.20339
621.99        45.06404
622.42        45.09332
622.85        45.36847
623.28        45.48913
623.71        45.46049
624.14        45.55677
624.57        45.69175
625.00        45.41919
625.43        45.66003
625.86        44.98466
626.29        44.97705
626.72        44.72292
627.15        44.63372
627.58        44.61493
628.01        44.58968
628.44        44.50685
628.87        44.33795
629.30        43.85273
629.73        43.50512
630.16        43.19363
630.59        43.01834
631.02         42.6526
631.45        42.12082
631.88        41.68965
632.31        41.36312
632.74        40.99187
633.17        40.55059
633.60        40.07116
634.03        39.55243
634.46        38.99188
634.89        38.41791
635.32        37.87514
635.75        37.38054
636.18        36.93186
636.61        36.51347
637.04        36.09338
637.47        35.65812
637.89        35.21345
638.32        34.76873
638.75        34.36081
639.18        33.99958
639.61        33.68082
640.04        33.36794
640.47        32.99931
640.90        32.56983
641.33        32.10704
641.76        31.67704
642.18        31.38835
642.61        31.26046
643.04        31.25949
643.47        31.32758
643.90        31.36829
644.33        31.35122
644.76        31.30636
645.18        31.25661
645.61        31.24332
646.04        31.28678
646.47        31.37517
646.90        31.51844
647.33        31.74829
647.75        32.06538
648.18        32.41797
648.61         32.7925
649.04        33.24234
649.47        33.71534
649.89        34.04716
650.32        34.28148
650.75        34.62521
651.18        35.15081
651.61        35.77949
652.03        36.47183
652.46        37.37358
652.89        38.35229
653.32        38.72834
653.74        38.64699
654.17        39.45702
654.60        39.86586
655.03        41.32412
655.46        40.82603
655.88        42.56411
656.31        43.62037
656.74         49.9351
657.16        48.14005
657.59        44.94883
658.02        45.18857
658.45        45.33324
658.87        45.88472
659.30        46.70716
659.73        47.17891
660.15        47.93993
660.58         48.1527
661.01        48.16328
661.44        47.99257
661.86        48.21296
662.29        48.83688
662.72        49.62721
663.14        50.36514
663.57        50.43703
664.00        50.02114
664.42         50.0484
664.85        50.59632
665.27        51.08184
665.70         51.3984
666.13        51.68495
666.55        51.91788
666.98        52.05433
667.41        52.13731
667.83         52.2353
668.26         52.3646
668.69        52.52185
669.11        52.69644
669.54        52.84668
669.96        52.96576
670.39        53.09795
670.82        53.27724
671.24        53.35279
671.67        53.63577
672.09        53.85723
672.52        54.06316
672.94        54.17393
673.37        54.18489
673.80        54.08803
674.22        53.96576
674.65        53.96846
675.07        54.13466
675.50        54.40071
675.92        54.68904
676.35        54.85099
676.77        54.85674
677.20        54.75719
677.62         54.6249
678.05         54.5798
678.47        54.65123
678.90        54.82046
679.32        55.01898
679.75        55.21165
680.17         55.3646
680.60        55.49155
681.02        55.60203
681.45        55.69442
681.87        55.78573
682.30        55.86587
682.72         55.9222
683.15        55.95418
683.57        55.98079
684.00        55.87996
684.42        55.83232
684.85        56.03168
685.27        56.12748
685.70        56.41805
686.12        56.70609
686.54        56.91243
686.97        57.00626
687.39        56.96587
687.82        56.85511
688.24        56.93228
688.66        57.15523
689.09         57.1775
689.51        57.02444
689.94        56.98345
690.36         57.0708
690.78        57.15791
691.21        57.19369
691.63         57.2519
692.06        57.31304
692.48        57.54578
692.90         57.3966
693.33         57.8609
693.75        57.77864
694.17        57.98776
694.60        58.14076
695.02        58.11765
695.44        57.94955
695.87        57.95089
696.29         58.0456
696.71         58.1363
697.14        57.36844
697.56        57.76934
697.98        58.76798
698.41        59.47292
698.83        59.02069
699.25        58.70576
699.68        58.47933
700.10         58.4511
700.52        58.62675
700.94        58.72238
701.37        58.70932
701.79          58.845
702.21        59.09259
702.64        59.28375
703.06        59.40142
703.48        59.51047
703.90         59.6141
704.33        59.68912
704.75        59.71973
705.17        59.65046
705.59        59.48442
706.01        59.24886
706.44        59.06277
706.86        59.07441
707.28        59.30272
707.70        59.78487
708.12        60.34546
708.55        60.50978
708.97        60.29806
709.39          60.202
709.81        60.26449
710.23        60.20231
710.66         60.0442
711.08        59.99469
711.50         60.0619
711.92        60.16452
712.34        60.29614
712.76        60.48751
713.19        60.68118
713.61        60.82509
714.03        60.87786
714.45        60.85152
714.87        60.80051
715.29        60.81772
715.71         60.9231
716.13        61.08887
716.56        61.25272
716.98        61.38034
717.40        61.42731
717.82        61.41376
718.24        61.37471
718.66        61.36584
719.08        61.40188
719.50        61.46299
719.92        61.52075
720.34        61.53177
720.76        61.48773
721.19        61.40125
721.61        61.31208
722.03        61.26085
722.45        61.27623
722.87        61.31519
723.29        61.37637
723.71        61.47108
724.13        61.59423
724.55        61.72815
724.97        61.88095
725.39        62.07319
725.81        62.29528
726.23        62.52747
726.65        62.72633
727.07        62.83082
727.49        62.83043
727.91        62.74533
728.33        62.62307
728.75         62.5443
729.17        62.54102
729.59        62.60182
730.01         62.6989
730.43        62.79087
730.85        62.86285
731.27         62.8971
731.69        62.92304
732.10        63.05176
732.52        63.25109
732.94        63.37384
733.36        63.38224
733.78         63.3398
734.20        63.25918
734.62        63.09377
735.04        62.89436
735.46        62.84836
735.88        62.92497
736.30        62.95264
736.72         63.1716
737.13        63.44004
737.55        63.73081
737.97        64.01458
738.39        64.19973
738.81        64.03111
739.23        63.63571
739.65        63.48996
740.06        63.52691
740.48        63.61559
740.90        63.76433
741.32        63.05439
741.74        62.83506
742.16        63.49577
742.57          63.154
742.99        63.50248
743.41          63.791
743.83        63.99471
744.25        64.04813
744.67         63.9961
745.08        63.89352
745.50         63.7461
745.92        63.59625
746.34        63.43836
746.75        63.29711
747.17        63.21234
747.59         63.2003
748.01         63.2683
748.42        63.39378
748.84        63.54456
749.26        63.71663
749.68        63.76701
750.09        63.74656
750.51        64.04729
750.93        64.51479
751.35         64.4561
751.76        63.95837
752.18         63.6867
752.60        63.65798
753.01        63.87334
753.43        63.64848
753.85        63.70096
754.27         63.8099
754.68        64.09496
755.10        64.50185
755.52        64.20307
755.93        64.38006
756.35        64.15588
756.77        63.97069
757.18         63.9053
757.60        64.03579
758.02        64.24086
758.43        64.40211
758.85        64.61217
759.26        65.15184
759.68        64.49922
760.10         64.7179
760.51        64.83124
760.93        64.45068
761.34        63.93344
761.76        64.38342
762.18        64.10836
762.59        63.67293
763.01        63.76718
763.42        64.41382
763.84         64.9431
764.26        65.18123
764.67        64.98964
765.09        64.58395
765.50        64.62012
765.92        65.08012
766.33        65.27226
766.75         65.0778
767.16        64.92214
767.58        64.78587
768.00        64.42139
768.41        64.04314
768.83        64.10831
769.24        64.73456
769.66        65.34769
770.07        65.76635
770.49        65.77191
770.90        65.46152
771.32        65.35538
771.73        65.50217
772.15         65.5238
772.56         65.4091
772.97        65.30162
773.39        65.18317
773.80        65.12769
774.22        64.99028
774.63        64.83752
775.05        64.69239
775.46        64.72032
775.88        64.91808
776.29        65.26747
776.70        65.60574
777.12        65.69004
777.53        65.48227
777.95         65.0322
778.36        64.53745
778.77        64.33835
779.19        64.51675
779.60        65.01648
780.02        65.57432
780.43        65.92458
780.84        65.98991
781.26        65.50502
781.67        64.81774
782.09        65.34849
782.50        66.74966
782.91        66.88155
783.33        65.83556
783.74        65.53216
784.15        66.02193
784.57        66.29449
784.98        66.20768
785.39         65.7856
785.81        65.15672
786.22        64.87736
786.63        64.97144
787.04        64.96755
787.46        64.87371
787.87        64.99913
788.28        65.31931
788.70        65.61221
789.11        65.83372
789.52         66.0266
789.93        66.17914
790.35         66.2958
790.76        66.35857
791.17        66.28546
791.58        66.11093
792.00        65.89506
792.41        65.67892
792.82        65.62679
793.23        65.68041
793.65        65.35413
794.06         64.8428
794.47        65.03185
794.88         65.8014
795.29        66.29263
795.71        66.37704
796.12        66.27796
796.53        66.48756
796.94        66.06297
797.35        65.34725
797.76        65.13573
798.18        65.44971
798.59        65.68098
799.00        65.76145
799.41        66.03016
799.82        66.40797
800.23        66.62571
800.64        66.63221
801.06        66.42389
801.47        66.15318
801.88        66.05273
802.29         66.1681
802.70        66.40401
803.11        66.63292
803.52        66.64094
803.93        66.39408
804.34        66.02572
804.75        65.62816
805.17        65.34481
805.58        65.30099
805.99        65.32023
806.40        65.43276
806.81        66.19793
807.22        67.25905
807.63        67.20362
808.04        66.23401
808.45        65.91502
808.86        66.41011
809.27        66.97154
809.68        67.40143
810.09        67.62239
810.50        67.54928
810.91        67.28768
811.32         66.9332
811.73         66.5701
812.14        66.25471
812.55        65.98657
812.96         65.7878
813.37        65.68196
813.78        65.67366
814.19        65.76967
814.60        65.91617
815.01        66.02326
815.42        66.06404
815.83        66.04038
816.24        65.98614
816.65         65.9762
817.05        66.04163
817.46        66.13017
817.87        66.21455
818.28        66.20936
818.69        66.11526
819.10        65.96744
819.51        65.86572
819.92        66.02484
820.33        66.48319
820.74        67.01578
821.14        67.51703
821.55        68.11742
821.96        68.61352
822.37         68.3255
822.78        67.43597
823.19        66.92067
823.60        66.91327
824.00         66.9435
824.41        66.90157
824.82         66.9024
825.23        66.91582
825.64        66.93252
826.04         66.9808
826.45         67.0512
826.86        67.14829
827.27        67.25774
827.68        67.34578
828.08        67.38383
828.49        67.31681
828.90        67.18462
829.31        67.02641
829.72        66.91293
830.12        66.88714
830.53        66.89693
830.94        66.93421
831.35        66.95432
831.75        66.96433
832.16        66.94234
832.57        66.90601
832.97        66.86125
833.38        66.79483
833.79        66.69515
834.20         66.5927
834.60        66.52859
835.01        66.52643
835.42        66.59462
835.82        66.66042
836.23        66.55067
836.64        66.26131
837.04        65.83282
837.45        65.44825
837.86        65.44307
838.26        65.89021
838.67        66.67166
839.08        67.49696
839.48        67.82576
839.89        67.52327
840.29         66.7833
840.70        65.98949
841.11        65.64421
841.51        65.87798
841.92        66.48035
842.33        67.27812
842.73        67.96965
843.14         68.3376
843.54        68.53464
843.95        68.50614
844.35        68.23751
844.76        67.78205
845.17        67.16891
845.57        66.57726
845.98        66.31039
846.38         66.4302
846.79        66.85816
847.19        67.49606
847.60        68.02094
848.00        68.35863
848.41        68.51538
848.81        68.57685
849.22        68.60432
849.62        68.66636
850.03        68.69523
850.43        68.69632
850.84        68.60854
851.24        68.47504
851.65        68.27555
852.05        68.13001
852.46        68.11165
852.86        68.23496
853.27        68.47961
853.67        68.68581
854.07        68.73923
854.48        68.58751
854.88        68.29898
855.29        67.91251
855.69        67.63916
856.10        67.47082
856.50        67.44009
856.90        67.48745
857.31         67.5312
857.71         67.6088
858.12        67.68281
858.52        67.78979
858.92        67.87286
859.33        67.90684
859.73        67.91991
860.13        67.91085
860.54        67.90176
860.94        67.94508
861.34        67.99773
861.75        67.99449
862.15        67.92616
862.55        67.75633
862.96        67.53709
863.36        67.31372
863.76        67.13363
864.17        67.02142
864.57        66.98991
864.97        67.07223
865.38          67.305
865.78        67.71814
866.18        68.20215
866.58        68.63467
866.99        68.81126
867.39        68.69881
867.79        68.34128
868.19        67.69532
868.60        66.68015
869.00        65.31268
869.40        63.69442
869.80         62.2426
870.21        61.64118
870.61        62.09127
871.01        63.34641
871.41        64.85983
871.81        65.74388
872.22         65.7925
872.62        65.26222
873.02        64.43784
873.42        64.04973
873.82        64.04146
874.22        63.58345
874.63        62.94377
875.03        62.79164
875.43        63.20927
875.83        65.23592
876.23        65.17634
876.63        64.49245
877.03         62.5283
877.44        59.45059
877.84        137.8216
878.24        59.47947
878.64        61.41824
879.04        66.56654
879.44        62.92868
879.84        60.94445
880.24        66.20441
880.64        66.43902
881.04        62.88762
881.44        60.50393
881.84        60.10243
882.24        60.87932
882.65         62.3012
883.05        63.17116
883.45        63.07861
883.85         62.7664
884.25         62.5368
884.65         62.5101
885.05        62.77026
885.45        63.21963
885.85        63.64397
886.25        63.73879
886.65        63.44864
887.05        62.90792
887.45        62.38039
887.85        62.25038
888.25        62.59606
888.65        63.28033
889.04        64.10967
889.44        64.66935
889.84        64.84139
890.24         64.7363
890.64        64.42918
891.04        64.04177
891.44        63.61672
891.84        63.07973
892.24         62.5202
892.64        62.10645
893.04        61.89123
893.44        61.90247
893.83        61.91948
894.23        61.62049
894.63        60.96185
895.03        60.02911
895.43         59.1861
895.83        59.04357
896.23        59.70999
896.63        60.98349
897.02        62.36404
897.42        62.95402
897.82        62.54177
898.22         61.4356
898.62        60.11282
899.01        59.30188
899.41        59.22662
899.81        59.62305
900.21        60.31129
900.61        61.03145
901.00        61.65004
901.40        62.22043
901.80        62.66805
902.20        62.83691
902.59        62.71156
902.99        62.32488
903.39        61.75932
903.79        61.18057
904.18        60.67787
904.58        60.28188
904.98         60.1065
905.38        60.31496
905.77        60.89107
906.17        61.76298
906.57        62.67848
906.96        63.26283
907.36        63.36521
907.76        63.06197
908.15        62.55621
908.55        62.13965
908.95        61.92693
909.34        61.87962
909.74        61.82027
910.14        61.42519
910.53        60.65146
910.93        59.69314
911.33        58.93071
911.72        58.95984
912.12        59.81902
912.52        61.21802
912.91        62.69182
913.31        63.43479
913.70        63.30796
914.10         62.5533
914.49          61.381
914.89         60.3576
915.29         59.7404
915.68        59.38568
916.08          59.389
916.47        59.87504
916.87        60.73866
917.26        61.92747
917.66        63.05681
918.05        63.51625
918.45        63.15018
918.84        62.19189
919.24        60.90992
919.64        59.77948
920.03        59.01083
920.42        58.50148
920.82        58.40511
921.21        58.91049
921.61        59.92265
922.00        61.40342
922.40        62.84551
922.79        63.64703
923.19        63.66015
923.58        62.77068
923.98        61.22091
924.37        60.38432
924.77        60.81577
925.16        58.06883
925.55        59.74068
925.95        59.61694
926.34         59.9468
926.74        60.49526
927.13        61.24012
927.52        61.90436
927.92        62.37111
928.31        62.77493
928.70        63.00139
929.10        62.92237
929.49        62.53646
929.89        61.86243
930.28        61.22761
930.67        61.16559
931.07        61.73138
931.46        62.81953
931.85        63.91466
932.24        64.23532
932.64        63.60429
933.03        62.13613
933.42        60.32322
933.82        59.19784
934.21        59.06902
934.60        59.67075
934.99        60.24616
935.39        60.10741
935.78        59.16526
936.17        56.93535
936.56        53.76066
936.96        55.17316
937.35         54.5535
937.74        56.95599
938.13        59.34297
938.53        60.88924
938.92        61.49002
939.31        61.47029
939.70        61.10736
940.09        60.72988
940.49        60.54081
940.88         60.4579
941.27        60.50031
941.66        60.74408
942.05         61.1571
942.44        61.68769
942.84         62.3043
943.23        62.93044
943.62        63.48229
944.01         64.0094
944.40        64.22114
944.79        63.66429
945.18        62.29786
945.57        60.21544
945.97         58.1665
946.36        57.44872
946.75        58.43797
947.14         60.6516
947.53          63.069
947.92        64.29314
948.31        64.06402
948.70         62.8073
949.09         61.1139
949.48        60.02848
949.87        59.89551
950.26        60.36586
950.65        61.10416
951.04        61.56682
951.43        61.56419
951.82        61.33183
952.21        60.95161
952.60        60.51339
952.99        60.08212
953.38        59.57849
953.77        59.12852
954.16        58.96272
954.55        59.10545
954.94        59.52645
955.33        59.97705
955.72        60.01886
956.11        59.56359
956.50        58.73203
956.89         57.8559
957.28        57.57409
957.66        58.07502
958.05        59.03255
958.44        60.11245
958.83        60.87903
959.22        61.21522
959.61        61.25838
960.00         60.9979
960.39        60.42725
960.78        59.62174
961.16        58.58243
961.55        57.58655
961.94        56.94467
962.33        56.72898
962.72        56.89546
963.11        57.24842
963.49        57.43081
963.88        57.27116
964.27        56.90049
964.66        56.50425
965.04        56.40173
965.43        56.65947
965.82         57.1575
966.21        57.71931
966.60         58.0719
966.98        58.14442
967.37        57.99947
967.76        57.77891
968.15        57.68921
968.53        57.79764
968.92        57.95571
969.31        58.08302
969.69         58.0504
970.08        57.76192
970.47        57.30074
970.86        56.67868
971.24        55.86635
971.63         54.9671
972.02        54.04847
972.40        53.20502
972.79        52.63318
973.17        52.41218
973.56        52.40461
973.95        52.72996
974.33        53.55754
974.72        54.71265
975.11        56.09447
975.49        57.19862
975.88        57.25915
976.26         56.1818
976.65        54.25248
977.04        52.02872
977.42        50.49667
977.81        50.01557
978.19        50.31626
978.58        51.18503
978.96        52.20354
979.35        53.11801
979.74        54.15287
980.12        55.13002
980.51        55.48431
980.89        55.24571
981.28         54.4233
981.66         53.6157
982.05        53.71924
982.43        54.83281
982.82        56.66155
983.20         58.6181
983.59        59.33812
983.97        58.52981
984.35        56.55417
984.74        54.15063
985.12        52.36354
985.51        51.51757
985.89        51.25905
986.28        51.40273
986.66        51.57297
987.04        51.54859
987.43        51.56833
987.81        51.34922
988.20        50.41595
988.58        48.59891
988.96        45.66935
989.35        42.29946
989.73        40.57119
990.12        41.55962
990.50        44.67521
990.88        48.04325
991.27        49.49772
991.65        49.01044
992.03        47.14094
992.42        45.13947
992.80        45.33379
993.18         48.3071
993.56        52.83632
993.95        57.43843
994.33        60.59516
994.71        61.78142
995.10        61.58519
995.48        60.38479
995.86        58.60332
996.24        56.47321
996.63        53.81553
997.01        50.90243
997.39        48.85827
997.77        48.25484
998.15        48.90878
998.54        50.14841
998.92        51.11751
999.30        51.62152
999.68        51.91694
1000.06        51.74609
1000.45        50.68041
1000.83        48.99031
1001.21         46.9865
1001.59        45.48759
1001.97        45.14475
1002.35        45.80855
1002.73        47.30507
1003.12        49.07734
1003.50        49.73267
1003.88        48.61837
1004.26        46.28327
1004.64         43.3843
1005.02        40.75077
1005.40        38.65564
1005.78        36.81696
1006.16        35.78568
1006.54        36.58541
1006.92        38.95502
1007.30        42.06378
1007.69        44.65762
1008.07        45.70485
1008.45        44.91027
1008.83        42.24841
1009.21         37.1932
1009.59         30.4281
1009.97        23.95242
1010.35         18.8627
1010.73        16.90367
1011.11        18.70453
1011.49        23.33307
1011.86        30.37385
1012.24        36.80937
1012.62          39.887
1013.00        39.43273
1013.38        36.39906
1013.76        32.33438
1014.14        30.04687
1014.52        30.37761
1014.90        32.43788
1015.28        35.08988
1015.66        36.41583
1016.04        35.73289
1016.41        33.64098
1016.79        30.59599
1017.17        27.76163
1017.55        26.11421
1017.93        25.32859
1018.31        25.37533
1018.69        26.35092
1019.06        28.00201
1019.44        30.02025
1019.82        31.93875
1020.20        32.33732
1020.58         30.5708
1020.95        27.21836
1021.33        22.29607
1021.71        14.52463
1022.09        1.996192
1022.46       -21.18551
1022.84       -55.68628
1023.22       -68.04685
1023.60        -38.2228
1023.97       -2.579553
1024.35        18.61787
1024.73        27.35505
