SpectraSmart Spectrum 2.9.0.0
--------- Device Information -----------
Spectrum Name :  反射率_0
Saving Time :  2024/04/20 00:51:33
Spectro-Module Model Name : SE2030-DUVN
Spectro-Module Serial Number : OS361AC55029948
Wavelength Start : 200
Wavelength End : 1025
Wavelength Unit : Wavelength(nm)
Spectrum Unit : Reflectance(%)
-----------Spectrum Setting ------------
Integration Time : 30ms
Average : 10
Boxcar : 0
Background removal :  enabled
linearity correction :  enabled
SC :  disabled
Intensity correction :  disabled
DWT denoise :  enabled
savitzky-golay :  disabled
FFT :  disabled
Running average :  disabled
Kalman :  disabled
High pass :  disabled
---------------BEGIN--------------------
Wavelength(nm)             Reflectance(%)
200.29               0
200.75        51.94437
201.21        53.55989
201.67        57.64473
202.13        63.21432
202.58        69.44593
203.04        76.73596
203.50        82.74635
203.96        82.39866
204.42        76.38282
204.88        68.33833
205.34        61.61462
205.80        57.67677
206.26        55.77587
206.72        55.15332
207.18        55.76877
207.64        57.05596
208.10         58.2792
208.55        59.85328
209.01         60.7582
209.47        61.18316
209.93        61.23241
210.39        60.67303
210.85        59.89815
211.31        59.46579
211.77        59.34724
212.23        59.50471
212.69        59.29644
213.14        57.48198
213.60        54.25506
214.06        51.54885
214.52        50.02843
214.98        49.82094
215.44        50.57887
215.90        51.79184
216.36        53.67579
216.81        56.33015
217.27        59.16697
217.73        62.10918
218.19        63.42621
218.65        60.73294
219.11         53.7314
219.57        42.53735
220.02        29.89289
220.48        23.40825
220.94          25.791
221.40        35.71102
221.86        48.12396
222.32        55.07213
222.77        54.64236
223.23        49.41795
223.69        43.25678
224.15        41.65097
224.61        44.81635
225.06        49.89155
225.52        54.31429
225.98        56.11993
226.44        55.31394
226.90        52.86368
227.36        49.82805
227.81        47.91776
228.27        47.95949
228.73        49.16597
229.19        50.61547
229.65        51.26114
230.10        51.00808
230.56        50.33761
231.02        49.80575
231.48        50.09975
231.93        51.18767
232.39        52.75103
232.85        54.20148
233.31        54.69169
233.77        54.04539
234.22        52.54543
234.68         50.6871
235.14        49.25378
235.60        48.55528
236.05        48.40823
236.51        48.57572
236.97         48.6496
237.43        48.49784
237.88        48.35297
238.34        48.18147
238.80        48.31315
239.26        48.80626
239.71        49.35892
240.17        49.73497
240.63        50.09496
241.08        50.51984
241.54        51.08641
242.00        51.10019
242.46        49.07471
242.91         44.1188
243.37        34.91009
243.83         22.2867
244.28        15.07411
244.74        21.85205
245.20        40.72858
245.66        58.97935
246.11        65.93867
246.57        60.91393
247.03        44.46998
247.48        20.82649
247.94        13.31074
248.40        25.75912
248.85        42.04398
249.31        53.91748
249.77        59.51267
250.22        60.51995
250.68        58.85314
251.14        55.61443
251.59        52.97129
252.05        52.47726
252.51        53.69225
252.96        55.11879
253.42        54.52793
253.88        51.67836
254.33        47.79789
254.79        45.69593
255.25        47.78116
255.70        53.34336
256.16        60.52341
256.62        66.43337
257.07        67.87494
257.53        65.18262
257.99        59.95491
258.44        54.24659
258.90        51.28901
259.35        50.74035
259.81        51.50855
260.27        52.10188
260.72        51.31836
261.18        49.44929
261.63        46.71527
262.09        44.16353
262.55        42.74196
263.00        42.47623
263.46        43.00881
263.91        43.38937
264.37        42.71391
264.83        40.98875
265.28        38.59626
265.74         36.5188
266.19        35.73023
266.65        36.32835
267.11        37.74122
267.56        39.20972
268.02        39.63527
268.47        38.83156
268.93        37.18652
269.38        35.14795
269.84        33.66656
270.30        33.00765
270.75        32.90952
271.21        33.05801
271.66        32.98701
272.12        32.54681
272.57        31.89022
273.03        31.21371
273.48        30.72074
273.94        30.49438
274.39        30.41203
274.85        30.30875
275.31        29.93785
275.76        29.25493
276.22        28.37778
276.67        27.50643
277.13        27.02548
277.58        26.93717
278.04        27.13295
278.49        27.30967
278.95        27.09046
279.40        26.40022
279.86        25.46354
280.31        24.48191
280.77        23.86262
281.22        23.62045
281.68        23.63478
282.13        23.74172
282.59        23.73293
283.04        23.54419
283.50        23.27847
283.95        22.95038
284.41        22.60568
284.86        22.25137
285.32        21.88218
285.77         21.5501
286.22        21.40337
286.68        21.44159
287.13        21.60137
287.59        21.74682
288.04        21.65802
288.50        21.32167
288.95        20.79426
289.41        20.23042
289.86        19.79968
290.32        19.59794
290.77        19.55671
291.22        19.64469
291.68         19.7809
292.13        19.93687
292.59        20.14268
293.04        20.40089
293.50        20.72289
293.95        21.09942
294.40        21.50791
294.86        21.92574
295.31        22.33641
295.77        22.73965
296.22         23.1475
296.68        23.57478
297.13         24.0176
297.58        24.49313
298.04        25.01381
298.49        25.59406
298.95        26.28947
299.40        27.08724
299.85        27.95768
300.31        28.85228
300.76        29.69965
301.21        30.46981
301.67         31.1948
302.12         31.8462
302.58        32.44142
303.03        32.97118
303.48        33.44778
303.94        33.94252
304.39        34.52668
304.84        35.21405
305.30         35.9693
305.75        36.68159
306.20        37.20149
306.66        37.51881
307.11        37.66855
307.57        37.75354
308.02        37.85661
308.47        38.03117
308.93          38.243
309.38        38.47523
309.83        38.75306
310.29        39.05663
310.74        39.37756
311.19        39.63212
311.65        39.68266
312.10        39.50784
312.55        39.15569
313.00        38.74749
313.46        38.47197
313.91        38.36011
314.36        38.37394
314.82        38.43101
315.27         38.4178
315.72        38.28936
316.18         38.0989
316.63        37.87561
317.08        37.67126
317.53        37.50042
317.99         37.3309
318.44        37.16595
318.89        37.00599
319.35        36.84635
319.80        36.69103
320.25        36.51597
320.70        36.28178
321.16        35.97761
321.61         35.6186
322.06        35.23529
322.51        34.88364
322.97        34.57373
323.42         34.2997
323.87        34.02879
324.32        33.71158
324.78        33.33217
325.23        32.92066
325.68        32.49927
326.13        32.10975
326.59        31.77088
327.04        31.49597
327.49         31.2758
327.94        31.09809
328.39        30.95355
328.85         30.8224
329.30        30.74483
329.75        30.74004
330.20        30.79793
330.66        30.87889
331.11        30.93186
331.56        30.82538
332.01        30.53184
332.46        30.08309
332.92        29.56299
333.37        29.12933
333.82        28.83935
334.27         28.6763
334.72        28.58499
335.17         28.4622
335.63        28.26763
336.08        28.03736
336.53        27.83721
336.98        27.78388
337.43         27.8931
337.88        28.12369
338.34         28.3162
338.79         28.2624
339.24        27.90255
339.69        27.29782
340.14        26.66177
340.59        26.35426
341.05        26.44566
341.50        26.83267
341.95        27.27732
342.40        27.40741
342.85        27.14313
343.30        26.62072
343.75        26.01838
344.20        25.62649
344.66        25.52481
345.11        25.58278
345.56        25.73865
346.01        25.89414
346.46        25.99073
346.91        26.07693
347.36        26.05375
347.81        25.75634
348.26        25.19359
348.72          24.447
349.17        23.70958
349.62        23.38665
350.07        23.56535
350.52        24.10558
350.97        24.78569
351.42        25.26877
351.87        25.44949
352.32        25.41443
352.77        25.21562
353.22        24.94306
353.67        24.64729
354.13        24.31419
354.58         23.9613
355.03        23.66307
355.48        23.44196
355.93        23.30322
356.38        23.23141
356.83        23.18451
357.28        23.13886
357.73        23.08846
358.18        23.02247
358.63        22.92834
359.08        22.80175
359.53        22.64874
359.98        22.45368
360.43        22.19407
360.88        21.87947
361.33        21.52574
361.78        21.20124
362.23        21.01608
362.68        20.98465
363.13        21.06016
363.58        21.15769
364.03        21.14561
364.48        20.98479
364.93        20.71133
365.38        20.35729
365.83        19.98421
366.28        19.63051
366.73        19.28988
367.18        18.98898
367.63         18.7673
368.08        18.62634
368.53        18.55463
368.98        18.52222
369.43        18.47333
369.88        18.39134
370.33        18.29506
370.78        18.17354
371.23        18.01545
371.68        17.82783
372.13        17.60433
372.58        17.41198
373.03         17.3665
373.48        17.47592
373.93        17.69283
374.38        17.89501
374.83        17.89488
375.28        17.65548
375.72        17.23164
376.17         16.7457
376.62         16.3569
377.07        16.12776
377.52         16.0169
377.97        15.99601
378.42        16.01797
378.87        16.05398
379.32        16.11144
379.77        16.17451
380.22        16.21459
380.67         16.2219
381.11         16.1986
381.56        16.12443
382.01        15.99196
382.46        15.80722
382.91        15.57372
383.36        15.34547
383.81        15.20026
384.26        15.15241
384.71        15.19241
385.15        15.24171
385.60         15.1777
386.05        14.98194
386.50        14.69253
386.95        14.42158
387.40        14.34541
387.85        14.48956
388.29        14.78476
388.74         15.0938
389.19        15.22804
389.64        15.14948
390.09        14.91189
390.54        14.62628
390.98        14.46412
391.43          14.482
391.88         14.6144
392.33         14.7539
392.78        14.74738
393.23        14.57809
393.67        14.30024
394.12         14.0427
394.57        13.92999
395.02        13.98551
395.47        14.16386
395.91        14.37992
396.36        14.46825
396.81        14.38994
397.26        14.19337
397.71        13.97524
398.15        13.86553
398.60        13.90892
399.05        14.05203
399.50        14.20862
399.95        14.25796
400.39        14.17434
400.84        13.99194
401.29        13.80129
401.74         13.7632
402.18        13.92045
402.63        14.21139
403.08        14.50303
403.53        14.58867
403.97        14.42917
404.42        14.10041
404.87         13.7475
405.32        13.60703
405.76        13.73112
406.21        14.03875
406.66        14.39261
407.11        14.57891
407.55        14.54486
408.00        14.36153
408.45        14.12022
408.90        13.94416
409.34        13.89798
409.79         13.9996
410.24         14.1742
410.68        14.25296
411.13        14.21347
411.58        14.14209
412.03        14.06582
412.47        14.00667
412.92        13.97856
413.37        13.96379
413.81        13.98106
414.26        14.07534
414.71         14.2395
415.15        14.46866
415.60        14.67384
416.05        14.73174
416.49        14.61436
416.94        14.36536
417.39        14.08221
417.83        13.92506
418.28        13.94145
418.73        14.07788
419.17        14.26155
419.62        14.36469
420.07        14.35914
420.51        14.28835
420.96        14.19709
421.41        14.13562
421.85        14.11647
422.30        14.12724
422.74         14.1603
423.19        14.23423
423.64        14.33819
424.08        14.47728
424.53        14.60407
424.98        14.65812
425.42        14.62749
425.87        14.53332
426.31        14.40975
426.76        14.32004
427.21        14.27411
427.65        14.24912
428.10        14.26008
428.54        14.30616
428.99        14.38332
429.44        14.55536
429.88        14.73226
430.33        14.67281
430.77        14.42634
431.22        14.28438
431.66         14.2986
432.11        14.38519
432.56        14.52672
433.00        14.78988
433.45        15.01541
433.89        14.94993
434.34        14.68559
434.78        14.41627
435.23        14.16462
435.67        14.77206
436.12        14.41957
436.57        14.43617
437.01        14.32485
437.46        14.32475
437.90        14.43781
438.35        14.54317
438.79        14.59932
439.24        14.61491
439.68        14.58314
440.13         14.3855
440.57        14.12905
441.02        14.21063
441.46        14.50371
441.91        14.55618
442.35        14.01423
442.80        13.83687
443.24        13.87878
443.69        13.84229
444.13         13.7211
444.58        13.66362
445.02        13.68007
445.47        13.76416
445.91        13.87513
446.36        13.91661
446.80         13.8678
447.24        13.77372
447.69         13.6743
448.13        13.59925
448.58        13.56839
449.02        13.57016
449.47        13.58267
449.91        13.56526
450.36        13.51449
450.80        13.44105
451.25        13.38034
451.69        13.37012
452.13        13.42061
452.58        13.50894
453.02        13.60318
453.47        13.65384
453.91        13.65019
454.36         13.6056
454.80        13.53779
455.24        13.47811
455.69        13.44356
456.13        13.40997
456.58        13.38787
457.02        13.38485
457.46        13.39953
457.91         13.4034
458.35        13.39177
458.79        13.38734
459.24        13.38754
459.68        13.38386
460.13        13.42461
460.57        13.45471
461.01        13.46045
461.46         13.8034
461.90        13.92339
462.34        13.78781
462.79        13.85093
463.23        13.65896
463.68        13.47129
464.12        13.34892
464.56        13.42528
465.01        13.57922
465.45        13.74396
465.89        13.83548
466.34        13.83999
466.78        13.74154
467.22        13.60476
467.67        13.63054
468.11        13.79767
468.55        13.82104
468.99        13.71182
469.44        13.71422
469.88        13.83404
470.32        13.93274
470.77        13.97634
471.21        13.98357
471.65        13.94963
472.10        13.87192
472.54        13.78777
472.98        13.79032
473.42        13.89151
473.87        14.02243
474.31        14.14334
474.75        14.27764
475.20        14.38282
475.64         14.3236
476.08        14.16729
476.52        14.14292
476.97        14.26984
477.41         14.4453
477.85        14.61254
478.29        14.72241
478.74        14.75572
479.18        14.70349
479.62        14.62768
480.06         14.6295
480.50         14.7105
480.95        14.77283
481.39        14.79348
481.83        14.80903
482.27        14.81834
482.72        14.81071
483.16        14.80552
483.60        14.84274
484.04        14.92949
484.48        15.08557
484.93        15.34084
485.37        15.47547
485.81        15.58461
486.25        15.89158
486.69        16.35157
487.14        15.73522
487.58        15.81664
488.02        16.53447
488.46        16.16386
488.90        16.18398
489.34        15.98667
489.79        16.17979
490.23        16.65426
490.67        16.89126
491.11        16.85436
491.55        16.74336
491.99        16.62273
492.43        16.55449
492.88        16.57471
493.32        16.62253
493.76        16.70893
494.20        16.88346
494.64        17.14136
495.08        17.46178
495.52        17.78888
495.96        18.04176
496.41        18.20655
496.85        18.28625
497.29        18.32542
497.73        18.46858
498.17         18.7063
498.61        18.84238
499.05        18.87951
499.49        19.00758
499.93        19.23371
500.37         19.4012
500.82        19.51283
501.26        19.73257
501.70        20.01172
502.14         20.0796
502.58        19.96918
503.02        19.96333
503.46        20.08132
503.90        20.17366
504.34        20.21473
504.78        20.22988
505.22         20.2166
505.66        20.17997
506.10        20.14319
506.54        20.13892
506.98        20.17975
507.42        20.25961
507.86        20.37477
508.30        20.51738
508.74        20.67491
509.18        20.83776
509.62        20.99249
510.06        21.11873
510.50        21.21137
510.94         21.2809
511.38        21.31387
511.82        21.29218
512.26        21.22191
512.70        21.10903
513.14         21.0162
513.58        21.03717
514.02        21.17863
514.46        21.41473
514.90        21.65566
515.34        21.69602
515.78        21.53613
516.22        21.29857
516.66        21.10217
517.10        20.79256
517.54        20.40619
517.98        21.04383
518.42        20.99726
518.86        21.28329
519.30        21.37148
519.74        21.44457
520.18        21.48855
520.62        21.45865
521.06        21.37594
521.50        21.23319
521.93        21.07228
522.37        20.97276
522.81         20.9522
523.25        20.99605
523.69        21.06383
524.13        21.08868
524.57        21.05225
525.01         20.9696
525.45        20.87725
525.89        20.83327
526.32        20.84874
526.76        20.90725
527.20         20.9575
527.64        20.92329
528.08        20.79092
528.52        20.58468
528.96          20.374
529.40        20.26304
529.83        20.27117
530.27        20.37079
530.71        20.48061
531.15        20.47352
531.59         20.3256
532.03        20.08128
532.46        19.82561
532.90        19.70765
533.34        19.75077
533.78        19.90185
534.22        20.08114
534.66        20.16772
535.09         20.1268
535.53        20.00584
535.97         19.8484
536.41        19.71905
536.85        19.64286
537.28        19.60984
537.72        19.61729
538.16        19.60167
538.60        19.65197
539.04        19.68922
539.47        19.73255
539.91        19.81674
540.35        19.95222
540.79        19.95761
541.22        20.08298
541.66        20.17527
542.10        20.32578
542.54        20.21106
542.97        20.37771
543.41        20.46798
543.85        20.63074
544.29        20.80643
544.72        20.96021
545.16        21.09952
545.60        21.21269
546.04        21.23543
546.47        21.23753
546.91        21.46396
547.35        21.86337
547.79         22.1474
548.22        22.27508
548.66        22.33801
549.10        22.37697
549.53        22.54072
549.97        22.83989
550.41        22.88045
550.84        23.08529
551.28        23.22086
551.72        23.43419
552.15         23.6795
552.59        23.95289
553.03        24.24983
553.46        24.51507
553.90        24.69092
554.34        24.76574
554.77         24.7593
555.21        24.72475
555.65         24.7354
556.08        24.80902
556.52        24.92466
556.96         25.0571
557.39         25.1968
557.83        25.32489
558.27        25.38905
558.70        25.40593
559.14        25.45123
559.57        25.52306
560.01        25.61048
560.45        25.69394
560.88        25.70507
561.32        25.69226
561.75        25.75224
562.19         25.9639
562.63        26.02883
563.06        25.99096
563.50        26.04607
563.93        26.18663
564.37        26.34827
564.80        26.40485
565.24        26.52885
565.68        26.66322
566.11        26.77131
566.55        26.87377
566.98        26.95144
567.42        26.99441
567.85         27.3067
568.29        27.18755
568.72        27.48382
569.16        27.90652
569.60        28.18447
570.03        28.27416
570.47        28.35238
570.90        28.31833
571.34        28.67643
571.77        28.50953
572.21        28.96424
572.64        29.03827
573.08        29.28225
573.51        29.42366
573.95        29.77725
574.38        29.98401
574.82        30.19851
575.25        30.28759
575.69        30.08588
576.12        29.96134
576.56        29.79932
576.99        29.75074
577.42         30.0596
577.86        30.30722
578.29         30.1157
578.73        30.50771
579.16        29.97894
579.60        29.82309
580.03        29.80893
580.47        30.11837
580.90        29.77387
581.33        29.41105
581.77        29.51985
582.20        29.96021
582.64        29.34121
583.07        28.93889
583.51        28.93564
583.94        28.61152
584.37        28.59287
584.81        28.32747
585.24        28.30051
585.68        28.38012
586.11        28.20843
586.54        28.14056
586.98        27.87123
587.41        28.14401
587.85        28.15079
588.28        28.03814
588.71        27.86464
589.15        27.71197
589.58        27.49699
590.01        27.55396
590.45        28.09118
590.88        27.68543
591.31        27.71916
591.75        27.70149
592.18          27.851
592.61        27.53753
593.05        27.79202
593.48         27.6768
593.91        28.28932
594.35        27.96305
594.78        28.06316
595.21        28.63412
595.65        28.96401
596.08        28.69459
596.51        28.68034
596.94        28.87678
597.38        29.01857
597.81        29.10692
598.24        29.57301
598.68        30.07613
599.11        30.10119
599.54        30.96093
599.97        30.80558
600.41         31.0641
600.84        31.45043
601.27        32.01646
601.70        32.43642
602.14        32.64208
602.57        33.03597
603.00        33.60518
603.43        34.16466
603.87        34.47583
604.30        34.85313
604.73        35.31412
605.16        35.34108
605.60        35.96754
606.03        36.40878
606.46        36.88446
606.89        37.42027
607.32        37.89711
607.76        38.19276
608.19        38.38096
608.62        39.00554
609.05        38.87242
609.48        39.24957
609.92        39.73716
610.35        39.88094
610.78        40.49492
611.21        40.96558
611.64        40.84259
612.07         41.3408
612.50        41.49392
612.94        41.57145
613.37         42.0594
613.80        42.46041
614.23        42.94563
614.66        43.14602
615.09        43.45851
615.52        43.67745
615.96        43.85427
616.39        44.12368
616.82        44.60266
617.25        44.09772
617.68        44.72358
618.11        45.24054
618.54        45.58167
618.97         45.6154
619.40        45.24442
619.84        45.30265
620.27        45.04844
620.70        45.51188
621.13        46.25625
621.56        46.43245
621.99        46.15919
622.42        46.09904
622.85        46.37258
623.28        46.52629
623.71        46.51689
624.14        46.59171
624.57        46.66402
625.00        46.07205
625.43        46.70464
625.86        45.95748
626.29        46.12885
626.72        45.88637
627.15        45.77614
627.58        45.69062
628.01        45.57362
628.44        45.41624
628.87        45.22382
629.30        44.71372
629.73        44.60246
630.16        44.28638
630.59        44.08381
631.02        43.77661
631.45        43.39779
631.88        43.04103
632.31        42.63878
632.74        42.19396
633.17        41.70223
633.60        41.22461
634.03        40.77488
634.46        40.34259
634.89        39.92428
635.32        39.50973
635.75        39.09899
636.18         38.7027
636.61         38.3235
637.04        37.96074
637.47        37.61047
637.89        37.26833
638.32        36.93099
638.75        36.61672
639.18        36.33064
639.61         36.0769
640.04        35.83098
640.47        35.54997
640.90        35.23137
641.33        34.89122
641.76        34.58456
642.18         34.4038
642.61        34.36002
643.04        34.42426
643.47        34.53389
643.90        34.58402
644.33         34.5492
644.76        34.46795
645.18        34.38056
645.61        34.35639
646.04        34.41946
646.47        34.54393
646.90        34.73795
647.33        35.01555
647.75        35.36862
648.18        35.79055
648.61        36.22741
649.04         36.5899
649.47        36.86935
649.89        37.08338
650.32        37.30288
650.75        37.68949
651.18        38.26437
651.61        38.84817
652.03        39.42237
652.46         40.2098
652.89        41.12903
653.32        41.58759
653.74        41.63762
654.17        42.28318
654.60        42.78797
655.03        43.61345
655.46        43.17495
655.88        45.14532
656.31        46.07592
656.74        52.13271
657.16         48.8033
657.59        44.74791
658.02        46.30118
658.45        46.86981
658.87        47.97877
659.30        48.27221
659.73        49.07434
660.15        49.57669
660.58        49.73505
661.01        49.70476
661.44        49.55752
661.86         49.7553
662.29        50.28657
662.72        50.98017
663.14        51.63141
663.57        51.65088
664.00        51.21651
664.42        51.20978
664.85         51.7035
665.27        52.17026
665.70        52.51433
666.13        52.81027
666.55        53.02026
666.98         53.3268
667.41        53.37322
667.83        53.49176
668.26        53.57523
668.69         53.6359
669.11         53.6923
669.54        53.75481
669.96        53.83424
670.39         53.9918
670.82        54.20109
671.24        54.27005
671.67        54.27017
672.09        54.51767
672.52        54.92059
672.94         55.2798
673.37        55.17703
673.80        55.04704
674.22        54.89206
674.65        54.88391
675.07        55.06822
675.50        55.35514
675.92        55.65479
676.35        55.80858
676.77        55.78355
677.20        55.63344
677.62        55.44044
678.05        55.34241
678.47        55.37401
678.90        55.50361
679.32         55.6848
679.75        55.85346
680.17        55.97654
680.60        56.11615
681.02        56.27568
681.45        56.31982
681.87        56.30994
682.30        56.52367
682.72         56.8923
683.15        56.98341
683.57        56.82443
684.00        56.71421
684.42        56.84127
684.85        56.92043
685.27        56.99915
685.70        57.17943
686.12        57.41169
686.54        57.58046
686.97        57.65751
687.39        57.67878
687.82        57.65885
688.24        57.64746
688.66        57.65534
689.09        57.67223
689.51         57.7065
689.94        57.72195
690.36        57.73207
690.78        57.76699
691.21        57.85397
691.63        57.85342
692.06        58.34153
692.48        58.28544
692.90        58.36087
693.33        58.76963
693.75        58.65829
694.17         58.7924
694.60        58.83577
695.02        58.71004
695.44        58.43043
695.87        58.29346
696.29        58.32161
696.71        58.18148
697.14        58.03991
697.56        58.42075
697.98        59.10364
698.41        59.89409
698.83        59.72618
699.25        59.38778
699.68        59.46099
700.10        59.37646
700.52        59.41053
700.94        59.53955
701.37        59.71033
701.79        59.85097
702.21        59.90611
702.64        59.91286
703.06        59.90229
703.48        59.92854
703.90        60.00932
704.33        60.12453
704.75        60.23368
705.17        60.24422
705.59        60.14187
706.01        59.96869
706.44        59.80801
706.86        59.82575
707.28        60.03412
707.70        60.41156
708.12        60.83339
708.55        61.01479
708.97        60.94941
709.39        60.89741
709.81        60.89633
710.23        60.83552
710.66        60.74175
711.08        60.71503
711.50         60.7609
711.92         60.8123
712.34        60.85895
712.76        60.99196
713.19        61.19691
713.61        61.12686
714.03        61.33068
714.45        61.34364
714.87        61.36542
715.29        61.42905
715.71        61.54587
716.13        61.69358
716.56         61.8202
716.98        61.92483
717.40         61.9659
717.82        61.96788
718.24        61.95789
718.66        61.92919
719.08        61.88154
719.50        62.00811
719.92        61.94108
720.34        61.93343
720.76        61.87691
721.19        61.79176
721.61        61.70893
722.03        61.65009
722.45        61.64614
722.87        61.68342
723.29        61.75911
723.71         61.8368
724.13        61.90738
724.55        62.05967
724.97         62.1577
725.39         62.3371
725.81        62.54693
726.23        62.76907
726.65        62.97945
727.07        63.13657
727.49        63.22755
727.91        63.28767
728.33         63.3242
728.75        63.20596
729.17        63.17724
729.59        63.06393
730.01        62.96663
730.43        62.93764
730.85        62.99171
731.27         63.0778
731.69        63.17449
732.10        63.33979
732.52        63.51232
732.94        63.50941
733.36        63.34673
733.78        63.28006
734.20        63.35765
734.62        63.33675
735.04        63.16724
735.46        63.41647
735.88        63.35933
736.30        63.06645
736.72        63.26345
737.13        63.30236
737.55        63.41605
737.97        63.64653
738.39        63.91252
738.81        63.92664
739.23        63.75832
739.65        63.60604
740.06        63.82605
740.48        63.86275
740.90        63.84898
741.32        63.39358
741.74        63.61992
742.16        63.60791
742.57        63.69353
742.99        63.84344
743.41        64.03289
743.83        64.17637
744.25         64.2404
744.67        64.24497
745.08        64.22147
745.50        64.19713
745.92        64.19568
746.34        64.20018
746.75        64.19511
747.17        64.16081
747.59        64.10008
748.01        64.03417
748.42         63.9856
748.84        63.98607
749.26        64.05534
749.68        64.08961
750.09        64.11826
750.51        64.34096
750.93        64.61777
751.35        64.63596
751.76        64.48606
752.18        64.10835
752.60        63.94618
753.01        64.60205
753.43        64.15357
753.85        64.21956
754.27        64.13573
754.68        64.83018
755.10        64.65901
755.52        64.82573
755.93        64.86767
756.35        64.83158
756.77        64.77547
757.18        64.79714
757.60        64.94427
758.02        65.15311
758.43        65.35183
758.85        65.34332
759.26        65.55788
759.68        65.06474
760.10         65.1673
760.51         64.7802
760.93        64.36304
761.34        64.29887
761.76        64.44605
762.18        64.40986
762.59        64.23589
763.01        64.25871
763.42        64.81702
763.84        65.13034
764.26        65.25872
764.67        65.23315
765.09        65.19235
765.50         65.4372
765.92        65.87756
766.33        66.00245
766.75        65.72753
767.16        65.34439
767.58        64.96353
768.00        64.75789
768.41        64.79624
768.83        65.00546
769.24         65.2832
769.66        65.43172
770.07        65.42278
770.49        65.39845
770.90        65.41592
771.32        65.53491
771.73        65.72858
772.15        65.80119
772.56         65.7571
772.97        65.73979
773.39        65.70348
773.80        65.57131
774.22        65.33933
774.63        64.91953
775.05        64.68433
775.46        64.63599
775.88        64.86642
776.29        65.34735
776.70         65.8737
777.12        66.11217
777.53        65.99043
777.95        65.58392
778.36        65.09881
778.77        64.89407
779.19        65.05976
779.60        65.52524
780.02         66.0487
780.43         66.3942
780.84        66.48396
781.26        66.08275
781.67        65.49529
782.09        65.96998
782.50        67.20027
782.91        67.29481
783.33        66.32854
783.74        66.02834
784.15        66.44685
784.57        66.61842
784.98        66.46042
785.39        66.21374
785.81        65.92575
786.22         65.7269
786.63        65.65158
787.04        65.59772
787.46        65.57932
787.87        65.68438
788.28        65.90017
788.70        66.13177
789.11        66.34413
789.52        66.54464
789.93        66.70904
790.35        66.82017
790.76        66.85268
791.17        66.73772
791.58        66.51214
792.00        66.23534
792.41        65.95398
792.82        65.83282
793.23        65.80095
793.65        65.44911
794.06        65.01673
794.47        65.23776
794.88        65.87373
795.29        67.08421
795.71        66.54035
796.12        66.62463
796.53        66.69762
796.94        66.49096
797.35        66.08241
797.76        65.88391
798.18        65.93694
798.59         65.9629
799.00        65.95247
799.41        66.11934
799.82        66.39093
800.23        66.52811
800.64        66.49053
801.06        66.30867
801.47        66.13189
801.88        66.14988
802.29        66.39217
802.70         66.7671
803.11        67.12353
803.52        67.21436
803.93        66.99724
804.34        66.59342
804.75        66.10423
805.17        65.75499
805.58        65.67336
805.99        65.52951
806.40        65.40338
806.81        66.17764
807.22        67.45144
807.63        67.37756
808.04        66.19479
808.45        65.91714
808.86        66.69271
809.27        67.40131
809.68        67.81514
810.09        68.06709
810.50        68.07021
810.91        67.80485
811.32        67.39905
811.73        67.03887
812.14        66.79108
812.55        66.65377
812.96        66.58564
813.37        66.44386
813.78        66.23977
814.19        66.14632
814.60        66.16882
815.01        66.20076
815.42        66.23444
815.83        66.30762
816.24        66.42614
816.65        66.57173
817.05        66.73927
817.46        66.89646
817.87        67.00808
818.28        66.97829
818.69         66.8036
819.10        66.51292
819.51        66.23201
819.92        66.18893
820.33        66.43578
820.74        66.88963
821.14        67.41511
821.55        67.76024
821.96        67.86451
822.37        67.79796
822.78        67.61041
823.19        67.39005
823.60        67.18475
824.00        66.98634
824.41        66.80796
824.82        66.76476
825.23        66.87053
825.64        67.10705
826.04        67.39539
826.45        67.55806
826.86        67.56135
827.27        67.44135
827.68        67.25526
828.08        67.13075
828.49        67.06358
828.90        67.04844
829.31        67.06435
829.72        67.07716
830.12        67.09023
830.53        67.08248
830.94        67.08116
831.35        67.09443
831.75         67.1433
832.16        67.18392
832.57        67.20914
832.97        67.18594
833.38        67.09634
833.79        66.95557
834.20        66.81922
834.60        66.76425
835.01        66.82225
835.42         66.9774
835.82        67.15989
836.23        67.20251
836.64        67.08438
837.04        66.83661
837.45         66.5759
837.86        66.53443
838.26        66.76969
838.67        67.19487
839.08        67.61594
839.48        67.66821
839.89        67.27829
840.29        66.60126
840.70        65.94785
841.11        65.70336
841.51        65.96686
841.92        66.56321
842.33         67.3504
842.73        68.08109
843.14        68.54592
843.54        68.85487
843.95        68.92687
844.35        68.71503
844.76        68.25982
845.17        67.61259
845.57        66.93497
845.98        66.49885
846.38        66.37155
846.79        66.48248
847.19        66.81983
847.60        67.21566
848.00        67.63866
848.41        68.06338
848.81        68.44339
849.22        68.63295
849.62        68.64346
850.03        68.43472
850.43        68.15099
850.84        67.98655
851.24        68.04992
851.65        68.25431
852.05        68.49955
852.46        68.51228
852.86        68.25917
853.27        67.83344
853.67        67.36497
854.07         67.2365
854.48        67.44091
854.88        67.73016
855.29        67.96178
855.69         68.1925
856.10        68.29408
856.50        68.27299
856.90        68.12753
857.31        67.94677
857.71        67.83913
858.12        67.72559
858.52        67.65004
858.92        67.57281
859.33        67.47467
859.73        67.39736
860.13        67.38487
860.54        67.51331
860.94        67.83162
861.34        68.27154
861.75         68.6386
862.15        68.72244
862.55        68.44401
862.96        67.90341
863.36         67.2915
863.76        66.91482
864.17        66.85861
864.57         67.0417
864.97        67.38148
865.38        67.72898
865.78        68.06186
866.18        68.35224
866.58        68.49417
866.99        68.31179
867.39        67.82723
867.79        67.08765
868.19        66.17826
868.60        65.22506
869.00        64.26385
869.40        63.32177
869.80        62.63089
870.21        62.54161
870.61        63.14666
871.01        64.29536
871.41         65.5235
871.81        66.09184
872.22        65.87005
872.62        65.07336
873.02        64.07873
873.42        63.76262
873.82        64.07795
874.22        64.18629
874.63        64.19922
875.03        64.42345
875.43        64.81316
875.83         66.4474
876.23        65.98637
876.63        65.15372
877.03        63.40454
877.44        60.85783
877.84        136.0558
878.24        61.48285
878.64        63.00169
879.04        67.43075
879.44        63.29674
879.84        61.02994
880.24        66.35067
880.64        66.85136
881.04        63.72939
881.44        61.74823
881.84        61.60251
882.24        62.54827
882.65         64.0164
883.05        64.78452
883.45        64.46021
883.85        63.77291
884.25        63.16618
884.65        62.98702
885.05        63.35569
885.45         64.1144
885.85        64.91842
886.25        65.22643
886.65        64.90806
887.05         64.1684
887.45        63.35498
887.85        62.97677
888.25        63.15908
888.65        63.73738
889.04        64.50014
889.44        65.00938
889.84        65.13975
890.24        65.00864
890.64        64.73186
891.04        64.48224
891.44        64.30242
891.84        64.10466
892.24        63.86139
892.64        63.54699
893.04        63.18139
893.44        62.85376
893.83        62.52896
894.23        62.15797
894.63        61.73619
895.03        61.26194
895.43        60.91342
895.83        60.99129
896.23        61.52497
896.63        62.41122
897.02        63.31161
897.42        63.61076
897.82        63.18292
898.22          62.233
898.62        61.14373
899.01        60.49715
899.41        60.47195
899.81        60.87638
900.21        61.51665
900.61        62.10107
901.00        62.51286
901.40        62.80085
901.80        63.01276
902.20        63.20433
902.59        63.39291
902.99        63.54914
903.39        63.55874
903.79        63.25274
904.18        62.63895
904.58        61.85349
904.98        61.19798
905.38         61.1262
905.77        61.69519
906.17        62.73864
906.57        63.89906
906.96        64.63859
907.36        64.75552
907.76        64.38478
908.15        63.77591
908.55        63.28202
908.95        63.04306
909.34        63.00271
909.74         62.9598
910.14        62.56237
910.53        61.75959
910.93        60.75111
911.33        59.96716
911.72        60.07278
912.12        61.10932
912.52        62.76068
912.91         64.4605
913.31        65.25835
913.70        64.98292
914.10        63.89425
914.49        62.33495
914.89         61.1258
915.29        60.60568
915.68        60.57261
916.08        60.91669
916.47        61.46653
916.87        62.07715
917.26        62.78179
917.66        63.43496
918.05        63.81797
918.45        63.85279
918.84        63.63845
919.24        63.14151
919.64        62.34813
920.03        61.35472
920.42        60.22334
920.82        59.38892
921.21        59.46989
921.61        60.47409
922.00        62.21693
922.40        64.02039
922.79        64.99847
923.19        64.91431
923.58        63.78532
923.98         61.9199
924.37        60.78106
924.77        60.99393
925.16        58.07111
925.55        59.66864
925.95        59.70414
926.34        60.40905
926.74        61.48168
927.13        62.70897
927.52        63.53847
927.92        63.80331
928.31        63.71432
928.70        63.29662
929.10        62.69286
929.49        62.02309
929.89        61.25934
930.28        60.68935
930.67        60.76377
931.07        61.50203
931.46        62.83026
931.85        64.22865
932.24         64.9054
932.64        64.67566
933.03        63.63455
933.42        62.23026
933.82        61.41436
934.21        61.44868
934.60        62.06837
934.99        62.58367
935.39        62.38346
935.78        61.39841
936.17        59.17807
936.56        56.02438
936.96        57.17725
937.35        56.34804
937.74        58.40277
938.13        60.50763
938.53         61.9444
938.92        62.61417
939.31         62.8143
939.70        62.72566
940.09        62.49236
940.49        62.25855
940.88        61.99363
941.27        61.84291
941.66        62.07286
942.05        62.68803
942.44        63.57516
942.84         64.5836
943.23        65.43895
943.62        65.99725
944.01        66.36281
944.40        66.35284
944.79        65.69046
945.18        64.37787
945.57        62.44785
945.97        60.54922
946.36        59.80524
946.75        60.54947
947.14        62.39748
947.53        64.41866
947.92        65.31306
948.31        64.85358
948.70        63.43968
949.09        61.68458
949.48        60.67554
949.87        60.75241
950.26        61.54381
950.65        62.64831
951.04        63.41014
951.43        63.59064
951.82        63.43067
952.21        63.02292
952.60        62.49023
952.99        61.92572
953.38        61.26095
953.77        60.63844
954.16        60.31629
954.55        60.32787
954.94        60.62942
955.33        61.01126
955.72        61.08835
956.11        60.77379
956.50        60.18917
956.89        59.52606
957.28        59.17175
957.66        59.27485
958.05         59.6035
958.44         60.0838
958.83        60.62538
959.22        61.16769
959.61        61.76763
960.00        62.17936
960.39        61.96192
960.78        61.05429
961.16        59.56355
961.55        58.05421
961.94        57.27905
962.33        57.40127
962.72        58.24982
963.11        59.29978
963.49         59.6378
963.88        58.95086
964.27         57.5458
964.66        56.02067
965.04        55.35345
965.43        55.78287
965.82        57.00847
966.21        58.46446
966.60        59.23678
966.98        59.09742
967.37        58.31972
967.76        57.40304
968.15        57.12256
968.53        57.67833
968.92        58.70269
969.31        59.81799
969.69        60.42168
970.08        60.26397
970.47        59.58343
970.86        58.53608
971.24        57.32288
971.63        56.13956
972.02        54.97367
972.40        53.93024
972.79        53.23223
973.17        52.95901
973.56        53.00959
973.95        53.43328
974.33        54.24765
974.72        55.24895
975.11        56.37053
975.49        57.22516
975.88        57.23966
976.26        56.35054
976.65        54.77218
977.04         52.9353
977.42        51.61358
977.81        51.09727
978.19        51.17636
978.58        51.72161
978.96         52.4636
979.35        53.20419
979.74        54.12794
980.12        55.03572
980.51        55.32605
980.89        55.01837
981.28         54.1536
981.66        53.32904
982.05        53.42321
982.43        54.53905
982.82        56.38924
983.20        58.40179
983.59        59.24328
983.97        58.62468
984.35        56.88142
984.74        54.75574
985.12        53.31029
985.51        52.86906
985.89        53.08528
986.28        53.67752
986.66        54.07277
987.04         53.9875
987.43        53.73242
987.81        53.20998
988.20        52.18641
988.58        50.55173
988.96        48.06797
989.35        45.29562
989.73        43.96046
990.12        44.91089
990.50        47.64398
990.88        50.54345
991.27        51.74475
991.65        51.23065
992.03        49.47216
992.42        47.50528
992.80        47.28645
993.18        49.37745
993.56        52.79885
993.95        56.38565
994.33        59.01999
994.71        60.23599
995.10        60.46303
995.48        59.94078
995.86        58.89401
996.24        57.48702
996.63        55.63475
997.01        53.48451
997.39        51.81297
997.77        51.06031
998.15        51.09882
998.54        51.66137
998.92        52.38609
999.30        53.16267
999.68        54.23808
1000.06        55.07627
1000.45        54.22586
1000.83        51.57652
1001.21        48.02741
1001.59        45.15117
1001.97        44.14005
1002.35        44.81012
1002.73        46.81665
1003.12        49.43956
1003.50        50.83318
1003.88        50.08084
1004.26        47.84378
1004.64        44.94436
1005.02        42.49419
1005.40        40.84667
1005.78        39.58272
1006.16        39.12249
1006.54        40.24456
1006.92        42.58694
1007.30        45.45272
1007.69         47.7009
1008.07        48.34171
1008.45        47.07177
1008.83        43.80128
1009.21        37.94897
1009.59        30.36627
1009.97        23.36412
1010.35        18.13087
1010.73         16.5501
1011.11        19.24408
1011.49        25.10104
1011.86        33.59193
1012.24        41.16354
1012.62        44.41702
1013.00        43.21008
1013.38         38.7276
1013.76        33.14438
1014.14        30.38227
1014.52        31.56882
1014.90        35.50274
1015.28        40.31847
1015.66        42.88165
1016.04        42.10161
1016.41        38.78994
1016.79         33.8297
1017.17        29.67133
1017.55        27.85576
1017.93        27.55945
1018.31        28.22505
1018.69           29.41
1019.06        30.77928
1019.44        32.25134
1019.82        33.39478
1020.20        32.91247
1020.58        30.35254
1020.95        26.30089
1021.33        20.88337
1021.71        12.95605
1022.09       0.6389796
1022.46       -21.86087
1022.84       -54.74272
1023.22       -65.11236
1023.60       -34.73874
1023.97       0.5113968
1024.35        20.99343
1024.73        28.66574
