SpectraSmart Spectrum 2.9.0.0
--------- Device Information -----------
Spectrum Name :  反射率_0
Saving Time :  2024/04/20 00:47:57
Spectro-Module Model Name : SE2030-DUVN
Spectro-Module Serial Number : OS361AC55029948
Wavelength Start : 200
Wavelength End : 1025
Wavelength Unit : Wavelength(nm)
Spectrum Unit : Reflectance(%)
-----------Spectrum Setting ------------
Integration Time : 30ms
Average : 10
Boxcar : 0
Background removal :  enabled
linearity correction :  enabled
SC :  disabled
Intensity correction :  disabled
DWT denoise :  enabled
savitzky-golay :  disabled
FFT :  disabled
Running average :  disabled
Kalman :  disabled
High pass :  disabled
---------------BEGIN--------------------
Wavelength(nm)             Reflectance(%)
200.29               0
200.75        54.16179
201.21        52.65935
201.67        52.72032
202.13        56.49821
202.58        64.90074
203.04        78.13807
203.50        91.78635
203.96        94.82718
204.42        86.64108
204.88        74.28961
205.34        63.49823
205.80        56.74356
206.26        52.87957
206.72        50.13978
207.18        48.59327
207.64        49.57717
208.10        53.44661
208.55         59.4603
209.01         63.7556
209.47        64.09252
209.93        61.17011
210.39        56.25619
210.85         50.7893
211.31        46.09661
211.77        42.10997
212.23        37.92039
212.69        34.28352
213.14            34.4
213.60        38.38603
214.06        44.28441
214.52        49.32512
214.98        52.37493
215.44        53.95947
215.90        54.23286
216.36        54.28395
216.81        56.23963
217.27        60.22503
217.73        65.37519
218.19        68.83319
218.65         66.7196
219.11        58.44966
219.57        44.65688
220.02        28.60681
220.48        19.15603
220.94        19.78254
221.40        28.86668
221.86        41.41556
222.32        49.41828
222.77        50.68209
223.23        47.73572
223.69        43.55202
224.15        42.35476
224.61        44.47951
225.06        47.75206
225.52        50.54512
225.98        51.79777
226.44        51.53053
226.90        50.43367
227.36         49.0154
227.81        47.96896
228.27        47.81428
228.73        48.08979
229.19        48.56402
229.65        48.99409
230.10        49.27779
230.56        49.55686
231.02        49.75643
231.48        49.78362
231.93        49.62842
232.39        49.33174
232.85        49.00248
233.31        48.86097
233.77        48.93438
234.22        49.13317
234.68        49.32367
235.14        49.16699
235.60        48.61197
236.05        47.81581
236.51        46.97568
236.97         46.3382
237.43        45.99723
237.88        46.01788
238.34        46.34797
238.80        47.11435
239.26        48.20148
239.71        49.44418
240.17        50.56565
240.63        51.69804
241.08          52.923
241.54        54.12698
242.00        54.78846
242.46        53.84378
242.91        50.65549
243.37        44.36286
243.83        35.37944
244.28         29.4506
244.74        32.49969
245.20        43.72371
245.66        55.07039
246.11        59.37176
246.57        55.98984
247.03        45.62887
247.48        31.07689
247.94        27.36081
248.40        36.25842
248.85        47.16942
249.31        55.21042
249.77        59.74665
250.22        61.91962
250.68        62.98021
251.14        63.25913
251.59        62.88386
252.05         62.1919
252.51        61.19237
252.96        59.74152
253.42        58.07716
253.88        56.61891
254.33        55.61049
254.79        56.32697
255.25         59.6621
255.70        64.95889
256.16        71.05459
256.62        76.18521
257.07        78.41779
257.53        77.90517
257.99        75.43029
258.44         71.7416
258.90        68.67789
259.35        66.34877
259.81        64.99712
260.27        63.87373
260.72        62.32139
261.18        60.55701
261.63        58.35217
262.09        56.61171
262.55        56.04027
263.00        56.48396
263.46        57.66089
263.91        58.42922
264.37        57.76331
264.83        55.69198
265.28        52.67533
265.74        49.93565
266.19        48.70602
266.65        49.15321
267.11        50.59555
267.56        52.12303
268.02        52.45338
268.47        51.34537
268.93        49.25671
269.38        46.73002
269.84         44.8808
270.30        44.02713
270.75         43.8502
271.21        43.95097
271.66        43.72332
272.12         42.9948
272.57        41.96648
273.03         40.9138
273.48         40.1485
273.94        39.78783
274.39        39.65221
274.85        39.52883
275.31        39.08957
275.76        38.25685
276.22         37.1713
276.67        36.04918
277.13        35.31929
277.58        34.98922
278.04        34.96288
278.49        34.89568
278.95        34.37526
279.40        33.32797
279.86        32.01583
280.31        30.71254
280.77        29.94629
281.22         29.7226
281.68        29.86951
282.13        30.11705
282.59         30.1139
283.04        29.76527
283.50        29.24558
283.95        28.62771
284.41        28.05329
284.86        27.55981
285.32        27.12239
285.77        26.80224
286.22        26.76928
286.68         27.0095
287.13        27.43095
287.59        27.85075
288.04        27.97033
288.50        27.75886
288.95        27.27945
289.41        26.70277
289.86        26.22287
290.32        25.95618
290.77        25.83774
291.22         25.8476
291.68        25.91779
292.13        26.03039
292.59         26.2316
293.04        26.54257
293.50        27.00375
293.95        27.59927
294.40        28.28352
294.86        29.00409
295.31        29.69949
295.77        30.34646
296.22        30.95681
296.68        31.52297
297.13        32.01453
297.58        32.44634
298.04        32.83775
298.49        33.24406
298.95        33.79198
299.40        34.48424
299.85        35.27871
300.31        36.09642
300.76        36.80646
301.21        37.37226
301.67        37.85516
302.12        38.25124
302.58         38.6223
303.03        38.96648
303.48        39.28812
303.94        39.64577
304.39        40.08827
304.84        40.62439
305.30        41.22234
305.75        41.78363
306.20        42.18206
306.66        42.40947
307.11        42.48921
307.57         42.4937
308.02        42.45472
308.47         42.4214
308.93        42.37727
309.38        42.35066
309.83        42.43917
310.29        42.63935
310.74        42.92463
311.19        43.16383
311.65        43.14269
312.10        42.82532
312.55        42.28618
313.00         41.7026
313.46        41.34908
313.91        41.26976
314.36        41.39182
314.82        41.57207
315.27        41.60097
315.72        41.40624
316.18         41.0739
316.63        40.67322
317.08        40.31815
317.53         40.0426
317.99        39.79501
318.44        39.56822
318.89        39.34686
319.35        39.12016
319.80        38.90189
320.25        38.66858
320.70        38.37701
321.16        38.01654
321.61        37.60324
322.06        37.16728
322.51        36.76711
322.97        36.41274
323.42        36.09447
323.87        35.78645
324.32        35.45087
324.78        35.07076
325.23        34.67387
325.68        34.25727
326.13        33.82201
326.59        33.37927
327.04         32.9542
327.49        32.57459
327.94        32.28912
328.39         32.1027
328.85        31.97894
329.30        31.92199
329.75        31.88485
330.20         31.8401
330.66        31.77172
331.11        31.66357
331.56        31.43729
332.01        31.08244
332.46        30.61615
332.92        30.10612
333.37        29.68351
333.82        29.39466
334.27        29.23052
334.72        29.14247
335.17        29.03732
335.63         28.8753
336.08        28.68372
336.53        28.51596
336.98        28.47319
337.43        28.56612
337.88        28.75752
338.34        28.89919
338.79        28.80023
339.24        28.40832
339.69         27.7859
340.14        27.13786
340.59        26.80846
341.05        26.86673
341.50        27.21362
341.95        27.63293
342.40        27.78564
342.85        27.59247
343.30        27.17431
343.75        26.67222
344.20        26.31605
344.66        26.17471
345.11          26.143
345.56        26.19115
346.01         26.2742
346.46        26.34925
346.91        26.44159
347.36        26.45456
347.81        26.22617
348.26        25.75772
348.72        25.13645
349.17        24.50494
349.62        24.18293
350.07        24.24926
350.52         24.5922
350.97        25.08205
351.42        25.52259
351.87        25.83028
352.32        26.04305
352.77        26.12074
353.22        26.00378
353.67        25.70546
354.13        25.26373
354.58        24.75964
355.03        24.36731
355.48        24.14164
355.93        24.05579
356.38        24.07578
356.83        24.13294
357.28        24.19093
357.73        24.25603
358.18        24.30963
358.63        24.32005
359.08        24.27745
359.53         24.1863
359.98        24.03971
360.43        23.83566
360.88        23.58787
361.33        23.30433
361.78        23.04869
362.23        22.92187
362.68        22.93542
363.13        23.05032
363.58         23.1775
364.03        23.17722
364.48         23.0139
364.93        22.72763
365.38        22.37149
365.83        22.04261
366.28        21.78206
366.73        21.56539
367.18         21.3907
367.63         21.2527
368.08        21.14158
368.53        21.06418
368.98        20.99855
369.43        20.90112
369.88        20.76701
370.33        20.61386
370.78        20.45861
371.23        20.33627
371.68        20.26063
372.13        20.21167
372.58        20.21245
373.03        20.30119
373.48         20.4631
373.93        20.67115
374.38        20.83372
374.83        20.81423
375.28        20.59175
375.72        20.20405
376.17        19.76733
376.62        19.43148
377.07         19.2518
377.52        19.19168
377.97        19.21198
378.42        19.24636
378.87        19.26466
379.32        19.28073
379.77        19.29516
380.22        19.30471
380.67        19.30727
381.11        19.30134
381.56        19.25672
382.01        19.14945
382.46        18.97936
382.91        18.75164
383.36        18.52899
383.81        18.40362
384.26        18.38836
384.71        18.46393
385.15        18.53123
385.60        18.43974
386.05        18.16739
386.50        17.76687
386.95        17.37124
387.40        17.19049
387.85        17.26227
388.29        17.50689
388.74        17.78571
389.19        17.90019
389.64        17.80613
390.09         17.5594
390.54        17.26012
390.98        17.06195
391.43        17.02172
391.88        17.07833
392.33        17.14156
392.78        17.08404
393.23        16.89324
393.67        16.61433
394.12        16.36267
394.57        16.23626
395.02        16.25367
395.47        16.37567
395.91         16.5343
396.36        16.59324
396.81        16.52155
397.26        16.35548
397.71        16.17003
398.15        16.06313
398.60        16.07508
399.05        16.16179
399.50        16.25215
399.95        16.24553
400.39        16.12127
400.84        15.90766
401.29        15.68508
401.74        15.59948
402.18        15.69164
402.63        15.90585
403.08        16.12664
403.53        16.17042
403.97        16.00085
404.42         15.6876
404.87        15.35109
405.32        15.18913
405.76        15.24663
406.21         15.4545
406.66        15.70611
407.11        15.83541
407.55        15.79932
408.00        15.65468
408.45        15.46166
408.90         15.2856
409.34        15.17904
409.79        15.18757
410.24        15.26279
410.68        15.26883
411.13        15.19266
411.58        15.10891
412.03        15.03192
412.47        14.96314
412.92        14.90843
413.37        14.85746
413.81        14.83051
414.26        14.87315
414.71        14.97989
415.15        15.14589
415.60        15.28507
416.05        15.28161
416.49        15.11066
416.94        14.81419
417.39        14.49242
417.83        14.30833
418.28        14.30735
418.73        14.43385
419.17        14.60257
419.62        14.66717
420.07        14.59595
420.51        14.43692
420.96        14.25046
421.41         14.1119
421.85        14.04068
422.30        14.01952
422.74        14.02474
423.19        14.04906
423.64        14.07591
424.08        14.11601
424.53         14.1432
424.98        14.13609
425.42        14.09287
425.87         14.0226
426.31        13.92911
426.76        13.82809
427.21        13.71894
427.65        13.59406
428.10         13.4959
428.54        13.47282
428.99        13.53362
429.44        13.71812
429.88        13.92048
430.33        13.88194
430.77        13.64094
431.22        13.48602
431.66        13.46518
432.11        13.49726
432.56        13.56828
433.00        13.73469
433.45        13.86319
433.89        13.77032
434.34        13.55135
434.78        13.34176
435.23        13.12254
435.67         13.7557
436.12        13.31357
436.57        13.23077
437.01        13.00725
437.46        12.91484
437.90        12.96878
438.35        13.05004
438.79        13.10977
439.24        13.13045
439.68        13.09795
440.13        12.91318
440.57        12.67679
441.02        12.74993
441.46        13.01902
441.91        13.07262
442.35        12.58584
442.80        12.41431
443.24        12.42529
443.69        12.35486
444.13        12.20248
444.58        12.10983
445.02         12.0886
445.47        12.13149
445.91        12.19986
446.36        12.20449
446.80        12.12631
447.24         12.0078
447.69        11.88586
448.13        11.78759
448.58        11.73141
449.02        11.70655
449.47        11.69502
449.91        11.66316
450.36        11.60883
450.80        11.54153
451.25        11.49045
451.69         11.4854
452.13        11.53411
452.58        11.61454
453.02        11.70276
453.47        11.76014
453.91        11.77807
454.36        11.76737
454.80        11.73308
455.24         11.6861
455.69        11.63935
456.13        11.57738
456.58        11.52749
457.02        11.52294
457.46        11.56562
457.91        11.62004
458.35        11.66323
458.79        11.68458
459.24        11.67675
459.68         11.6434
460.13        11.64053
460.57        11.64072
461.01        11.63957
461.46        11.94083
461.90        12.05773
462.34        11.95594
462.79        12.02614
463.23        11.87618
463.68        11.72508
464.12        11.61326
464.56        11.65675
465.01        11.75471
465.45        11.85973
465.89        11.91234
466.34        11.90343
466.78        11.81631
467.22         11.7033
467.67        11.73141
468.11        11.88077
468.55        11.90873
468.99        11.82452
469.44        11.83822
469.88        11.95421
470.32        12.04899
470.77        12.09567
471.21        12.11646
471.65        12.10693
472.10        12.06592
472.54        12.01256
472.98         12.0081
473.42        12.06263
473.87        12.12422
474.31        12.18375
474.75        12.29793
475.20        12.43457
475.64        12.46089
476.08        12.40784
476.52        12.43556
476.97         12.5516
477.41        12.68001
477.85        12.78121
478.29        12.83021
478.74        12.82024
479.18        12.73814
479.62         12.6478
480.06        12.65283
480.50        12.75344
480.95        12.85943
481.39        12.93082
481.83        12.96608
482.27        12.96073
482.72        12.92036
483.16        12.87471
483.60        12.88786
484.04        12.97302
484.48        13.11676
484.93        13.35831
485.37        13.56067
485.81        13.75548
486.25         14.1303
486.69        14.50731
487.14        13.89905
487.58        13.83088
488.02        14.75026
488.46        14.31256
488.90        14.47296
489.34        14.38386
489.79        14.51855
490.23        14.81943
490.67        15.04978
491.11        15.17052
491.55          15.129
491.99        14.97907
492.43        14.92426
492.88        14.99893
493.32        15.06532
493.76        15.13484
494.20        15.29445
494.64        15.54331
495.08        15.84655
495.52        16.15653
495.96         16.4141
496.41        16.60159
496.85        16.70182
497.29         16.7516
497.73        16.89343
498.17        17.11863
498.61        17.23986
499.05        17.26575
499.49        17.38564
499.93        17.61028
500.37        17.79306
500.82        17.93266
501.26        18.17483
501.70        18.47242
502.14        18.57486
502.58        18.51332
503.02        18.55219
503.46        18.70916
503.90        18.84404
504.34        18.92326
504.78         18.9561
505.22        18.93866
505.66        18.88036
506.10        18.81948
506.54        18.81338
506.98        18.87968
507.42        19.00512
507.86        19.16927
508.30        19.33593
508.74        19.48685
509.18        19.62387
509.62        19.74747
510.06        19.85983
510.50        19.96182
510.94        20.05347
511.38        20.11941
511.82        20.13803
512.26        20.11113
512.70        20.04814
513.14        19.99393
513.58        20.01447
514.02         20.1133
514.46        20.26938
514.90        20.42851
515.34        20.44523
515.78        20.32746
516.22        20.18659
516.66        20.09225
517.10        19.80703
517.54        19.35173
517.98        19.87012
518.42        19.68469
518.86         19.9139
519.30        20.03859
519.74        20.21315
520.18        20.38091
520.62        20.43012
521.06        20.36214
521.50        20.19207
521.93        19.97871
522.37        19.82869
522.81         19.7714
523.25        19.78161
523.69        19.82386
524.13          19.841
524.57        19.81418
525.01        19.75885
525.45        19.69603
525.89        19.65627
526.32         19.6452
526.76        19.65304
527.20        19.64723
527.64        19.58296
528.08        19.45357
528.52        19.27346
528.96        19.09414
529.40        18.99193
529.83        18.98056
530.27        19.04282
530.71        19.11259
531.15        19.08573
531.59        18.94469
532.03         18.7255
532.46        18.50368
532.90        18.41383
533.34        18.47327
533.78        18.63107
534.22        18.81131
534.66        18.89826
535.09        18.85965
535.53        18.74365
535.97        18.58669
536.41        18.44286
536.85        18.33773
537.28        18.26387
537.72        18.23947
538.16        18.23772
538.60        18.34344
539.04        18.46992
539.47        18.60139
539.91        18.71848
540.35        18.82187
540.79        18.76017
541.22        18.79755
541.66        18.83518
542.10        18.97202
542.54        18.89064
542.97        19.09334
543.41        19.23237
543.85        19.43854
544.29        19.66036
544.72        19.85347
545.16        20.00638
545.60        20.10718
546.04        20.10008
546.47         20.0693
546.91        20.27698
547.35        20.68169
547.79        21.00208
548.22        21.18418
548.66        21.28918
549.10        21.35043
549.53        21.52233
549.97        21.81597
550.41        21.84895
550.84         22.0266
551.28        22.13072
551.72        22.30346
552.15        22.50331
552.59        22.73039
553.03        22.98369
553.46        23.21683
553.90        23.38162
554.34        23.46751
554.77        23.49023
555.21        23.49318
555.65        23.53399
556.08        23.62543
556.52        23.74956
556.96        23.88452
557.39        24.02669
557.83        24.15845
558.27        24.22482
558.70        24.24281
559.14          24.287
559.57        24.35701
560.01        24.44505
560.45        24.52351
560.88        24.51965
561.32        24.48179
561.75        24.48552
562.19        24.62894
562.63         24.7133
563.06        24.76104
563.50        24.83696
563.93        24.93378
564.37        25.08731
564.80        25.17929
565.24        25.30245
565.68        25.40202
566.11         25.5054
566.55        25.63546
566.98        25.64469
567.42        25.70198
567.85        25.98632
568.29        25.88278
568.72        26.17747
569.16        26.60143
569.60        26.89993
570.03        27.02827
570.47        27.16957
570.90        27.20803
571.34        27.54292
571.77        27.31579
572.21        27.68628
572.64        28.00158
573.08        28.05038
573.51        28.25286
573.95        28.68985
574.38        29.01893
574.82        29.24367
575.25        29.24668
575.69        29.13359
576.12        29.20669
576.56        29.14921
576.99        29.10413
577.42         29.1622
577.86        29.42914
578.29        29.32911
578.73        29.78935
579.16        29.50434
579.60        29.25699
580.03        29.18915
580.47        29.27455
580.90        28.98839
581.33        28.64217
581.77        28.86913
582.20        29.38952
582.64          28.862
583.07        28.33656
583.51        28.17945
583.94        27.95923
584.37        27.76287
584.81        27.53737
585.24        27.54686
585.68         27.7337
586.11        27.48516
586.54        27.17622
586.98        26.97079
587.41        27.10927
587.85        27.19874
588.28        27.06139
588.71         26.9639
589.15        26.88436
589.58         26.6911
590.01        26.58643
590.45        26.88723
590.88        26.82889
591.31        26.72969
591.75         26.3778
592.18        26.52983
592.61        26.57524
593.05        26.79495
593.48        26.72844
593.91          27.235
594.35        26.90358
594.78        27.02899
595.21        27.37689
595.65        27.72685
596.08          27.617
596.51         27.6117
596.94        27.64399
597.38        27.79172
597.81         28.1157
598.24        28.21517
598.68        28.72139
599.11        28.96929
599.54        29.87517
599.97        29.57856
600.41        29.78867
600.84        30.47446
601.27        30.84989
601.70        31.32274
602.14        31.54813
602.57        31.99119
603.00        32.58628
603.43        33.15929
603.87        33.32178
604.30        33.68989
604.73        34.12481
605.16        34.49958
605.60        35.06389
606.03        35.61148
606.46        36.09656
606.89        36.68133
607.32        37.37236
607.76        37.32215
608.19        37.89392
608.62        38.33682
609.05        38.39577
609.48        38.70134
609.92        39.09101
610.35        39.13986
610.78        40.13444
611.21        40.57954
611.64        40.39799
612.07        41.10403
612.50        41.30618
612.94        41.24112
613.37         41.9212
613.80        42.23257
614.23        42.55182
614.66        43.02853
615.09        43.24324
615.52        43.64375
615.96        44.02052
616.39        44.29382
616.82        44.50583
617.25        44.51643
617.68        44.64152
618.11        45.25867
618.54        45.78741
618.97         45.9309
619.40        45.56435
619.84        45.73748
620.27        45.59934
620.70          46.038
621.13        46.64614
621.56         46.9239
621.99        46.94738
622.42        46.97922
622.85        47.27903
623.28        47.36482
623.71        47.30007
624.14        47.54413
624.57        47.31139
625.00        47.43434
625.43        47.45053
625.86        46.93293
626.29        47.00861
626.72         46.8363
627.15         46.7401
627.58        46.68806
628.01        46.63101
628.44        46.52356
628.87        46.34386
629.30        45.92504
629.73        45.71489
630.16        45.27439
630.59        45.02095
631.02        44.70084
631.45        44.38216
631.88         44.0262
632.31        43.62096
632.74        43.17944
633.17        42.70602
633.60        42.21479
634.03        41.71424
634.46        41.20518
634.89        40.69425
635.32        40.19055
635.75         39.7005
636.18        39.23014
636.61        38.77661
637.04        38.32918
637.47         37.8825
637.89        37.43896
638.32         37.0007
638.75        36.59533
639.18        36.23104
639.61        35.90622
640.04        35.59915
640.47        35.27081
640.90        34.91658
641.33        34.55349
641.76         34.2176
642.18        33.97038
642.61        33.82048
643.04        33.74894
643.47        33.72861
643.90         33.7137
644.33        33.68997
644.76        33.67503
645.18        33.67116
645.61        33.68579
646.04        33.72558
646.47        33.78471
646.90          33.891
647.33        34.09479
647.75        34.40459
648.18        34.79284
648.61        35.20981
649.04        35.60655
649.47        35.95552
649.89        36.19445
650.32          36.403
650.75        36.82411
651.18         37.4763
651.61        38.12164
652.03        38.70856
652.46        39.48148
652.89        40.37117
653.32        40.73203
653.74        40.67643
654.17        41.60804
654.60         42.0406
655.03        43.28669
655.46        42.84474
655.88        44.55873
656.31        45.45073
656.74        51.91667
657.16        49.24803
657.59        45.26821
658.02        46.05365
658.45         47.0484
658.87        47.93234
659.30        48.78516
659.73        49.27095
660.15        50.10339
660.58        50.22123
661.01        50.26373
661.44        50.13123
661.86        50.50489
662.29        51.33698
662.72        52.12502
663.14        52.70113
663.57        52.84309
664.00        52.69014
664.42        52.79124
664.85        53.21877
665.27        53.60642
665.70        53.88861
666.13        54.17062
666.55        54.44174
666.98        54.66869
667.41        54.87986
667.83         55.1004
668.26        55.32713
668.69        55.58517
669.11        55.85598
669.54        55.97314
669.96        56.14549
670.39        56.22583
670.82        56.31395
671.24        56.45466
671.67        56.68365
672.09        56.99609
672.52        57.28985
672.94        57.66331
673.37        57.55386
673.80        57.47917
674.22        57.38276
674.65        57.41166
675.07        57.60854
675.50        57.92283
675.92        58.27049
676.35        58.46964
676.77        58.48721
677.20         58.3889
677.62        58.25746
678.05        58.22045
678.47        58.30722
678.90        58.52024
679.32        58.74158
679.75        58.95889
680.17        59.11377
680.60        59.27296
681.02        59.42942
681.45        59.41919
681.87        59.30685
682.30        59.41949
682.72        59.71341
683.15         59.7121
683.57         59.4878
684.00        59.50381
684.42        59.88171
684.85        60.09121
685.27        60.15421
685.70        60.29926
686.12          60.487
686.54        60.61598
686.97        60.69484
687.39        60.57399
687.82         60.5775
688.24        60.70335
688.66          60.971
689.09        61.00433
689.51        60.83198
689.94        60.78989
690.36        60.90409
690.78        60.94941
691.21        60.92582
691.63        61.01854
692.06        61.24271
692.48        61.33185
692.90        61.43805
693.33        61.84576
693.75        61.58057
694.17        61.72559
694.60          61.919
695.02        61.86269
695.44        61.55941
695.87        61.40366
696.29        61.40924
696.71        61.25432
697.14        61.12643
697.56        61.45722
697.98        61.96878
698.41        63.13013
698.83        62.40276
699.25        62.22438
699.68        62.01291
700.10        61.89083
700.52        61.91116
700.94        62.07433
701.37        62.31543
701.79        62.51683
702.21        62.61775
702.64        62.65429
703.06        62.66397
703.48        62.71443
703.90        62.82522
704.33        62.96569
704.75        63.08945
705.17        63.09862
705.59        62.98165
706.01        62.77782
706.44        62.59532
706.86        62.60241
707.28         62.8224
707.70        63.19157
708.12        63.59816
708.55        63.85789
708.97        63.92439
709.39        63.86929
709.81         63.7388
710.23        63.60932
710.66         63.5227
711.08        63.46612
711.50        63.44663
711.92        63.48691
712.34        63.58826
712.76        63.75803
713.19        63.94135
713.61        64.09268
714.03        64.16917
714.45        64.18273
714.87        64.18789
715.29        64.27608
715.71        64.46124
716.13        64.71021
716.56        64.94312
716.98        65.09378
717.40        65.09839
717.82        65.02719
718.24        64.94067
718.66        64.81046
719.08        64.63981
719.50        64.91263
719.92        64.72606
720.34        64.78728
720.76        64.83079
721.19        64.77751
721.61        64.81457
722.03        64.79945
722.45        64.82059
722.87         64.7807
723.29        64.82529
723.71        64.86893
724.13        64.95258
724.55        65.06559
724.97        65.21109
725.39        65.38978
725.81        65.58737
726.23         65.8012
726.65        65.99708
727.07        66.10682
727.49        66.11591
727.91        66.11572
728.33        66.00626
728.75        65.96609
729.17        65.97665
729.59        66.03138
730.01        66.09966
730.43        66.13013
730.85        66.11522
731.27        66.07362
731.69        66.04333
732.10        66.09167
732.52        66.21813
732.94         66.3951
733.36        66.57774
733.78        66.68977
734.20        66.71492
734.62        66.69427
735.04        66.64114
735.46        66.57445
735.88        66.50086
736.30        66.40252
736.72        66.34982
737.13        66.42216
737.55        66.57491
737.97        66.98003
738.39         67.4568
738.81        67.30377
739.23        66.68091
739.65        66.57251
740.06        66.90447
740.48         67.0581
740.90        67.04741
741.32        66.20956
741.74        66.59741
742.16        66.54133
742.57        66.65428
742.99        66.85272
743.41        67.09228
743.83         67.2566
744.25         67.2943
744.67        67.24245
745.08        67.13715
745.50        67.02003
745.92         66.9268
746.34         66.8374
746.75        66.77195
747.17        66.74989
747.59        66.77859
748.01        66.91613
748.42        67.11871
748.84        67.20438
749.26        67.22146
749.68        67.29332
750.09        67.45586
750.51        67.82323
750.93        68.20248
751.35        68.10003
751.76         67.6489
752.18        67.14182
752.60        67.14449
753.01        67.49713
753.43        67.13144
753.85        67.22598
754.27        67.42117
754.68        67.69156
755.10        67.94743
755.52        68.08808
755.93        68.10176
756.35        68.03153
756.77        67.95402
757.18        67.94678
757.60        68.05221
758.02        68.25538
758.43        68.47435
758.85        68.46677
759.26        68.64874
759.68          68.211
760.10        68.15678
760.51        67.85143
760.93        67.65702
761.34         67.4024
761.76        67.89523
762.18        67.52159
762.59        66.82806
763.01        66.81202
763.42        68.08478
763.84        68.66496
764.26        68.60844
764.67        68.34307
765.09        68.14102
765.50        68.53278
765.92          69.341
766.33          69.525
766.75        69.00639
767.16         68.5537
767.58        68.27481
768.00        68.07811
768.41         68.0378
768.83        68.06981
769.24        68.18231
769.66        68.61652
770.07        69.20075
770.49        69.35787
770.90        69.15002
771.32        69.21354
771.73        69.52306
772.15        69.56579
772.56         69.3613
772.97        69.10152
773.39        68.82672
773.80        68.82281
774.22         68.9478
774.63         68.5039
775.05        67.69456
775.46        67.51106
775.88         68.0101
776.29        68.72354
776.70        69.34577
777.12        69.59747
777.53        69.38506
777.95        68.77144
778.36        68.05565
778.77        67.74464
779.19        67.96106
779.60        68.59264
780.02        69.32558
780.43        69.81522
780.84        69.94891
781.26        69.48445
781.67        68.76331
782.09        69.20882
782.50         70.4818
782.91        70.40913
783.33        69.13618
783.74        68.75224
784.15        69.34043
784.57        69.76193
784.98        69.84958
785.39        69.74495
785.81        69.47247
786.22        69.24101
786.63        69.10588
787.04        68.99986
787.46        68.96565
787.87        69.00618
788.28        69.06933
788.70        69.53005
789.11        69.47404
789.52         69.6288
789.93        69.74088
790.35        69.85464
790.76        69.94511
791.17        69.95222
791.58        69.88048
792.00        69.68047
792.41        69.37748
792.82        69.29134
793.23        69.10313
793.65        68.83081
794.06        68.60506
794.47        68.89789
794.88        69.44975
795.29        70.69785
795.71        70.24216
796.12        70.07801
796.53        70.51385
796.94        70.08881
797.35        69.30925
797.76        69.17352
798.18        69.64964
798.59        69.91525
799.00        69.94069
799.41        69.62614
799.82        70.15458
800.23        70.25267
800.64        70.25336
801.06        70.17232
801.47        70.10849
801.88        70.14132
802.29        70.27078
802.70        70.45181
803.11         70.6053
803.52        70.59594
803.93        70.38112
804.34        70.12305
804.75        69.90253
805.17        69.58931
805.58        69.18757
805.99        69.74261
806.40        69.02923
806.81        69.68462
807.22        70.71283
807.63        70.71869
808.04        69.86121
808.45        69.64413
808.86        70.19401
809.27        70.93928
809.68          71.223
810.09        71.51196
810.50        71.57861
810.91        71.42753
811.32        71.14619
811.73        70.84192
812.14        70.56381
812.55        70.38544
812.96        70.25452
813.37        69.87827
813.78        69.35225
814.19        69.16513
814.60        69.32037
815.01        69.44753
815.42        69.52856
815.83        69.76672
816.24        70.13306
816.65        70.44893
817.05        70.66698
817.46        70.77462
817.87        70.78816
818.28         70.7009
818.69        70.54318
819.10        70.33015
819.51         70.1185
819.92        70.08406
820.33        70.27936
820.74        70.44879
821.14        70.60905
821.55        71.24459
821.96        72.09836
822.37        72.03226
822.78        71.18816
823.19         70.8408
823.60        71.10371
824.00        71.28302
824.41        71.25784
824.82        71.26521
825.23         71.2857
825.64        71.27183
826.04        71.25491
826.45        71.23441
826.86        71.22298
827.27        71.22126
827.68        71.21353
828.08        71.19151
828.49        71.10276
828.90        70.98539
829.31        70.86298
829.72        70.77578
830.12        70.75484
830.53        70.75283
830.94         70.7644
831.35        70.75056
831.75        70.72279
832.16         70.6555
832.57        70.57834
832.97        70.51722
833.38        70.46615
833.79        70.41733
834.20        70.38461
834.60        70.38279
835.01        70.42632
835.42        70.51793
835.82        70.61619
836.23        70.59673
836.64        70.46088
837.04        70.23849
837.45         70.0297
837.86        70.04294
838.26        70.32839
838.67        70.79106
839.08        71.27503
839.48        71.47636
839.89        71.31141
840.29         70.8998
840.70        70.44887
841.11        70.19307
841.51        70.21358
841.92        70.38358
842.33        70.68877
842.73        71.11082
843.14        71.52068
843.54        71.98515
843.95        72.32427
844.35        72.31879
844.76        71.95004
845.17        71.30814
845.57        70.62489
845.98        70.28239
846.38        70.36951
846.79         70.7785
847.19        71.39909
847.60        71.88778
848.00        72.17715
848.41        72.29929
848.81        72.36407
849.22        72.46149
849.62         72.6619
850.03        72.86304
850.43        73.06117
850.84        73.17038
851.24        73.20746
851.65        73.14519
852.05        73.03094
852.46        72.82434
852.86        72.55159
853.27        72.26567
853.67        71.95168
854.07        71.70387
854.48        71.51865
854.88        71.41465
855.29        71.35162
855.69        71.39961
856.10        71.47919
856.50        71.64404
856.90        71.84104
857.31        72.00816
857.71        72.18827
858.12        72.32435
858.52        72.41681
858.92        72.36768
859.33        72.15322
859.73        71.82227
860.13        71.47962
860.54        71.33954
860.94        71.50982
861.34        71.89274
861.75        72.26152
862.15        72.33604
862.55        72.00928
862.96        71.41585
863.36        70.73184
863.76        70.22689
864.17        70.00192
864.57         69.9983
864.97        70.20233
865.38        70.57848
865.78        71.12515
866.18        71.76661
866.58        72.34929
866.99        72.60074
867.39        72.47638
867.79        72.01755
868.19        71.24888
868.60        70.21162
869.00        68.95168
869.40        67.54188
869.80        66.31939
870.21        65.82475
870.61        66.22586
871.01         67.3243
871.41         68.6583
871.81        69.47118
872.22        69.58752
872.62        69.22302
873.02        68.60999
873.42        68.37119
873.82        68.44909
874.22        68.11708
874.63         67.6266
875.03        67.59738
875.43        68.09328
875.83        69.99807
876.23        70.08635
876.63        69.54435
877.03         67.7854
877.44        65.03948
877.84         132.629
878.24        64.76792
878.64        66.70019
879.04        71.26713
879.44         68.3176
879.84        66.72771
880.24        71.20904
880.64         71.3322
881.04        68.17892
881.44         66.0545
881.84        65.68415
882.24        66.36587
882.65        67.55407
883.05        68.11362
883.45        67.66785
883.85        66.92596
884.25        66.30698
884.65        66.12159
885.05        66.47981
885.45        67.22703
885.85        68.05257
886.25        68.47717
886.65        68.36721
887.05        67.88213
887.45        67.30983
887.85        67.07928
888.25        67.29404
888.65        67.81564
889.04        68.44874
889.44        68.78198
889.84        68.72672
890.24        68.41512
890.64        67.99828
891.04        67.69899
891.44         67.5583
891.84         67.4555
892.24        67.35463
892.64         67.2011
893.04        66.99242
893.44        66.84218
893.83        66.61784
894.23        66.13963
894.63        65.40534
895.03        64.44412
895.43        63.66113
895.83        63.73507
896.23        64.76504
896.63        66.54112
897.02        68.39265
897.42        69.11805
897.82        68.44247
898.22        66.75253
898.62        64.77488
899.01        63.62765
899.41        63.62141
899.81        64.38206
900.21        65.50379
900.61        66.37346
901.00        66.78498
901.40         66.9108
901.80        66.88528
902.20        66.89215
902.59        67.00151
902.99        67.12299
903.39        67.14402
903.79        66.91251
904.18        66.42181
904.58        65.80786
904.98        65.31468
905.38        65.30164
905.77        65.80921
906.17        66.69989
906.57        67.67424
906.96        68.28923
907.36        68.37729
907.76        68.05837
908.15        67.54315
908.55        67.12333
908.95         66.9184
909.34        66.87509
909.74        66.84322
910.14        66.56149
910.53        65.98079
910.93        65.26302
911.33        64.70344
911.72        64.76396
912.12        65.47599
912.52        66.61252
912.91         67.7837
913.31        68.30347
913.70        68.05788
914.10          67.221
914.49        66.03547
914.89        65.10203
915.29        64.66919
915.68        64.61297
916.08        64.83864
916.47        65.18484
916.87        65.54592
917.26        65.94946
917.66        66.36522
918.05        66.77675
918.45        67.13396
918.84        67.46436
919.24        67.57879
919.64        67.19872
920.03        66.33734
920.42        65.12947
920.82        64.08455
921.21        63.93964
921.61         64.7579
922.00        66.32751
922.40        67.99702
922.79        68.92846
923.19        68.87691
923.58        67.88134
923.98        66.22285
924.37        65.19284
924.77        65.35204
925.16        62.70979
925.55        64.05756
925.95        63.96416
926.34        64.43271
926.74        65.21899
927.13        66.19329
927.52        66.94017
927.92         67.3222
928.31        67.50668
928.70        67.47196
929.10        67.25702
929.49        66.92448
929.89        66.45404
930.28        66.09156
930.67        66.23563
931.07        66.90092
931.46        68.00723
931.85        69.12508
932.24        69.60835
932.64        69.30447
933.03        68.30627
933.42        66.95346
933.82        65.98902
934.21        65.65878
934.60        65.80547
934.99        65.93219
935.39        65.63864
935.78        64.87206
936.17        63.16038
936.56        60.71975
936.96        62.05108
937.35        61.47464
937.74        63.35395
938.13         65.1634
938.53        66.24212
938.92         66.5292
939.31        66.28135
939.70        65.81084
940.09        65.54697
940.49        65.68266
940.88        66.08312
941.27        66.63659
941.66        67.22901
942.05        67.78735
942.44        68.31446
942.84        68.80246
943.23        69.24011
943.62        69.58981
944.01        69.88601
944.40        69.93926
944.79          69.461
945.18        68.43288
945.57        66.91157
945.97        65.46574
946.36        65.04997
946.75        65.92331
947.14        67.71819
947.53        69.58813
947.92        70.37301
948.31        69.87669
948.70        68.46045
949.09        66.69388
949.48        65.58705
949.87        65.47005
950.26        66.02429
950.65        66.89275
951.04        67.48412
951.43        67.58207
951.82        67.39426
952.21        67.02947
952.60        66.63307
952.99        66.28249
953.38        65.90776
953.77        65.54163
954.16        65.26735
954.55        65.10163
954.94        65.05389
955.33        65.09193
955.72        65.13304
956.11        65.15868
956.50        65.19488
956.89        65.25187
957.28        65.35359
957.66        65.51296
958.05        65.62952
958.44        65.72968
958.83        65.85477
959.22        65.99931
959.61        66.16507
960.00        66.21422
960.39        65.91381
960.78        65.23639
961.16         64.2392
961.55        63.25452
961.94        62.66683
962.33        62.55743
962.72        62.83728
963.11        63.20859
963.49        63.16646
963.88        62.52633
964.27        61.50517
964.66        60.47435
965.04        60.03825
965.43        60.34243
965.82        61.19455
966.21        62.28723
966.60        63.12095
966.98        63.53799
967.37          63.645
967.76        63.61891
968.15        63.73075
968.53        64.06776
968.92        64.44347
969.31        64.75154
969.69        64.83496
970.08        64.59592
970.47        64.14365
970.86        63.53321
971.24        62.80083
971.63        62.05502
972.02        61.32821
972.40        60.67813
972.79        60.22796
973.17        60.03036
973.56        59.95913
973.95        60.10558
974.33        60.59583
974.72        61.27631
975.11        62.09103
975.49         62.6595
975.88        62.39152
976.26        61.23711
976.65         59.4506
977.04        57.49308
977.42        56.17886
977.81        55.79589
978.19        56.09049
978.58         56.9224
978.96        58.02613
979.35        59.16235
979.74        60.50042
980.12         61.6953
980.51        61.89437
980.89        61.11535
981.28        59.54395
981.66        58.01815
982.05        57.73885
982.43        58.85572
982.82        60.97476
983.20        63.43958
983.59        64.73717
983.97        64.47614
984.35         63.0195
984.74        61.03649
985.12        59.48227
985.51        58.66924
985.89        58.27804
986.28        58.15053
986.66        58.06178
987.04        57.86799
987.43        57.79531
987.81        57.63652
988.20        57.03495
988.58        55.84941
988.96        53.91203
989.35        51.65282
989.73        50.47243
990.12        51.06106
990.50        53.06134
990.88        55.16221
991.27        55.82203
991.65         55.0443
992.03        53.22728
992.42        51.35654
992.80        51.29028
993.18        53.52219
993.56        57.09517
993.95         60.8191
994.33        63.52952
994.71        64.75814
995.10         64.9279
995.48        64.29698
995.86        63.13649
996.24        61.62593
996.63        59.66853
997.01        57.42717
997.39        55.68322
997.77        54.88847
998.15        54.92307
998.54        55.52684
998.92        56.33081
999.30         57.2382
999.68        58.51667
1000.06        59.59292
1000.45        58.86713
1000.83        56.15586
1001.21        52.38548
1001.59        49.27814
1001.97        48.15699
1002.35        48.83638
1002.73        50.95931
1003.12        53.69957
1003.50        55.00349
1003.88        53.89954
1004.26         51.1606
1004.64        47.85785
1005.02        45.44589
1005.40        44.35285
1005.78        44.07198
1006.16        44.82797
1006.54        46.89958
1006.92        49.67243
1007.30        52.58967
1007.69        54.71824
1008.07        55.28734
1008.45        54.09078
1008.83        51.01687
1009.21        45.49957
1009.59        38.31385
1009.97        31.62983
1010.35        26.58839
1010.73        25.14627
1011.11        28.09373
1011.49        34.29883
1011.86        43.08075
1012.24        50.73408
1012.62        53.63058
1013.00        51.63992
1013.38        46.08298
1013.76        39.25819
1014.14        35.33007
1014.52        35.58068
1014.90        38.82079
1015.28        43.23822
1015.66        45.72947
1016.04        45.23764
1016.41        42.65559
1016.79        38.86907
1017.17        36.13723
1017.55        35.61711
1017.93         36.2102
1018.31        37.39185
1018.69        38.89344
1019.06        40.49885
1019.44        42.25439
1019.82        43.48246
1020.20        42.37452
1020.58        38.44277
1020.95        32.45641
1021.33         25.4743
1021.71        17.73306
1022.09         8.07695
1022.46       -7.798945
1022.84       -29.07131
1023.22        -33.0687
1023.60       -10.05345
1023.97        14.88766
1024.35        28.42968
1024.73        32.08228
