SpectraSmart Spectrum 2.9.0.0
--------- Device Information -----------
Spectrum Name :  反射率_0
Saving Time :  2024/04/20 00:56:39
Spectro-Module Model Name : SE2030-DUVN
Spectro-Module Serial Number : OS361AC55029948
Wavelength Start : 200
Wavelength End : 1025
Wavelength Unit : Wavelength(nm)
Spectrum Unit : Reflectance(%)
-----------Spectrum Setting ------------
Integration Time : 30ms
Average : 10
Boxcar : 0
Background removal :  enabled
linearity correction :  enabled
SC :  disabled
Intensity correction :  disabled
DWT denoise :  enabled
savitzky-golay :  disabled
FFT :  disabled
Running average :  disabled
Kalman :  disabled
High pass :  disabled
---------------BEGIN--------------------
Wavelength(nm)             Reflectance(%)
200.29               0
200.75        65.30545
201.21        64.09916
201.67        64.82172
202.13        69.10206
202.58        77.63052
203.04        90.94569
203.50        104.6373
203.96        107.6042
204.42        99.29237
204.88         86.5811
205.34         75.7763
205.80        70.01104
206.26        68.31776
206.72        69.49706
207.18        73.36042
207.64        77.09496
208.10        77.61038
208.55        76.39077
209.01        74.25213
209.47        72.84226
209.93        72.28477
210.39        71.69665
210.85        71.29245
211.31        71.58662
211.77        72.53799
212.23        74.35369
212.69        76.12968
213.14        75.12074
213.60        70.97183
214.06        66.61353
214.52        63.71491
214.98         62.9645
215.44        63.92546
215.90        65.90606
216.36        69.10036
216.81        73.32957
217.27        77.68143
217.73        82.14481
218.19        84.92777
218.65         83.7209
219.11        78.32905
219.57        68.70718
220.02        57.73655
220.48        53.16457
220.94        57.50132
221.40        69.14078
221.86        82.39097
222.32        88.38509
222.77        85.34883
223.23        76.71207
223.69        67.17346
224.15        63.46615
224.61        66.04255
225.06         71.2879
225.52        76.67942
225.98        80.26633
226.44        81.94177
226.90        82.72982
227.36        82.66901
227.81        81.52374
228.27        79.84095
228.73        77.65836
229.19        75.80374
229.65        75.29216
230.10        75.97964
230.56        77.52436
231.02         79.1869
231.48        80.12687
231.93        80.18346
232.39        79.70846
232.85        78.98686
233.31        78.51355
233.77        78.42752
234.22        78.58749
234.68        78.76186
235.14        78.49841
235.60        77.73959
236.05        76.68239
236.51         75.7625
236.97        75.61012
237.43        76.43738
237.88        78.44741
238.34        81.06008
238.80        83.02648
239.26        83.26746
239.71        81.85731
240.17        79.45154
240.63        77.73709
241.08        77.23114
241.54        77.52415
242.00        77.82117
242.46        76.45385
242.91          72.575
243.37        65.36372
243.83        55.38725
244.28        49.12312
244.74        52.94163
245.20        65.50429
245.66        78.22666
246.11        83.97022
246.57        82.15147
247.03        73.50466
247.48        59.61588
247.94         52.7682
248.40        56.73606
248.85        63.67216
249.31         69.1534
249.77        71.96221
250.22        72.74002
250.68        72.36397
251.14        71.55373
251.59        71.54272
252.05        73.09463
252.51        76.15432
252.96         78.9003
253.42        78.50651
253.88        75.02907
254.33        70.09385
254.79        67.46545
255.25        70.57073
255.70        78.51819
256.16        88.75241
256.62        98.08266
257.07        103.0096
257.53        103.6665
257.99        101.6067
258.44        97.73168
258.90        94.20707
259.35        91.30762
259.81        89.48381
260.27        88.23797
260.72        87.19969
261.18        86.57781
261.63        85.81899
262.09        85.46986
262.55        85.56968
263.00        85.84941
263.46        86.39443
263.91        86.34164
264.37        85.18082
264.83        82.93394
265.28        79.90131
265.74        77.14229
266.19         75.5297
266.65        75.29601
267.11        75.88757
267.56        76.65045
268.02        76.70036
268.47        75.81125
268.93        74.31522
269.38        72.48103
269.84        70.96603
270.30        69.95335
270.75        69.24126
271.21        68.68495
271.66          68.028
272.12        67.19685
272.57        66.27944
273.03        65.35612
273.48        64.41781
273.94        63.55486
274.39         62.6906
274.85        61.89523
275.31        61.17858
275.76        60.48701
276.22        59.84151
276.67         59.1489
277.13        58.44841
277.58        57.66071
278.04        56.87299
278.49        55.97974
278.95        54.97477
279.40        53.81617
279.86        52.64568
280.31        51.50851
280.77        50.67835
281.22        50.09147
281.68        49.72284
282.13        49.40798
282.59        48.99628
283.04        48.41756
283.50        47.77564
283.95        47.08712
284.41        46.46295
284.86        45.89173
285.32        45.38709
285.77        44.93007
286.22        44.58999
286.68        44.37167
287.13        44.21325
287.59        44.08243
288.04        43.85695
288.50        43.54322
288.95        43.12889
289.41        42.67026
289.86         42.1639
290.32        41.68215
290.77        41.20856
291.22        40.80907
291.68          40.545
292.13        40.41882
292.59        40.44377
293.04        40.57853
293.50        40.78538
293.95         41.0356
294.40        41.33484
294.86         41.6929
295.31        42.13457
295.77        42.65805
296.22        43.23737
296.68        43.83504
297.13        44.37465
297.58        44.84452
298.04        45.27828
298.49         45.6983
298.95        46.18856
299.40        46.74864
299.85         47.3498
300.31        47.98729
300.76        48.63451
301.21        49.27838
301.67        49.95659
302.12        50.57881
302.58        51.09824
303.03        51.48375
303.48        51.78362
303.94        52.13469
304.39        52.69388
304.84        53.49233
305.30        54.45491
305.75        55.40041
306.20        56.09049
306.66        56.49397
307.11        56.66488
307.57        56.73985
308.02        56.82733
308.47        57.00129
308.93        57.21785
309.38        57.46424
309.83        57.79327
310.29        58.19263
310.74        58.65198
311.19         59.0551
311.65        59.20605
312.10        59.06568
312.55        58.69083
313.00        58.26804
313.46        58.08936
313.91        58.19731
314.36        58.52496
314.82        58.87619
315.27        58.95928
315.72        58.69108
316.18         58.1895
316.63        57.62152
317.08        57.26212
317.53        57.17357
317.99        57.25674
318.44        57.38731
318.89        57.34893
319.35         57.0799
319.80        56.65619
320.25        56.16996
320.70        55.76725
321.16        55.48533
321.61        55.28455
322.06        55.10012
322.51        54.83917
322.97        54.46519
323.42        54.02151
323.87        53.55173
324.32        53.13101
324.78        52.77154
325.23        52.47361
325.68        52.17313
326.13        51.77734
326.59        51.27095
327.04        50.71957
327.49        50.20629
327.94        49.87228
328.39        49.74428
328.85        49.74477
329.30        49.84134
329.75        49.89128
330.20        49.83789
330.66        49.69544
331.11        49.48234
331.56        49.16206
332.01        48.74673
332.46        48.24063
332.92        47.71848
333.37        47.34874
333.82        47.17127
334.27        47.17027
334.72        47.26132
335.17        47.28613
335.63        47.17636
336.08        46.97937
336.53        46.76165
336.98        46.66414
337.43        46.71397
337.88        46.86633
338.34        46.96919
338.79        46.83086
339.24        46.39829
339.69        45.74295
340.14        45.07545
340.59        44.74535
341.05        44.82305
341.50        45.20099
341.95        45.65439
342.40        45.83495
342.85        45.65841
343.30        45.24471
343.75        44.73124
344.20        44.34393
344.66        44.15473
345.11        44.06483
345.56        44.05303
346.01        44.08671
346.46        44.13071
346.91        44.21201
347.36        44.23812
347.81        44.05135
348.26        43.64843
348.72        43.10467
349.17        42.55536
349.62        42.30251
350.07        42.41156
350.52        42.76848
350.97        43.23199
351.42        43.59112
351.87        43.76625
352.32        43.80757
352.77        43.70023
353.22         43.4255
353.67        43.01192
354.13        42.49184
354.58         41.9375
355.03        41.51347
355.48        41.26733
355.93        41.17604
356.38        41.19098
356.83        41.21957
357.28        41.22134
357.73         41.2048
358.18        41.16975
358.63        41.12108
359.08        41.05246
359.53        40.94806
359.98        40.78028
360.43        40.51458
360.88        40.15524
361.33        39.72713
361.78        39.28913
362.23        38.93581
362.68        38.69341
363.13        38.53373
363.58        38.41316
364.03        38.25861
364.48        38.04005
364.93        37.77141
365.38        37.45428
365.83        37.09845
366.28        36.71859
366.73        36.31775
367.18        35.91742
367.63        35.55071
368.08        35.23001
368.53        34.95687
368.98        34.72451
369.43        34.51276
369.88        34.31412
370.33        34.13386
370.78        33.96984
371.23        33.82182
371.68        33.68932
372.13        33.56298
372.58        33.45214
373.03        33.37727
373.48        33.33332
373.93        33.30479
374.38        33.25388
374.83        33.12403
375.28        32.90193
375.72        32.59436
376.17        32.25583
376.62        31.93505
377.07        31.65962
377.52        31.42618
377.97        31.22863
378.42        31.05333
378.87        30.89484
379.32        30.75638
379.77        30.64613
380.22        30.57189
380.67        30.52775
381.11        30.50925
381.56        30.46978
382.01        30.35892
382.46        30.16699
382.91        29.90655
383.36        29.63481
383.81         29.4382
384.26         29.3346
384.71        29.30776
385.15        29.28533
385.60        29.16611
386.05        28.93066
386.50        28.61457
386.95         28.3135
387.40        28.17715
387.85         28.2287
388.29        28.40251
388.74        28.59589
389.19        28.63964
389.64        28.49816
390.09        28.21372
390.54        27.88193
390.98        27.64798
391.43         27.5721
391.88         27.5962
392.33        27.62494
392.78         27.5206
393.23        27.27331
393.67        26.92849
394.12        26.62666
394.57        26.47017
395.02        26.48091
395.47        26.61507
395.91        26.80681
396.36        26.91169
396.81        26.89535
397.26        26.78778
397.71        26.65401
398.15        26.57349
398.60        26.59545
399.05        26.67581
399.50        26.74553
399.95        26.70788
400.39        26.54565
400.84        26.28173
401.29        26.01001
401.74        25.90035
402.18        25.99878
402.63        26.24591
403.08        26.49631
403.53        26.51621
403.97        26.26326
404.42        25.82681
404.87        25.37216
405.32        25.17055
405.76        25.28036
406.21        25.60844
406.66        26.00083
407.11        26.21821
407.55         26.1978
408.00        26.01782
408.45        25.76656
408.90         25.5331
409.34        25.39628
409.79        25.44372
410.24        25.58868
410.68         25.5929
411.13        25.43912
411.58        25.25314
412.03        25.09291
412.47        25.01778
412.92        25.04626
413.37        25.14478
413.81        25.29224
414.26        25.47737
414.71        25.67325
415.15        25.88778
415.60        26.04062
416.05        26.03529
416.49        25.85599
416.94        25.53769
417.39        25.17964
417.83        24.94388
418.28        24.88053
418.73        24.94056
419.17          25.055
419.62        25.10282
420.07        25.05471
420.51        24.95195
420.96        24.83358
421.41        24.73356
421.85         24.6592
422.30        24.60821
422.74        24.58282
423.19        24.62837
423.64        24.73545
424.08        24.90904
424.53        25.07526
424.98        25.14081
425.42        25.08738
425.87        24.94241
426.31        24.77078
426.76        24.68267
427.21        24.69064
427.65        24.75284
428.10        24.84607
428.54        24.89784
428.99        24.89465
429.44        24.97405
429.88        25.05199
430.33        24.82841
430.77        24.40278
431.22        24.23883
431.66        24.36063
432.11        24.52107
432.56        24.66432
433.00        24.92745
433.45        25.11386
433.89        24.92722
434.34        24.55487
434.78        24.27837
435.23        24.04896
435.67        25.13001
436.12        24.50381
436.57        24.39034
437.01        24.02537
437.46        23.88861
437.90        24.01373
438.35        24.17386
438.79        24.28902
439.24        24.35463
439.68         24.3499
440.13         24.0876
440.57        23.73415
441.02        23.93887
441.46        24.48575
441.91         24.6063
442.35        23.71531
442.80        23.45221
443.24        23.57997
443.69        23.58164
444.13        23.43096
444.58        23.34818
445.02        23.34711
445.47        23.42681
445.91        23.53826
446.36        23.54764
446.80        23.43181
447.24        23.26298
447.69         23.0943
448.13        22.95874
448.58        22.88331
449.02        22.85391
449.47        22.85057
449.91        22.83133
450.36        22.79229
450.80        22.74257
451.25        22.70948
451.69        22.71094
452.13        22.75603
452.58         22.8269
453.02        22.90374
453.47        22.96486
453.91        23.00236
454.36        23.01932
454.80        23.01568
455.24        22.98918
455.69        22.95086
456.13         22.8785
456.58        22.80376
457.02        22.76174
457.46        22.75529
457.91        22.72536
458.35        22.66661
458.79        22.63186
459.24         22.6151
459.68        22.60962
460.13        22.66759
460.57        22.65648
461.01        22.54993
461.46        22.97388
461.90        23.03894
462.34        22.78178
462.79        22.96351
463.23        22.80504
463.68        22.67266
464.12        22.56592
464.56        22.67653
465.01        22.83953
465.45        22.98256
465.89        23.02462
466.34        22.95918
466.78        22.73935
467.22        22.47349
467.67        22.49502
468.11        22.76821
468.55        22.83055
468.99        22.68049
469.44        22.68712
469.88        22.85232
470.32        22.95044
470.77        22.96134
471.21        22.97036
471.65        22.97899
472.10        22.96031
472.54        22.92693
472.98        22.94603
473.42        23.02197
473.87        23.07512
474.31        23.09514
474.75        23.20784
475.20        23.36133
475.64        23.30489
476.08        23.11147
476.52        23.09688
476.97        23.27592
477.41        23.50581
477.85        23.70378
478.29        23.78956
478.74        23.74066
479.18         23.6019
479.62        23.38707
480.06        23.37113
480.50        23.52542
480.95        23.68254
481.39        23.78133
481.83        23.84361
482.27        23.86193
482.72        23.82817
483.16        23.76208
483.60        23.75827
484.04        23.83529
484.48        23.90403
484.93        24.03382
485.37        24.41058
485.81        24.55938
486.25        25.13718
486.69        25.78448
487.14        25.04553
487.58        24.52934
488.02        25.73796
488.46        25.13884
488.90        25.41521
489.34        25.27612
489.79        25.47626
490.23        25.90573
490.67         26.0339
491.11          25.915
491.55        25.89399
491.99         26.0021
492.43        26.06358
492.88        26.08823
493.32        26.16223
493.76        26.30254
494.20        26.50027
494.64        26.75371
495.08        27.05461
495.52        27.35103
495.96        27.58456
496.41        27.74308
496.85        27.78801
497.29        27.77689
497.73        27.93472
498.17        28.23914
498.61        28.38215
499.05        28.37475
499.49        28.52309
499.93        28.83937
500.37        29.07706
500.82        29.23604
501.26         29.5538
501.70        29.95543
502.14        30.04063
502.58        29.85585
503.02        29.81731
503.46        29.95686
503.90        30.05643
504.34        30.09288
504.78        30.12894
505.22        30.16215
505.66        30.18349
506.10        30.21289
506.54        30.27648
506.98        30.38037
507.42        30.52087
507.86        30.67508
508.30        30.80438
508.74        30.89702
509.18        30.95776
509.62        31.01326
510.06        31.10677
510.50        31.24702
510.94        31.42379
511.38        31.59037
511.82        31.67175
512.26        31.65327
512.70        31.55595
513.14        31.44972
513.58        31.44029
514.02        31.54237
514.46        31.72758
514.90        31.91912
515.34        31.92196
515.78        31.77046
516.22        31.55269
516.66        31.37677
517.10        31.09589
517.54        30.74126
517.98        31.27198
518.42        31.21809
518.86        31.49291
519.30        31.63531
519.74        31.79082
520.18        31.91688
520.62        31.92749
521.06        31.83132
521.50        31.63906
521.93        31.41126
522.37        31.25791
522.81        31.20826
523.25        31.23669
523.69         31.3039
524.13        31.34459
524.57        31.33635
525.01        31.29543
525.45        31.23826
525.89        31.18944
526.32        31.15477
526.76        31.12689
527.20        31.08359
527.64        30.99764
528.08        30.86578
528.52        30.69683
528.96        30.53192
529.40        30.43043
529.83        30.40077
530.27        30.43418
530.71        30.46867
531.15         30.4086
531.59        30.24096
532.03        30.00083
532.46        29.76316
532.90        29.66676
533.34        29.72673
533.78        29.88944
534.22        30.07909
534.66         30.1797
535.09        30.15551
535.53        30.05745
535.97        29.91029
536.41        29.74952
536.85        29.59921
537.28        29.46355
537.72        29.38407
538.16         29.3377
538.60        29.47041
539.04        29.63801
539.47        29.81252
539.91        29.96235
540.35        30.08642
540.79        29.94131
541.22        29.95752
541.66        29.99001
542.10        30.19579
542.54        30.06865
542.97        30.37955
543.41        30.52942
543.85        30.72211
544.29        30.88794
544.72        31.00952
545.16        31.14834
545.60        31.29724
546.04        31.34622
546.47        31.36229
546.91        31.64893
547.35        32.12296
547.79        32.38757
548.22        32.43235
548.66        32.45855
549.10        32.53564
549.53        32.86065
549.97        33.40623
550.41        33.51859
550.84        33.79277
551.28        33.91352
551.72        34.10556
552.15        34.31319
552.59        34.55004
553.03        34.81426
553.46        35.05273
553.90        35.22526
554.34        35.31871
554.77        35.34821
555.21        35.36673
555.65        35.44126
556.08         35.5815
556.52        35.76282
556.96        35.94363
557.39        36.10309
557.83        36.21828
558.27        36.21808
558.70        36.14753
559.14        36.15221
559.57        36.23654
560.01        36.37401
560.45        36.52221
560.88        36.55648
561.32        36.53387
561.75        36.60838
562.19        36.89008
562.63        36.93202
563.06        36.81068
563.50        36.85259
563.93        37.04201
564.37        37.24471
564.80        37.28138
565.24        37.41437
565.68        37.57454
566.11        37.73062
566.55        37.90319
566.98        38.02823
567.42        38.07264
567.85        38.46971
568.29        38.22767
568.72        38.52721
569.16        39.00201
569.60        39.30592
570.03        39.38551
570.47        39.53919
570.90        39.59826
571.34        39.90902
571.77        39.67391
572.21        40.10608
572.64        40.21007
573.08        40.37359
573.51        40.58826
573.95        41.24122
574.38        41.54834
574.82        41.62931
575.25         41.8775
575.69        41.54929
576.12        41.34061
576.56        41.22753
576.99        41.38185
577.42        41.69402
577.86        41.65568
578.29        41.72365
578.73        42.26131
579.16        41.83507
579.60        41.67347
580.03          41.349
580.47        41.28461
580.90        41.19464
581.33        40.93187
581.77        41.09625
582.20        41.71869
582.64        41.16408
583.07        40.68803
583.51        40.74957
583.94        40.15956
584.37        40.08532
584.81         39.6997
585.24        39.72243
585.68        39.93257
586.11           39.68
586.54        39.43788
586.98        39.30324
587.41        39.41919
587.85        39.46456
588.28        39.39216
588.71        39.16337
589.15        38.84507
589.58        38.73494
590.01        38.71444
590.45        39.09066
590.88        39.01475
591.31        38.97943
591.75        38.50999
592.18        38.72629
592.61        38.70471
593.05        38.96501
593.48         38.9596
593.91        39.75562
594.35        39.07684
594.78        39.13503
595.21        39.62634
595.65        40.10878
596.08        40.05766
596.51        40.08423
596.94          40.133
597.38        40.17815
597.81        40.31602
598.24        40.44965
598.68        41.44039
599.11        41.17634
599.54        42.44589
599.97        42.23122
600.41        42.28218
600.84        42.90165
601.27        43.46939
601.70        43.90622
602.14         44.0618
602.57        44.39114
603.00        44.91908
603.43        45.66941
603.87        45.98289
604.30        46.44282
604.73        46.93123
605.16        46.97895
605.60        47.59221
606.03        48.07372
606.46        48.54479
606.89        49.27903
607.32        49.51141
607.76        49.71822
608.19        50.05617
608.62        50.68559
609.05        50.65484
609.48        50.95747
609.92        51.35128
610.35        51.30159
610.78        52.32619
611.21        53.02473
611.64        52.66438
612.07        53.14867
612.50        53.34898
612.94        53.32359
613.37        53.85677
613.80        54.12517
614.23        54.39893
614.66        54.91645
615.09        55.11903
615.52        55.49751
615.96        55.79824
616.39        56.03952
616.82        56.29311
617.25        56.07238
617.68        56.29681
618.11        56.81468
618.54        57.36587
618.97        57.30448
619.40        56.60293
619.84         56.7503
620.27         56.4699
620.70        56.95255
621.13        57.73489
621.56        57.87177
621.99        57.57547
622.42         57.6888
622.85        58.24231
623.28        58.48251
623.71         58.4054
624.14        58.32141
624.57        58.33305
625.00        58.19161
625.43        58.32075
625.86        57.73889
626.29        57.82973
626.72        57.65324
627.15        57.60267
627.58        57.56955
628.01        57.49165
628.44        57.48536
628.87        57.24276
629.30         56.8054
629.73        56.56229
630.16        56.17206
630.59        55.97128
631.02        55.71154
631.45        55.51451
631.88        55.21767
632.31         54.8281
632.74        54.36807
633.17        53.86553
633.60        53.36755
634.03        52.89266
634.46         52.4393
634.89        51.99416
635.32        51.52415
635.75        51.03461
636.18        50.56521
636.61        50.13392
637.04        49.74276
637.47        49.39123
637.89        49.08229
638.32        48.78711
638.75        48.48515
639.18        48.17007
639.61        47.85288
640.04        47.53114
640.47        47.19775
640.90        46.85951
641.33         46.5262
641.76        46.22355
642.18        45.99815
642.61         45.8521
643.04        45.77139
643.47        45.74292
643.90         45.7424
644.33        45.75762
644.76        45.79763
645.18        45.83995
645.61        45.85113
646.04        45.83485
646.47         45.7998
646.90        45.80547
647.33        45.97047
647.75        46.31932
648.18        46.75549
648.61        47.21264
649.04        47.72661
649.47        48.21293
649.89        48.36668
650.32        48.31621
650.75        48.66068
651.18        49.42447
651.61        50.03136
652.03        50.47421
652.46         51.3422
652.89        52.48677
653.32        52.89938
653.74         52.7184
654.17        53.28284
654.60        53.83808
655.03         55.1072
655.46        54.28442
655.88        56.53801
656.31        57.80478
656.74        65.44902
657.16        61.83966
657.59        56.76138
658.02        57.21097
658.45        58.43187
658.87        59.63244
659.30        59.97786
659.73        60.40903
660.15        60.86461
660.58        60.84909
661.01        60.78043
661.44        60.56467
661.86        60.79409
662.29        61.41082
662.72         62.0942
663.14        62.65054
663.57        62.66781
664.00        62.33171
664.42        62.32722
664.85        62.71739
665.27        63.35244
665.70        63.56554
666.13        63.91901
666.55        64.21612
666.98        64.43152
667.41        64.57736
667.83          64.683
668.26        64.75752
668.69        64.80228
669.11         64.8343
669.54        64.86914
669.96        64.92326
670.39         65.0238
670.82        65.17625
671.24         65.3336
671.67        65.52156
672.09        65.80473
672.52        66.13155
672.94        66.45052
673.37        66.65424
673.80        66.47218
674.22        66.04987
674.65        65.89867
675.07        66.12821
675.50        66.42679
675.92        66.70406
676.35        66.85287
676.77        66.82951
677.20        66.71191
677.62        66.59391
678.05        66.41286
678.47        66.42293
678.90        66.57827
679.32        66.83123
679.75        66.72727
680.17        67.08154
680.60        67.20522
681.02        67.34187
681.45        67.46613
681.87        67.59715
682.30         67.6582
682.72         67.6375
683.15        67.81415
683.57        67.77855
684.00        67.78534
684.42        67.82921
684.85        67.97511
685.27        68.07009
685.70        68.25163
686.12        68.42313
686.54        68.52694
686.97        68.54404
687.39        68.50366
687.82        68.43282
688.24        68.40115
688.66        68.42239
689.09        68.47634
689.51        68.56022
689.94         68.6422
690.36        68.73425
690.78        68.80476
691.21        68.83717
691.63        68.97198
692.06        69.24216
692.48        69.08298
692.90        69.15986
693.33        69.58371
693.75         69.3645
694.17        69.44552
694.60        69.46635
695.02        69.41231
695.44        69.26069
695.87        69.18636
696.29         69.1838
696.71        68.95438
697.14        68.69756
697.56        68.98354
697.98        69.58782
698.41        70.41458
698.83        70.02924
699.25        69.74482
699.68        69.73006
700.10         69.6944
700.52        69.71123
700.94         69.8664
701.37        70.06394
701.79        70.22093
702.21        70.27818
702.64        70.26261
703.06        70.21783
703.48        70.25952
703.90        70.34798
704.33        70.50303
704.75        70.64566
705.17        70.64783
705.59        70.48938
706.01        70.21756
706.44        69.96777
706.86        69.93885
707.28        70.15909
707.70        70.58748
708.12        71.07638
708.55        71.30267
708.97        71.24746
709.39        71.18631
709.81        71.15403
710.23        71.03513
710.66        70.86366
711.08        70.74131
711.50        70.68702
711.92         70.6917
712.34        70.75932
712.76         70.9047
713.19        71.07004
713.61        71.21291
714.03        71.29013
714.45        71.30398
714.87        71.29695
715.29        71.37756
715.71        71.56673
716.13        71.68884
716.56        71.94465
716.98        72.08495
717.40        72.13107
717.82        72.15712
718.24         72.2071
718.66        72.01226
719.08        72.10978
719.50        72.08265
719.92        72.05479
720.34        72.00349
720.76        71.92667
721.19        71.83228
721.61        71.75537
722.03        71.72659
722.45         71.7746
722.87        71.87183
723.29        72.00326
723.71        72.13363
724.13        72.25145
724.55        72.36478
724.97        72.47746
725.39        72.59863
725.81        72.72679
726.23        72.84629
726.65        72.95806
727.07        73.07114
727.49        73.18159
727.91        73.28457
728.33        73.35664
728.75        73.35856
729.17        73.29349
729.59        73.18449
730.01        73.05696
730.43        73.00334
730.85        73.05653
731.27        73.05845
731.69        73.00234
732.10        73.38851
732.52        73.65714
732.94        73.63038
733.36        73.54922
733.78        73.46105
734.20        73.51481
734.62        73.49147
735.04        73.38191
735.46        73.36681
735.88        73.46926
736.30        73.16674
736.72        73.32879
737.13        73.46297
737.55        73.72106
737.97        74.05985
738.39        74.35568
738.81        74.18086
739.23        73.68565
739.65        73.68066
740.06        74.06284
740.48        74.20834
740.90        74.12006
741.32        73.47836
741.74        73.77982
742.16        73.75291
742.57        73.84503
742.99        74.02602
743.41        74.24962
743.83        74.38379
744.25        74.38342
744.67         74.2857
745.08        74.14616
745.50         74.0279
745.92        73.97534
746.34        73.96575
746.75        73.97886
747.17        73.98789
747.59         73.9851
748.01        73.98845
748.42        74.02245
748.84         74.0948
749.26        74.21601
749.68         74.3385
750.09         74.4486
750.51        74.58007
750.93        74.69572
751.35        74.69117
751.76         74.5778
752.18        74.47513
752.60        74.38633
753.01        74.37768
753.43        74.27171
753.85        74.30521
754.27        74.44222
754.68        74.73002
755.10        75.11572
755.52        75.08112
755.93        75.29617
756.35        75.23402
756.77        75.14015
757.18        75.13868
757.60        75.28976
758.02        75.35142
758.43        75.22324
758.85        75.60404
759.26        75.54044
759.68        75.11081
760.10        75.19689
760.51        74.88478
760.93        74.72866
761.34         73.8613
761.76        74.50423
762.18        74.45242
762.59        74.36647
763.01        74.37288
763.42        74.58934
763.84        74.95265
764.26        75.39665
764.67        75.68825
765.09        75.84823
765.50        75.97737
765.92        76.10886
766.33        76.24901
766.75        76.25887
767.16        75.91969
767.58        75.29263
768.00        74.75189
768.41         74.5255
768.83        74.78513
769.24        75.40627
769.66        75.97418
770.07        76.30072
770.49        76.25846
770.90        75.98507
771.32        76.08573
771.73        76.50209
772.15        76.51443
772.56        76.13876
772.97        75.83414
773.39        75.61607
773.80        75.43528
774.22        75.32133
774.63        74.81707
775.05        74.91327
775.46         75.0058
775.88        75.34897
776.29        75.91746
776.70        76.46738
777.12        76.60014
777.53        76.24794
777.95        75.51698
778.36        74.72382
778.77        74.40417
779.19         74.6805
779.60        75.43275
780.02        76.31092
780.43        76.89995
780.84        77.06094
781.26         76.6014
781.67        75.88152
782.09        76.25978
782.50        77.45535
782.91        77.50468
783.33        76.48143
783.74        76.16324
784.15        76.60208
784.57         76.8033
784.98        76.66383
785.39        76.41713
785.81        76.15035
786.22        75.75262
786.63        75.38441
787.04        75.27544
787.46         75.4688
787.87        75.85426
788.28        76.28374
788.70        76.76389
789.11        76.79008
789.52        76.76241
789.93        76.65393
790.35        76.65704
790.76        76.78769
791.17        76.91807
791.58        76.98677
792.00        76.84969
792.41        76.50157
792.82        76.28391
793.23        76.06122
793.65        75.56091
794.06        75.10104
794.47        75.48906
794.88        76.35384
795.29        77.76961
795.71        77.64648
796.12        76.59937
796.53         76.9323
796.94         76.3617
797.35        75.90372
797.76        75.89693
798.18        76.28587
798.59        76.51554
799.00         76.4902
799.41        76.56236
799.82        76.73569
800.23        76.86565
800.64        76.94043
801.06        76.95013
801.47        76.95116
801.88        76.97552
802.29        77.02749
802.70        77.08561
803.11        77.10213
803.52        77.00285
803.93        76.79913
804.34        76.54016
804.75        76.29282
805.17        76.23307
805.58        76.42618
805.99        76.54768
806.40        76.61488
806.81        77.29862
807.22         78.2562
807.63        78.03259
808.04        76.88302
808.45        76.43236
808.86        76.90208
809.27        77.67132
809.68        78.47649
810.09        78.96109
810.50        78.97366
810.91        78.73706
811.32        78.37379
811.73        77.94598
812.14        77.51991
812.55        77.17181
812.96        76.91348
813.37        76.56635
813.78        76.23748
814.19        76.38058
814.60        76.85907
815.01        77.08569
815.42        76.99695
815.83        76.85005
816.24        76.73943
816.65        76.72473
817.05        76.85795
817.46         77.0838
817.87        77.30684
818.28        77.33189
818.69        77.13562
819.10         76.7805
819.51        76.45314
819.92        76.49945
820.33        76.99312
820.74        77.74739
821.14        78.55491
821.55          79.173
821.96        79.45557
822.37        79.24813
822.78        78.68546
823.19        78.22985
823.60        77.98995
824.00         77.7879
824.41        77.59235
824.82        77.53745
825.23        77.62247
825.64        77.83273
826.04        78.11653
826.45        78.32886
826.86        78.43855
827.27        78.46658
827.68        78.42101
828.08        78.35591
828.49        78.23693
828.90        78.08134
829.31        77.92857
829.72        77.85227
830.12        77.88972
830.53        77.99105
830.94        78.12103
831.35        78.18674
831.75        78.18626
832.16        78.09814
832.57        77.97606
832.97        77.89204
833.38        77.84603
833.79        77.81552
834.20        77.78233
834.60           77.71
835.01        77.61008
835.42        77.51659
835.82        77.42747
836.23        77.27754
836.64        77.09063
837.04        76.87313
837.45        76.72521
837.86        76.85678
838.26        77.30843
838.67        77.98495
839.08        78.66537
839.48        78.92847
839.89        78.67001
840.29        78.04717
840.70        77.38593
841.11        77.09164
841.51        77.28027
841.92        77.77153
842.33        78.45442
842.73        79.13581
843.14        79.61266
843.54        79.99933
843.95        80.17024
844.35        80.01104
844.76        79.53949
845.17        78.81449
845.57        78.04091
845.98        77.56268
846.38        77.46532
846.79        77.67356
847.19        78.10916
847.60        78.46906
848.00        78.70515
848.41        78.81457
848.81         78.9191
849.22        79.12521
849.62        79.49675
850.03        79.93555
850.43        80.33781
850.84        80.42205
851.24         80.1847
851.65        79.65193
852.05        79.09088
852.46        78.81731
852.86        78.91654
853.27        79.30234
853.67        79.71997
854.07        79.92407
854.48        79.81837
854.88        79.52014
855.29        79.08859
855.69        78.78671
856.10        78.61003
856.50        78.57713
856.90        78.61078
857.31         78.6172
857.71        78.64281
858.12        78.66656
858.52        78.73116
858.92         78.7796
859.33        78.78597
859.73        78.78659
860.13        78.80324
860.54        78.89965
860.94        79.14079
861.34        79.44544
861.75        79.68041
862.15        79.73911
862.55         79.5537
862.96        79.20061
863.36        78.76829
863.76        78.37098
864.17        78.07076
864.57        77.87209
864.97          77.827
865.38        77.99081
865.78        78.40046
866.18        78.95856
866.58        79.51252
866.99        79.78898
867.39        79.74506
867.79        79.42054
868.19        78.81779
868.60        77.93824
869.00        76.80952
869.40        75.48917
869.80        74.31139
870.21        73.82172
870.61        74.19493
871.01        75.23854
871.41        76.46999
871.81        77.10059
872.22        76.95871
872.62         76.2865
873.02        75.41849
873.42         75.0823
873.82        75.28921
874.22        75.40781
874.63        75.50606
875.03        75.81796
875.43        76.27905
875.83        77.60012
876.23        77.49723
876.63        77.06396
877.03        75.91462
877.44        74.10008
877.84        124.0663
878.24        74.06916
878.64         74.9223
879.04        77.81852
879.44        74.87868
879.84        73.10011
880.24        76.49479
880.64        76.52045
881.04        74.00675
881.44         72.4727
881.84        72.47995
882.24        73.46211
882.65        74.81908
883.05        75.44306
883.45        74.97115
883.85        74.00264
884.25        73.08941
884.65        72.82944
885.05        73.37555
885.45        74.49688
885.85        75.74173
886.25        76.37341
886.65        76.18462
887.05         75.4288
887.45        74.49861
887.85        73.96964
888.25        74.00874
888.65        74.45727
889.04        75.11141
889.44        75.53905
889.84        75.63648
890.24        75.51866
890.64        75.36778
891.04        75.45632
891.44        75.80745
891.84        76.26524
892.24        76.61447
892.64         76.5129
893.04        75.91289
893.44         75.0368
893.83        74.01474
894.23        73.04691
894.63        72.20751
895.03        71.44421
895.43         70.9616
895.83         71.0975
896.23        71.86737
896.63        73.16019
897.02        74.53863
897.42        75.18613
897.82        74.91225
898.22        73.95021
898.62        72.73834
899.01        71.96536
899.41        71.85941
899.81        72.20012
900.21        72.80433
900.61        73.39584
901.00        73.85885
901.40        74.25037
901.80         74.5945
902.20        74.89879
902.59        75.16332
902.99        75.34891
903.39        75.35443
903.79        75.03928
904.18        74.40987
904.58        73.58976
904.98        72.85423
905.38        72.61695
905.77        72.94149
906.17         73.7108
906.57        74.60684
906.96        75.14811
907.36        75.16538
907.76        74.78059
908.15         74.2616
908.55        73.99136
908.95        74.09117
909.34        74.47015
909.74        74.84016
910.14        74.71946
910.53        74.00175
910.93        72.91581
911.33        71.90364
911.72        71.65659
912.12        72.27225
912.52        73.46165
912.91        74.74539
913.31        75.29875
913.70        74.97897
914.10        74.01421
914.49        72.71342
914.89        71.77562
915.29        71.47616
915.68        71.60869
916.08        72.05238
916.47        72.61828
916.87        73.18094
917.26        73.77659
917.66        74.27969
918.05        74.51787
918.45        74.43318
918.84        74.11773
919.24        73.57654
919.64        72.85235
920.03        72.03654
920.42        71.17419
920.82        70.60384
921.21        70.78127
921.61        71.70109
922.00        73.24609
922.40        74.85103
922.79        75.82226
923.19        75.93472
923.58        75.19791
923.98        73.89552
924.37        73.14185
924.77        73.39993
925.16        71.58722
925.55        72.77985
925.95        72.64201
926.34        72.68658
926.74         72.8128
927.13        73.10741
927.52        73.50534
927.92        73.93876
928.31        74.45773
928.70        74.89751
929.10        75.01901
929.49        74.78178
929.89        74.25391
930.28        73.69718
930.67        73.53545
931.07        73.83237
931.46        74.49549
931.85        75.23532
932.24        75.63136
932.64        75.56322
933.03        75.08754
933.42        74.36123
933.82         73.7442
934.21        73.36258
934.60        73.18426
934.99        72.92068
935.39        72.38225
935.78        71.56358
936.17        70.04031
936.56        68.02368
936.96        69.24664
937.35        69.08378
937.74        71.00356
938.13        72.84052
938.53        73.91772
938.92        74.18034
939.31        73.87222
939.70        73.27699
940.09        72.82919
940.49        72.73853
940.88        72.88759
941.27        73.22803
941.66        73.72332
942.05        74.31469
942.44        75.00244
942.84        75.69164
943.23        76.22626
943.62          76.529
944.01        76.65446
944.40        76.54679
944.79        76.14404
945.18        75.46948
945.57        74.51517
945.97        73.62709
946.36        73.36442
946.75        73.88668
947.14        75.00081
947.53        76.13408
947.92        76.48563
948.31        75.93008
948.70         74.7059
949.09        73.28489
949.48        72.50502
949.87        72.61602
950.26        73.35891
950.65        74.33535
951.04        74.88226
951.43          74.787
951.82        74.26137
952.21        73.54661
952.60        73.01461
952.99        72.79158
953.38         72.7542
953.77        72.79318
954.16        72.75652
954.55        72.60229
954.94        72.40399
955.33        72.25575
955.72        72.28201
956.11        72.52549
956.50        72.95927
956.89        73.45766
957.28        73.79591
957.66        73.89684
958.05        73.72451
958.44        73.48493
958.83         73.4622
959.22        73.68924
959.61        74.11062
960.00        74.39399
960.39        73.96185
960.78        72.73495
961.16        70.92486
961.55        69.16731
961.94        68.28662
962.33        68.45822
962.72        69.44889
963.11         70.7333
963.49        71.40943
963.88        71.11913
964.27        70.16299
964.66        68.99098
965.04        68.35038
965.43        68.45329
965.82         69.0798
966.21        69.90736
966.60        70.42627
966.98        70.50182
967.37        70.27616
967.76        70.04191
968.15        70.22868
968.53        70.93087
968.92        71.88972
969.31        72.79786
969.69        73.16968
970.08        72.81815
970.47        71.94582
970.86          70.775
971.24        69.62856
971.63        68.71085
972.02        67.98845
972.40        67.46443
972.79        67.14821
973.17        67.05971
973.56        67.11932
973.95        67.43806
974.33        68.14977
974.72        69.09552
975.11        70.19118
975.49        71.04194
975.88        71.06389
976.26        70.19885
976.65        68.68019
977.04        66.96719
977.42         65.8701
977.81        65.66132
978.19        66.10326
978.58        66.99902
978.96        68.01706
979.35        68.89472
979.74        69.81041
980.12        70.55185
980.51         70.4927
980.89        69.70277
981.28        68.30639
981.66        66.93603
982.05        66.51432
982.43        67.15353
982.82        68.57791
983.20        70.31496
983.59        71.19259
983.97        70.94994
984.35         69.8199
984.74        68.38237
985.12        67.46655
985.51        67.30522
985.89        67.64781
986.28         68.1469
986.66        68.23687
987.04        67.68784
987.43        66.87937
987.81        65.95065
988.20        65.00116
988.58        63.98463
988.96        62.69434
989.35        61.42247
989.73        61.10417
990.12        62.05767
990.50        64.05091
990.88        65.97211
991.27        66.57935
991.65        65.91659
992.03        64.26646
992.42         62.5473
992.80        62.56155
993.18        64.73271
993.56        68.15689
993.95        71.61021
994.33        73.81682
994.71        74.33872
995.10        73.67279
995.48        72.19188
995.86        70.33162
996.24         68.3205
996.63        66.01091
997.01        63.64016
997.39        62.06834
997.77        61.72561
998.15        62.42028
998.54         63.7161
998.92        65.09268
999.30        66.48996
999.68        68.20063
1000.06        69.68699
1000.45        69.35562
1000.83        66.95837
1001.21        63.34906
1001.59        60.21288
1001.97        58.83996
1002.35        59.07056
1002.73        60.55428
1003.12        62.60312
1003.50        63.63962
1003.88        62.84737
1004.26        60.81913
1004.64        58.34431
1005.02        56.47992
1005.40        55.55096
1005.78        55.20916
1006.16        55.59758
1006.54        56.91814
1006.92        58.77413
1007.30        60.76458
1007.69        62.33418
1008.07        63.13694
1008.45        63.09536
1008.83         62.2587
1009.21        60.18285
1009.59        56.53945
1009.97        51.89917
1010.35        47.02743
1010.73        44.01321
1011.11        44.57369
1011.49        48.19653
1011.86         54.1526
1012.24        59.61831
1012.62        61.95714
1013.00        60.98556
1013.38        57.72174
1013.76        53.52205
1014.14        50.82306
1014.52        50.41832
1014.90        51.51852
1015.28        53.32523
1015.66        54.49769
1016.04        54.51454
1016.41        53.88627
1016.79        52.57357
1017.17        50.72404
1017.55        48.81179
1017.93        46.86999
1018.31        45.43446
1018.69        45.03336
1019.06         45.4922
1019.44        46.48933
1019.82        47.39394
1020.20        46.66019
1020.58        43.82309
1020.95        39.58351
1021.33         34.6813
1021.71        29.09948
1022.09        22.03116
1022.46        10.34319
1022.84       -4.728935
1023.22       -5.145944
1023.60        14.72124
1023.97        34.43998
1024.35        45.15203
1024.73          49.065
