SpectraSmart Spectrum 2.9.0.0
--------- Device Information -----------
Spectrum Name :  反射率_0
Saving Time :  2024/04/20 00:25:32
Spectro-Module Model Name : SE2030-DUVN
Spectro-Module Serial Number : OS361AC55029948
Wavelength Start : 200
Wavelength End : 1025
Wavelength Unit : Wavelength(nm)
Spectrum Unit : Reflectance(%)
-----------Spectrum Setting ------------
Integration Time : 30ms
Average : 10
Boxcar : 0
Background removal :  enabled
linearity correction :  enabled
SC :  disabled
Intensity correction :  disabled
DWT denoise :  enabled
savitzky-golay :  disabled
FFT :  disabled
Running average :  disabled
Kalman :  disabled
High pass :  disabled
---------------BEGIN--------------------
Wavelength(nm)             Reflectance(%)
200.29               0
200.75        54.04693
201.21        55.10211
201.67        58.17105
202.13        62.97908
202.58        69.09541
203.04        76.66601
203.50        83.38013
203.96        83.92097
204.42        78.57603
204.88        71.08454
205.34        64.44537
205.80        59.73401
206.26        56.06253
206.72        52.16104
207.18        47.98193
207.64        45.85781
208.10        48.10181
208.55        54.18547
209.01        59.78502
209.47        62.00162
209.93        61.18647
210.39        58.47509
210.85        55.42414
211.31         53.7618
211.77        53.71441
212.23        54.92355
212.69        56.91056
213.14        57.89674
213.60        56.79826
214.06        55.31111
214.52        54.37918
214.98        54.56651
215.44        55.72574
215.90        57.34348
216.36         59.4661
216.81        61.85572
217.27        63.87969
217.73        65.65253
218.19        66.00991
218.65        63.28234
219.11        57.25059
219.57        47.89588
220.02        37.30314
220.48        31.55515
220.94        32.80093
221.40        40.21392
221.86        49.68832
222.32        54.69145
222.77        53.71463
223.23        48.82761
223.69        43.69614
224.15        43.48038
224.61        47.97188
225.06        54.22474
225.52        59.38174
225.98        61.12785
226.44        59.55337
226.90        55.79708
227.36         51.2179
227.81        48.19894
228.27        47.81799
228.73        49.02171
229.19        50.79588
229.65         51.9603
230.10        52.27738
230.56         52.2475
231.02        52.12029
231.48        52.18383
231.93        52.44015
232.39        52.73402
232.85        52.91476
233.31        52.82828
233.77        52.45551
234.22        51.90773
234.68        51.28551
235.14        50.64822
235.60        50.09762
236.05        49.65755
236.51        49.50064
236.97        49.88651
237.43         50.9518
237.88         52.9618
238.34        55.67678
238.80        58.30157
239.26         59.9527
239.71         60.3881
240.17        59.92008
240.63        59.86395
241.08        60.66634
241.54        61.99273
242.00        63.05461
242.46        62.26389
242.91        58.75519
243.37        51.65298
243.83        41.46376
244.28         34.6452
244.74        37.82919
245.20        50.14378
245.66        62.36715
246.11        66.15584
246.57        60.56019
247.03        45.86538
247.48        25.93856
247.94        20.99213
248.40        33.20181
248.85        48.15027
249.31        58.77452
249.77        63.57444
250.22          64.134
250.68        62.18097
251.14        58.62101
251.59        55.39539
252.05        54.03915
252.51        54.18328
252.96          55.177
253.42        56.02207
253.88        56.39225
254.33         56.7508
254.79        58.24034
255.25        61.67574
255.70        66.59196
256.16        71.95852
256.62        76.38705
257.07         78.4024
257.53        78.17603
257.99        76.31193
258.44        73.31602
258.90        70.71196
259.35        68.55556
259.81        67.23002
260.27        66.11111
260.72        64.64567
261.18        63.06562
261.63        61.10207
262.09        59.57171
262.55        59.05128
263.00        59.38558
263.46        60.35764
263.91        60.96242
264.37         60.3487
264.83        58.53029
265.28        55.89867
265.74        53.51626
266.19        52.38034
266.65        52.66693
267.11        53.79817
267.56        55.05343
268.02        55.42088
268.47         54.6913
268.93        53.22104
269.38        51.38683
269.84        50.01697
270.30        49.32702
270.75        49.07238
271.21        48.95674
271.66        48.52639
272.12        47.66689
272.57        46.54275
273.03        45.40094
273.48        44.50744
273.94        43.98755
274.39        43.69706
274.85        43.48695
275.31        43.09843
275.76        42.44777
276.22          41.632
276.67        40.78107
277.13         40.2146
277.58         39.9054
278.04        39.79358
278.49        39.57461
278.95        38.91177
279.40        37.74692
279.86        36.33399
280.31        34.92562
280.77        34.03062
281.22        33.65441
281.68        33.65498
282.13        33.78216
282.59        33.72001
283.04        33.37111
283.50        32.88508
283.95        32.32135
284.41        31.81436
284.86        31.38192
285.32        31.00029
285.77        30.68448
286.22        30.54079
286.68          30.564
287.13        30.69798
287.59        30.83728
288.04        30.78469
288.50        30.53126
288.95        30.10276
289.41        29.63292
289.86        29.25026
290.32         29.0461
290.77        28.97035
291.22        28.99109
291.68        29.02625
292.13        29.05371
292.59        29.11109
293.04        29.25299
293.50        29.58056
293.95        30.08669
294.40        30.71834
294.86        31.36242
295.31        31.85681
295.77        32.16786
296.22        32.34531
296.68        32.48063
297.13        32.70366
297.58        33.06451
298.04        33.52917
298.49        34.05146
298.95         34.5982
299.40        35.12844
299.85         35.6492
300.31        36.14557
300.76        36.58548
301.21        36.96255
301.67        37.30608
302.12        37.58033
302.58        37.80269
303.03         37.9599
303.48        38.07244
303.94        38.22601
304.39         38.5068
304.84        38.93076
305.30        39.45638
305.75        39.94947
306.20        40.22839
306.66        40.28107
307.11        40.15581
307.57        39.98036
308.02        39.87226
308.47        39.89043
308.93        39.98196
309.38        40.11771
309.83        40.30572
310.29        40.51933
310.74        40.76117
311.19        40.93071
311.65        40.86313
312.10        40.54073
312.55        40.02157
313.00        39.47848
313.46        39.18036
313.91        39.16872
314.36        39.37741
314.82        39.65491
315.27        39.77375
315.72        39.65366
316.18        39.37424
316.63        39.01858
317.08        38.72479
317.53        38.53041
317.99         38.3813
318.44        38.23825
318.89        38.03274
319.35        37.74991
319.80        37.42541
320.25        37.09554
320.70        36.81191
321.16        36.58266
321.61         36.3906
322.06        36.20657
322.51        35.98945
322.97        35.71902
323.42         35.4161
323.87        35.08264
324.32        34.72909
324.78        34.35878
325.23        33.98059
325.68        33.60344
326.13        33.24909
326.59        32.92848
327.04         32.6683
327.49        32.45797
327.94        32.27915
328.39        32.12421
328.85        31.97209
329.30        31.87857
329.75        31.88984
330.20        32.00018
330.66        32.16037
331.11        32.29664
331.56        32.24005
332.01        31.95311
332.46        31.47784
332.92        30.91384
333.37        30.44883
333.82         30.1511
334.27        29.99776
334.72        29.92853
335.17        29.83016
335.63        29.65895
336.08        29.45776
336.53        29.29445
336.98        29.28819
337.43        29.45341
337.88        29.74251
338.34        29.99387
338.79        29.99859
339.24        29.69532
339.69        29.14713
340.14        28.55707
340.59        28.26806
341.05         28.3494
341.50         28.7021
341.95        29.11392
342.40         29.2525
342.85        29.04411
343.30        28.61364
343.75        28.10554
344.20        27.75388
344.66        27.62673
345.11         27.6131
345.56        27.68601
346.01        27.80335
346.46        27.92042
346.91        28.06515
347.36        28.11645
347.81        27.87613
348.26        27.34295
348.72        26.61197
349.17        25.87957
349.62        25.55346
350.07         25.7273
350.52        26.26171
350.97        26.94834
351.42        27.47262
351.87        27.73037
352.32        27.79657
352.77        27.70972
353.22        27.53713
353.67        27.31853
354.13        27.04528
354.58        26.72594
355.03        26.42324
355.48        26.16475
355.93        25.96477
356.38        25.83447
356.83        25.77379
357.28        25.76887
357.73        25.80095
358.18        25.84127
358.63        25.84507
359.08        25.79169
359.53        25.69104
359.98          25.524
360.43        25.26418
360.88        24.92563
361.33        24.52995
361.78        24.15473
362.23        23.92685
362.68        23.86925
363.13        23.93228
363.58        24.04194
364.03        24.08134
364.48        24.00821
364.93        23.85141
365.38        23.61095
365.83        23.29422
366.28        22.92707
366.73        22.51977
367.18        22.13057
367.63        21.85129
368.08         21.6987
368.53        21.64508
368.98        21.64885
369.43        21.63594
369.88        21.58139
370.33        21.51101
370.78        21.40769
371.23        21.24743
371.68        21.03709
372.13        20.77463
372.58        20.54027
373.03        20.47368
373.48        20.59085
373.93        20.83811
374.38        21.08874
374.83        21.14756
375.28         20.9717
375.72         20.6147
376.17        20.18924
376.62        19.83939
377.07        19.62299
377.52        19.50088
377.97         19.4508
378.42        19.43733
378.87        19.43697
379.32        19.45689
379.77        19.48406
380.22        19.49142
380.67        19.47194
381.11        19.43388
381.56        19.35422
382.01        19.22142
382.46        19.03951
382.91        18.80649
383.36        18.58858
383.81        18.48338
384.26        18.50302
384.71         18.6302
385.15        18.74681
385.60        18.67269
386.05        18.38242
386.50        17.93464
386.95        17.49636
387.40         17.3327
387.85        17.48428
388.29        17.84535
388.74         18.2303
389.19        18.37335
389.64        18.22124
390.09        17.85911
390.54        17.42182
390.98        17.11925
391.43        17.02925
391.88        17.07265
392.33        17.15723
392.78        17.15197
393.23        17.03307
393.67        16.84224
394.12        16.66961
394.57        16.57738
395.02        16.57858
395.47        16.64018
395.91        16.71738
396.36        16.71934
396.81        16.63016
397.26        16.47564
397.71        16.30898
398.15        16.19353
398.60        16.16559
399.05        16.19732
399.50        16.23754
399.95        16.21273
400.39        16.10668
400.84        15.93511
401.29        15.76583
401.74        15.72306
402.18        15.83705
402.63        16.05787
403.08        16.26963
403.53        16.28829
403.97        16.08219
404.42        15.72407
404.87        15.34653
405.32        15.16739
405.76        15.23661
406.21        15.47946
406.66        15.78229
407.11        15.96715
407.55        15.98518
408.00        15.89467
408.45        15.74862
408.90        15.59978
409.34         15.4972
409.79        15.48915
410.24        15.53805
410.68        15.52407
411.13        15.43996
411.58        15.36112
412.03        15.29377
412.47        15.22332
412.92         15.1544
413.37        15.08336
413.81        15.04741
414.26        15.11868
414.71        15.29278
415.15        15.54984
415.60        15.78128
416.05        15.83405
416.49        15.67219
416.94        15.35276
417.39        14.98062
417.83        14.72747
418.28        14.64962
418.73        14.69068
419.17        14.79688
419.62        14.86949
420.07        14.88055
420.51         14.8634
420.96        14.82738
421.41        14.76573
421.85        14.68156
422.30        14.58349
422.74        14.49794
423.19        14.49453
423.64        14.57463
424.08        14.72751
424.53        14.88927
424.98        14.97029
425.42        14.94627
425.87        14.84667
426.31        14.70911
426.76         14.6016
427.21        14.53491
427.65        14.48042
428.10        14.45303
428.54        14.45565
428.99        14.48731
429.44        14.61556
429.88        14.74987
430.33        14.64606
430.77        14.35622
431.22        14.17513
431.66        14.15579
432.11        14.21968
432.56         14.3506
433.00        14.60746
433.45        14.83269
433.89        14.79286
434.34        14.57601
434.78        14.33612
435.23        14.06873
435.67        14.72088
436.12        14.23665
436.57        14.14753
437.01        13.91724
437.46        13.83393
437.90        13.91173
438.35        14.02257
438.79        14.11501
439.24        14.17019
439.68        14.17091
440.13        14.00912
440.57        13.77969
441.02        13.85598
441.46        14.11395
441.91         14.1153
442.35        13.53988
442.80        13.34678
443.24        13.39735
443.69         13.3961
444.13        13.31737
444.58        13.27322
445.02        13.26519
445.47        13.29618
445.91        13.34256
446.36        13.33692
446.80         13.2666
447.24        13.16806
447.69        13.06641
448.13        12.96961
448.58        12.89351
449.02        12.83551
449.47        12.79138
449.91        12.74757
450.36        12.70675
450.80        12.67096
451.25          12.657
451.69        12.67494
452.13        12.72763
452.58        12.79893
453.02        12.87316
453.47        12.92563
453.91        12.95056
454.36         12.9532
454.80        12.93227
455.24        12.88804
455.69         12.8316
456.13        12.75205
456.58        12.68138
457.02        12.65861
457.46        12.68704
457.91        12.72522
458.35        12.75367
458.79        12.77091
459.24        12.76861
459.68         12.7492
460.13        12.75915
460.57        12.74558
461.01        12.70166
461.46        12.96854
461.90        13.03594
462.34        12.90139
462.79        12.99299
463.23        12.87668
463.68        12.77209
464.12        12.69413
464.56         12.7576
465.01         12.8606
465.45        12.95766
465.89        12.99344
466.34        12.96208
466.78          12.843
467.22        12.69411
467.67         12.6994
468.11        12.83787
468.55        12.84678
468.99        12.74019
469.44        12.74819
469.88        12.87529
470.32        12.98948
470.77        13.04979
471.21        13.06093
471.65         13.0155
472.10        12.91497
472.54        12.80299
472.98        12.78192
473.42        12.86748
473.87        12.99158
474.31        13.11089
474.75        13.23611
475.20        13.32485
475.64        13.25473
476.08        13.09359
476.52        13.06116
476.97        13.17628
477.41        13.34133
477.85        13.49665
478.29        13.58568
478.74        13.58929
479.18        13.50371
479.62        13.39603
480.06        13.37434
480.50        13.44182
480.95        13.50222
481.39        13.52663
481.83        13.53604
482.27        13.52813
482.72        13.50061
483.16        13.47158
483.60        13.48444
484.04        13.54317
484.48         13.6532
484.93        13.86877
485.37        14.01302
485.81        14.12046
486.25        14.52734
486.69         14.8643
487.14        14.18826
487.58        14.25008
488.02        15.04475
488.46        14.76265
488.90        14.85206
489.34        14.63501
489.79        14.71665
490.23        15.04036
490.67        15.25096
491.11        15.30087
491.55        15.20992
491.99        15.03569
492.43        14.95919
492.88        15.01532
493.32        15.07211
493.76        15.13315
494.20        15.27353
494.64        15.48961
495.08        15.74684
495.52        16.00942
495.96        16.23782
496.41        16.41804
496.85        16.52878
497.29        16.58887
497.73        16.71145
498.17         16.8826
498.61        16.92526
499.05        16.87442
499.49        16.95849
499.93        17.19602
500.37         17.4283
500.82        17.62388
501.26        17.87969
501.70         18.1378
502.14        18.16794
502.58        18.02176
503.02        17.98848
503.46        18.09553
503.90         18.1981
504.34        18.26101
504.78        18.28879
505.22        18.27403
505.66        18.22791
506.10        18.18269
506.54        18.18458
506.98        18.24751
507.42        18.35885
507.86        18.50043
508.30        18.64178
508.74        18.76774
509.18        18.88025
509.62        18.98162
510.06        19.07636
510.50        19.16657
510.94        19.25278
511.38        19.31988
511.82        19.34628
512.26        19.33128
512.70        19.28054
513.14        19.23594
513.58        19.25939
514.02        19.35334
514.46        19.50014
514.90        19.64106
515.34        19.62471
515.78        19.45914
516.22        19.26184
516.66        19.12255
517.10        18.83224
517.54        18.41621
517.98        19.02062
518.42        18.91984
518.86         19.1971
519.30        19.31688
519.74        19.44872
520.18           19.56
520.62        19.57776
521.06        19.51484
521.50        19.37464
521.93        19.20093
522.37        19.07666
522.81         19.0234
523.25        19.02286
523.69        19.05022
524.13        19.06355
524.57        19.04729
525.01        19.01204
525.45         18.9652
525.89        18.91693
526.32        18.87023
526.76        18.82314
527.20        18.76422
527.64         18.6813
528.08         18.5743
528.52         18.4469
528.96        18.32722
529.40        18.25584
529.83         18.2375
530.27        18.26425
530.71        18.28933
531.15        18.23942
531.59        18.10462
532.03        17.91183
532.46        17.71744
532.90        17.62629
533.34        17.65062
533.78         17.7506
534.22        17.87279
534.66        17.93528
535.09        17.91165
535.53        17.83681
535.97        17.72494
536.41        17.59538
536.85        17.46552
537.28        17.34071
537.72        17.25494
538.16        17.20889
538.60        17.29167
539.04        17.41391
539.47        17.55476
539.91        17.68718
540.35        17.80631
540.79        17.76871
541.22        17.82291
541.66        17.87221
542.10        18.00932
542.54        17.93404
542.97        18.11695
543.41        18.22016
543.85        18.36911
544.29        18.51803
544.72          18.645
545.16        18.76885
545.60        18.88276
546.04         18.9254
546.47        18.94835
546.91        19.15844
547.35        19.50838
547.79        19.73515
548.22        19.81935
548.66         19.8923
549.10        19.98112
549.53        20.15297
549.97        20.41582
550.41        20.46465
550.84        20.67591
551.28         20.8095
551.72        20.99657
552.15        21.21176
552.59        21.45327
553.03        21.71448
553.46        21.94696
553.90        22.09946
554.34        22.16349
554.77        22.15823
555.21        22.13596
555.65        22.16792
556.08        22.26944
556.52        22.41806
556.96        22.58291
557.39        22.74441
557.83        22.88117
558.27        22.94615
558.70         22.9584
559.14        22.99338
559.57         23.0533
560.01        23.12867
560.45        23.19671
560.88        23.19417
561.32        23.16728
561.75        23.18632
562.19        23.33807
562.63         23.4238
563.06        23.46283
563.50        23.51995
563.93        23.59559
564.37        23.73371
564.80        23.82316
565.24        23.95572
565.68        24.07535
566.11        24.17863
566.55         24.2798
566.98        24.33507
567.42         24.3465
567.85        24.62577
568.29        24.54303
568.72        24.84184
569.16        25.25557
569.60        25.53956
570.03         25.6592
570.47        25.75692
570.90          25.727
571.34        26.07633
571.77        25.97838
572.21        26.19601
572.64        26.34112
573.08         26.5273
573.51        26.76089
573.95        27.22545
574.38         27.3255
574.82        27.51239
575.25        27.60792
575.69        27.39723
576.12        27.22364
576.56        27.24399
576.99        27.55824
577.42        27.61688
577.86        27.62671
578.29        27.54923
578.73        27.85125
579.16        27.47832
579.60        27.41747
580.03        27.27647
580.47        27.37275
580.90        27.20057
581.33        26.73077
581.77         26.7571
582.20         27.2968
582.64        26.85194
583.07         26.5705
583.51        26.54353
583.94        26.11099
584.37        25.79736
584.81        25.67139
585.24        25.59964
585.68        25.61238
586.11        25.46099
586.54        25.45017
586.98        25.15901
587.41         25.3707
587.85        25.36893
588.28        25.30364
588.71        25.12315
589.15        24.93216
589.58        24.62708
590.01        24.78438
590.45        25.29638
590.88        25.01377
591.31        24.88734
591.75        24.59751
592.18        24.73156
592.61        24.68311
593.05        25.07731
593.48        24.89457
593.91        25.36226
594.35        25.14369
594.78        25.38758
595.21        25.64351
595.65        25.87891
596.08        25.78415
596.51          25.816
596.94        25.94442
597.38        26.05596
597.81        26.22668
598.24        26.31592
598.68        27.08472
599.11        27.14329
599.54         27.8246
599.97        27.67792
600.41        28.06974
600.84        28.51802
601.27        28.98578
601.70        29.34081
602.14        29.49763
602.57        29.90281
603.00        30.53254
603.43        30.95109
603.87        31.16945
604.30        31.60987
604.73        32.28518
605.16        32.52524
605.60        32.97618
606.03         33.4584
606.46        34.06429
606.89        34.55332
607.32        34.87053
607.76        35.27301
608.19         35.4778
608.62        36.02263
609.05        36.21798
609.48        36.41844
609.92        36.77676
610.35        36.92807
610.78        37.73628
611.21         38.2613
611.64        38.03889
612.07        38.60564
612.50        38.83191
612.94        38.73485
613.37        39.35286
613.80         39.6209
614.23        39.90831
614.66        40.40821
615.09        40.70243
615.52        41.09909
615.96        41.41774
616.39        41.68165
616.82        41.93044
617.25        41.96293
617.68         42.2718
618.11        42.57975
618.54        42.93471
618.97        42.98666
619.40        42.79699
619.84        42.78895
620.27        42.82465
620.70        43.14164
621.13          43.589
621.56        43.79306
621.99        43.83956
622.42        43.97366
622.85         44.2536
623.28        44.42381
623.71        44.42921
624.14        44.64772
624.57        44.47794
625.00        44.01558
625.43         44.4822
625.86        43.76831
626.29        43.77457
626.72        43.74495
627.15        43.51414
627.58        43.47368
628.01        43.37547
628.44        43.29457
628.87        43.22161
629.30        42.57428
629.73         42.5678
630.16        42.05404
630.59        41.83004
631.02        41.49117
631.45        41.16163
631.88        40.80698
632.31        40.41091
632.74        39.98803
633.17        39.53273
633.60        39.05058
634.03        38.54836
634.46        38.02948
634.89        37.51345
635.32        37.02953
635.75        36.58763
636.18        36.18744
636.61        35.80853
637.04        35.41265
637.47        34.98833
637.89        34.54512
638.32        34.10381
638.75        33.72091
639.18         33.4114
639.61        33.16323
640.04         32.9366
640.47        32.66482
640.90        32.33553
641.33        31.97328
641.76         31.6272
642.18        31.37985
642.61        31.24568
643.04        31.19833
643.47        31.19997
643.90        31.18692
644.33        31.14296
644.76        31.09691
645.18        31.06038
645.61        31.05519
646.04        31.09165
646.47        31.15516
646.90        31.27859
647.33        31.51754
647.75        31.87527
648.18        32.33265
648.61        32.81114
649.04        33.18851
649.47        33.45071
649.89        33.61374
650.32        33.77618
650.75        34.18456
651.18          34.852
651.61        35.48425
652.03        36.05661
652.46        36.89404
652.89        37.87556
653.32        38.31116
653.74        38.28846
654.17        38.83882
654.60        39.13181
655.03        40.31964
655.46        40.05726
655.88        41.86212
656.31        43.08383
656.74        48.18306
657.16          46.187
657.59         43.5185
658.02        43.86943
658.45        44.42727
658.87        44.90384
659.30        45.76303
659.73         46.4952
660.15        47.04767
660.58        46.99577
661.01         47.0246
661.44        47.16562
661.86        47.33348
662.29        47.59535
662.72         48.3045
663.14        49.25469
663.57         49.4488
664.00        49.01646
664.42        49.02504
664.85         49.5452
665.27        49.94166
665.70        50.14348
666.13        50.36504
666.55        50.59618
666.98        50.78004
667.41        50.95891
667.83        51.11966
668.26        51.24744
668.69        51.49053
669.11        51.85934
669.54        51.62285
669.96        51.95765
670.39        51.94893
670.82        51.98391
671.24        52.08437
671.67        52.28162
672.09        52.53212
672.52        52.78793
672.94         53.0743
673.37        53.31813
673.80         53.2896
674.22        53.07607
674.65        53.03356
675.07        53.21342
675.50        53.40993
675.92        53.57496
676.35        53.70329
676.77        53.76715
677.20        53.72975
677.62        53.64531
678.05        53.63824
678.47        53.72506
678.90        53.88452
679.32        54.08184
679.75        54.15189
680.17        54.27363
680.60        54.30535
681.02        54.34397
681.45        54.39581
681.87        54.48827
682.30        54.68704
682.72         54.9309
683.15        54.97586
683.57        54.88042
684.00        54.86808
684.42        55.08184
684.85        55.32866
685.27        55.31294
685.70         55.4633
686.12        55.65002
686.54        55.78315
686.97        55.84698
687.39        55.83367
687.82        55.77499
688.24        55.84631
688.66        56.00637
689.09        55.99263
689.51        55.84484
689.94        55.79085
690.36        55.85678
690.78        55.94847
691.21         56.0728
691.63        56.01292
692.06         56.4617
692.48        56.42174
692.90        56.49525
693.33        56.89644
693.75        56.77571
694.17        56.88324
694.60        56.89764
695.02        56.81008
695.44        56.61974
695.87        56.42538
696.29        56.26164
696.71        56.11516
697.14        56.17369
697.56        56.28104
697.98        57.10535
698.41        57.89292
698.83        57.50452
699.25        57.34242
699.68        57.19792
700.10        57.10471
700.52        57.12381
700.94        57.25994
701.37        57.45118
701.79        57.61502
702.21        57.70016
702.64        57.73448
703.06        57.76066
703.48        57.85147
703.90        58.02158
704.33        58.23829
704.75        58.42921
705.17        58.45531
705.59        58.29636
706.01        58.00373
706.44        57.71179
706.86        57.63453
707.28        57.80961
707.70        58.15966
708.12        58.56122
708.55        58.81518
708.97        58.86703
709.39        58.78695
709.81        58.62506
710.23         58.4727
710.66        58.37536
711.08        58.30908
711.50         58.2871
711.92        58.34619
712.34        58.48628
712.76        58.70757
713.19        58.94088
713.61        59.11097
714.03        59.16956
714.45        59.13885
714.87        59.08429
715.29        59.11279
715.71         59.2478
716.13        59.45615
716.56        59.66523
716.98        59.82165
717.40        59.87545
717.82         59.8516
718.24        59.79394
718.66        59.77238
719.08        59.80759
719.50        59.87574
719.92        59.93627
720.34        59.95155
720.76        59.91662
721.19         59.7977
721.61        59.63298
722.03        59.71418
722.45         59.6745
722.87        59.76339
723.29        59.84865
723.71        59.93837
724.13        60.02072
724.55        60.09133
724.97        60.15959
725.39        60.24078
725.81        60.33524
726.23        60.42484
726.65        60.51204
727.07         60.6072
727.49        60.70971
727.91        60.81834
728.33        60.90181
728.75        60.91859
729.17        60.85928
729.59        60.71712
730.01        60.56518
730.43        60.54942
730.85        60.69204
731.27        60.93638
731.69        61.20437
732.10        61.38905
732.52        61.44887
732.94        61.40556
733.36        61.27861
733.78         61.2074
734.20         61.2445
734.62        61.18484
735.04        60.96087
735.46        61.44463
735.88        61.07409
736.30        61.08437
736.72        61.06739
737.13        61.17563
737.55        61.33706
737.97        61.55737
738.39        61.77215
738.81        61.66539
739.23        61.34209
739.65        61.42554
740.06        61.82048
740.48        61.91847
740.90        61.67736
741.32        61.46075
741.74        61.35658
742.16        61.33594
742.57        61.43211
742.99        61.62364
743.41        61.84632
743.83         61.9763
744.25        61.97859
744.67        61.87968
745.08        61.73413
745.50        61.60648
745.92        61.53878
746.34        61.51156
746.75        61.50761
747.17        61.50305
747.59        61.49461
748.01        61.49868
748.42        61.54324
748.84        61.65592
749.26         61.8444
749.68        62.03206
750.09        62.19167
750.51        62.38451
750.93        62.53741
751.35          62.454
751.76        62.19096
752.18        61.98345
752.60        61.84147
753.01        61.95548
753.43        61.74911
753.85        61.80139
754.27        61.94191
754.68        62.16716
755.10        62.38856
755.52        62.48153
755.93        62.42854
756.35        62.26648
756.77        62.09394
757.18        62.06717
757.60        62.24961
758.02        62.50999
758.43        62.72345
758.85        62.85964
759.26        63.22655
759.68        62.38151
760.10        62.67004
760.51        62.24852
760.93         61.9619
761.34        61.71483
761.76         62.1856
762.18        62.15318
762.59        61.92919
763.01        61.54613
763.42        62.10318
763.84        62.32095
764.26        62.46692
764.67        62.43073
765.09         62.3503
765.50        62.65861
765.92        63.25878
766.33        63.47029
766.75        63.18157
767.16        63.00953
767.58        62.82331
768.00         62.3504
768.41        61.78358
768.83        61.97429
769.24        62.77904
769.66        63.22329
770.07        63.18542
770.49        63.05624
770.90        62.95447
771.32        63.05716
771.73        63.32427
772.15        63.39385
772.56        63.26383
772.97        63.12193
773.39        62.94598
773.80        62.97868
774.22        62.67799
774.63        62.41395
775.05        62.14046
775.46        62.14657
775.88        62.44184
776.29        62.95147
776.70        63.47912
777.12        63.72913
777.53        63.63374
777.95        63.24961
778.36        62.77227
778.77        62.54591
779.19        62.66048
779.60        63.05553
780.02        63.49963
780.43        63.78007
780.84         63.8306
781.26        63.38311
781.67        62.75132
782.09        63.27039
782.50        64.59978
782.91        64.68237
783.33        63.61349
783.74        63.31102
784.15        63.84426
784.57        64.09132
784.98        63.94647
785.39        63.79664
785.81        63.61824
786.22        63.23166
786.63         62.7915
787.04        62.63505
787.46        62.80274
787.87        63.16711
788.28        63.60335
788.70         63.9171
789.11        64.04208
789.52        64.02895
789.93        63.94553
790.35        63.93837
790.76        64.03332
791.17        64.06015
791.58        64.01026
792.00        64.03284
792.41        64.07668
792.82        63.91517
793.23        63.56816
793.65        63.23209
794.06        63.08349
794.47         63.1687
794.88        63.33734
795.29         64.0675
795.71        64.09187
796.12         63.5855
796.53        64.34822
796.94        64.06461
797.35        63.51451
797.76        63.42408
798.18        63.79525
798.59        63.93849
799.00        63.79288
799.41        63.80477
799.82        63.95513
800.23        64.00629
800.64         63.9429
801.06        63.80192
801.47        63.68766
801.88        63.70965
802.29        63.88327
802.70        64.14846
803.11        64.39632
803.52        64.45369
803.93        64.28938
804.34        63.98006
804.75        63.62519
805.17        63.38409
805.58        63.33305
805.99        63.31773
806.40        63.40937
806.81        63.65273
807.22        64.75316
807.63         64.6347
808.04        63.79253
808.45        63.62701
808.86        64.26992
809.27        64.99448
809.68        65.54295
810.09        65.78883
810.50        65.62214
810.91        65.11794
811.32        64.48589
811.73        63.99688
812.14        63.74178
812.55        63.77419
812.96         63.9669
813.37        63.81498
813.78         63.3858
814.19        63.36387
814.60        63.70821
815.01        63.84484
815.42        63.75086
815.83        63.72352
816.24        63.80632
816.65        63.91965
817.05        64.06957
817.46        64.24337
817.87        64.38464
818.28        64.36188
818.69        64.16996
819.10        63.85318
819.51         63.5399
819.92        63.49946
820.33        63.80034
820.74        64.24279
821.14        64.73089
821.55        65.32511
821.96        65.85113
822.37        65.80159
822.78        65.27679
823.19        64.95525
823.60        64.92534
824.00        64.83837
824.41        64.66124
824.82         64.5966
825.23         64.6494
825.64        64.78136
826.04        64.95068
826.45        65.03596
826.86        65.01793
827.27        64.92743
827.68        64.79025
828.08        64.67312
828.49        64.55981
828.90        64.46281
829.31        64.40224
829.72        64.41273
830.12        64.51334
830.53        64.65646
830.94        64.81741
831.35        64.93095
831.75        64.99591
832.16        64.98283
832.57        64.91891
832.97        64.83182
833.38        64.72364
833.79        64.59674
834.20        64.46686
834.60         64.3472
835.01        64.26346
835.42        64.22926
835.82        64.24096
836.23         64.2379
836.64        64.22505
837.04        64.20004
837.45        64.20993
837.86          64.376
838.26        64.71687
838.67        65.16321
839.08        65.56161
839.48        65.62356
839.89        65.29489
840.29        64.70461
840.70        64.10552
841.11        63.80397
841.51        63.88735
841.92        64.20919
842.33        64.71176
842.73        65.28846
843.14        65.78149
843.54        66.27764
843.95        66.59469
844.35        66.51275
844.76        66.02737
845.17        65.22529
845.57        64.40266
845.98        64.03603
846.38        64.22722
846.79        64.85033
847.19        65.70084
847.60         66.2707
848.00        66.44424
848.41        66.30626
848.81        66.07275
849.22        66.00357
849.62        66.21057
850.03        66.55078
850.43        66.94209
850.84        67.17328
851.24        67.21465
851.65        67.08859
852.05        66.89292
852.46        66.68658
852.86        66.52213
853.27        66.36435
853.67        66.17601
854.07        66.12357
854.48        66.14128
854.88        66.01872
855.29        65.76563
855.69        65.74473
856.10        65.91211
856.50        66.15043
856.90        66.35514
857.31        66.44679
857.71        66.45692
858.12        66.36444
858.52        66.21909
858.92        65.98913
859.33        65.67552
859.73        65.29604
860.13        64.98515
860.54        65.00114
860.94        65.43562
861.34        66.18691
861.75        66.90324
862.15        67.10252
862.55        66.63731
862.96        65.68021
863.36        64.57709
863.76         63.9014
864.17        63.81888
864.57         64.1762
864.97        64.76385
865.38        65.23573
865.78        65.51769
866.18        65.63937
866.58        65.60512
866.99        65.43284
867.39        65.18413
867.79        64.82343
868.19        64.29755
868.60        63.52199
869.00        62.48311
869.40        61.29232
869.80        60.26742
870.21        59.90897
870.61        60.37095
871.01        61.44561
871.41        62.70451
871.81        63.46081
872.22        63.56595
872.62        63.22449
873.02        62.63565
873.42        62.40366
873.82        62.42361
874.22        61.87616
874.63        61.10648
875.03         60.9286
875.43         61.4591
875.83        63.72679
876.23        63.79156
876.63        63.07293
877.03        60.85472
877.44        57.33732
877.84        140.0952
878.24        56.83906
878.64        58.87892
879.04        64.45848
879.44        60.80011
879.84         59.0049
880.24        64.80811
880.64        65.30862
881.04        61.86635
881.44         59.5701
881.84        59.21795
882.24        60.01259
882.65        61.32163
883.05        61.78316
883.45        60.99752
883.85        59.80973
884.25        58.85342
884.65        58.68707
885.05        59.44996
885.45        60.89828
885.85        62.45123
886.25        63.16758
886.65        62.80344
887.05        61.67806
887.45        60.34599
887.85        59.63922
888.25        59.77422
888.65        60.49646
889.04        61.48647
889.44        62.12488
889.84        62.22233
890.24         61.9596
890.64        61.53418
891.04        61.22658
891.44          61.103
891.84         61.0408
892.24        60.92136
892.64        60.57494
893.04        60.00501
893.44        59.36597
893.83        58.75913
894.23        58.32289
894.63        58.07532
895.03        57.93171
895.43        57.95272
895.83         58.2463
896.23        58.78038
896.63         59.5196
897.02        60.16216
897.42        60.16128
897.82        59.45299
898.22        58.24776
898.62        57.00624
899.01        56.42964
899.41        56.69123
899.81        57.53321
900.21        58.67271
900.61        59.67971
901.00        60.37976
901.40         60.8503
901.80        61.09443
902.20        61.10378
902.59         60.9141
902.99        60.53361
903.39        59.99702
903.79        59.38812
904.18        58.77987
904.58        58.23606
904.98        57.94694
905.38        58.17866
905.77        58.92804
906.17         60.0878
906.57        61.29185
906.96        61.99084
907.36        62.00071
907.76        61.44662
908.15        60.67583
908.55        60.20877
908.95        60.21044
909.34        60.57913
909.74        60.97198
910.14        60.77545
910.53        59.86797
910.93        58.53235
911.33        57.33121
911.72        57.13951
912.12        58.05737
912.52         59.7049
912.91        61.46048
913.31        62.28721
913.70         61.9858
914.10        60.85744
914.49        59.24937
914.89        57.99364
915.29        57.43678
915.68         57.3639
916.08        57.68622
916.47        58.27402
916.87        58.98209
917.26        59.83805
917.66        60.64701
918.05        61.10654
918.45        61.11885
918.84        60.79736
919.24        60.17705
919.64        59.35917
920.03         58.4587
920.42        57.49791
920.82        56.82158
921.21        56.90841
921.61         57.7497
922.00        59.22774
922.40        60.74781
922.79        61.56398
923.19        61.49181
923.58        60.45908
923.98        58.76342
924.37        57.92296
924.77        58.52163
925.16        55.81126
925.55        57.74973
925.95        57.70383
926.34        58.01665
926.74        58.47942
927.13        59.08926
927.52        59.58429
927.92        59.85789
928.31        60.03667
928.70        60.05825
929.10        59.89081
929.49        59.55502
929.89         59.0591
930.28        58.63392
930.67        58.65145
931.07        59.13584
931.46        60.02901
931.85        60.93216
932.24        61.24923
932.64        60.84737
933.03        59.78503
933.42        58.44871
933.82        57.64557
934.21        57.60419
934.60        58.13736
934.99         58.5837
935.39         58.4042
935.78        57.54849
936.17        55.44598
936.56        52.43357
936.96        54.12603
937.35        53.67195
937.74        56.26373
938.13        58.74331
938.53         60.1908
938.92        60.50883
939.31        60.05429
939.70        59.22346
940.09        58.59055
940.49         58.4403
940.88        58.60551
941.27        58.99939
941.66        59.53549
942.05        60.12997
942.44        60.78901
942.84        61.44862
943.23        61.97975
943.62        62.30616
944.01        62.47192
944.40        62.32675
944.79        61.65445
945.18        60.46248
945.57        58.80273
945.97        57.21798
946.36        56.60155
946.75         57.2317
947.14        58.77663
947.53        60.48295
947.92        61.30639
948.31         61.0508
948.70        60.03362
949.09        58.69242
949.48        57.80771
949.87        57.64425
950.26        57.94442
950.65        58.48911
951.04        58.92424
951.43        59.10819
951.82        59.18561
952.21        59.16007
952.60        59.00907
952.99        58.75684
953.38        58.37613
953.77        57.97901
954.16        57.76871
954.55         57.7853
954.94         57.9977
955.33        58.26582
955.72        58.33719
956.11        58.15734
956.50        57.80074
956.89        57.42498
957.28        57.33486
957.66        57.61904
958.05        58.06299
958.44        58.52905
958.83        58.83395
959.22        58.92915
959.61        58.91055
960.00        58.68391
960.39        58.09859
960.78        57.19186
961.16        55.99589
961.55        54.93681
961.94        54.54951
962.33        54.91941
962.72        55.91344
963.11        57.03399
963.49         57.4211
963.88        56.77609
964.27        55.37294
964.66        53.77277
965.04        52.90783
965.43        53.03124
965.82        53.89526
966.21        55.02511
966.60        55.63831
966.98        55.54022
967.37        54.95834
967.76        54.33902
968.15        54.36824
968.53        55.19838
968.92        56.47514
969.31        57.77552
969.69        58.42869
970.08        58.18341
970.47        57.29636
970.86        56.00722
971.24        54.66368
971.63        53.49967
972.02        52.46019
972.40        51.59948
972.79        51.04416
973.17        50.83458
973.56        50.91399
973.95        51.30591
974.33        51.98725
974.72        52.76888
975.11        53.59094
975.49        54.18545
975.88        54.16775
976.26        53.49686
976.65        52.33019
977.04         50.9376
977.42        49.81113
977.81        49.16444
978.19        48.86519
978.58         48.9223
978.96        49.30563
979.35        49.90036
979.74        50.81464
980.12        51.80194
980.51        52.17209
980.89        51.90606
981.28        51.10183
981.66        50.31301
982.05        50.33976
982.43        51.28569
982.82        52.84965
983.20        54.59501
983.59        55.45131
983.97        55.17789
984.35        54.04364
984.74        52.51956
985.12           51.24
985.51        50.41843
985.89        49.76546
986.28        49.30622
986.66        49.12724
987.04        49.18163
987.43        49.56521
987.81        49.74543
988.20        48.91576
988.58        46.84531
988.96        43.38663
989.35        39.38973
989.73        37.42144
990.12        38.77473
990.50         42.5841
990.88        46.67476
991.27        48.60726
991.65        48.30022
992.03        46.39616
992.42        44.07118
992.80         43.5389
993.18        45.48821
993.56        48.84824
993.95        52.39418
994.33        54.94374
994.71        56.01905
995.10        56.11272
995.48        55.49696
995.86        54.42204
996.24        53.05169
996.63        51.26776
997.01        49.22367
997.39        47.72409
997.77        47.19642
998.15        47.52747
998.54         48.2948
998.92        48.97343
999.30        49.41999
999.68        49.79396
1000.06        49.85767
1000.45        49.11608
1000.83        47.67748
1001.21        45.87322
1001.59        44.34222
1001.97        43.51031
1002.35        43.22837
1002.73        43.33547
1003.12        43.53883
1003.50        43.22414
1003.88        42.19472
1004.26        40.82196
1004.64         39.3772
1005.02        38.13342
1005.40        37.20854
1005.78        36.46701
1006.16         36.3951
1006.54        37.82836
1006.92        40.42376
1007.30        43.35225
1007.69        45.63043
1008.07        46.56522
1008.45        45.93296
1008.83        43.73155
1009.21        39.30259
1009.59        32.64362
1009.97        25.22096
1010.35        18.32048
1010.73        14.49242
1011.11        15.28741
1011.49        19.86651
1011.86        27.56332
1012.24        34.82047
1012.62        38.24323
1013.00        37.57079
1013.38        33.91552
1013.76         29.2299
1014.14        27.02052
1014.52         28.2747
1014.90        31.87392
1015.28        36.08315
1015.66        38.02147
1016.04        36.70508
1016.41        32.87522
1016.79        27.57542
1017.17          23.511
1017.55        22.24495
1017.93        22.80534
1018.31         24.3466
1018.69        26.20121
1019.06         28.0486
1019.44        29.86734
1019.82        31.30792
1020.20         31.1848
1020.58        29.05583
1020.95        25.45884
1021.33        20.40284
1021.71         12.6322
1022.09       0.2001382
1022.46       -22.92396
1022.84       -57.07617
1023.22       -68.26415
1023.60        -37.2697
1023.97      -0.9359716
1024.35         20.0201
1024.73        27.21055
