SpectraSmart Spectrum 2.9.0.0
--------- Device Information -----------
Spectrum Name :  反射率_0
Saving Time :  2024/04/20 00:05:00
Spectro-Module Model Name : SE2030-DUVN
Spectro-Module Serial Number : OS361AC55029948
Wavelength Start : 200
Wavelength End : 1025
Wavelength Unit : Wavelength(nm)
Spectrum Unit : Reflectance(%)
-----------Spectrum Setting ------------
Integration Time : 30ms
Average : 10
Boxcar : 0
Background removal :  enabled
linearity correction :  enabled
SC :  disabled
Intensity correction :  disabled
DWT denoise :  enabled
savitzky-golay :  disabled
FFT :  disabled
Running average :  disabled
Kalman :  disabled
High pass :  disabled
---------------BEGIN--------------------
Wavelength(nm)             Reflectance(%)
200.29               0
200.75         65.5095
201.21        67.06881
201.67        70.96563
202.13        77.54839
202.58        86.69977
203.04        98.51445
203.50        109.3313
203.96        110.7562
204.42        103.0535
204.88        91.99037
205.34        82.63032
205.80         77.2891
206.26        75.04394
206.72        74.74921
207.18        76.62244
207.64         80.2269
208.10        83.89088
208.55        87.29923
209.01        88.58382
209.47        87.39344
209.93        84.43018
210.39        80.22578
210.85        75.89648
211.31        72.55956
211.77        70.14309
212.23        68.09855
212.69        66.73284
213.14        67.25182
213.60        69.21053
214.06        72.07822
214.52         74.5305
214.98        76.06046
215.44        76.91204
215.90        76.99541
216.36         77.0752
216.81        78.66514
217.27        81.79603
217.73        86.00011
218.19        89.03964
218.65        87.88042
219.11        82.12921
219.57        72.23142
220.02        61.05954
220.48        56.14713
220.94        60.14157
221.40        71.43438
221.86        85.00695
222.32        93.14327
222.77        93.86671
223.23        89.68491
223.69        84.00661
224.15         81.7456
224.61        83.42694
225.06        86.70647
225.52        89.72023
225.98        90.79923
226.44        89.91937
226.90        87.83862
227.36        85.51167
227.81        84.42103
228.27        85.18086
228.73        86.93505
229.19        88.63023
229.65        89.08086
230.10        88.22003
230.56        86.81962
231.02        85.45881
231.48        84.92558
231.93        85.20323
232.39        85.96311
232.85        86.79042
233.31        87.15293
233.77        86.89693
234.22        86.26172
234.68        85.27761
235.14        83.92923
235.60        82.37191
236.05         80.6531
236.51        79.17649
236.97        78.52538
237.43         78.8332
237.88        80.31593
238.34        82.36526
238.80        83.73466
239.26        83.42431
239.71        81.58176
240.17          78.784
240.63        76.51962
241.08        75.26031
241.54        74.66223
242.00        74.10693
242.46        72.23769
242.91        68.30198
243.37        61.45233
243.83        52.31986
244.28        47.14394
244.74        51.83778
245.20        64.94519
245.66        77.71101
246.11        83.01266
246.57        80.33581
247.03        70.18761
247.48        54.79068
247.94        48.60865
248.40        54.87309
248.85        63.92006
249.31        70.73338
249.77        73.97993
250.22        74.56566
250.68        73.69784
251.14         71.9703
251.59        70.48286
252.05        70.16824
252.51        70.93668
252.96        72.14137
253.42        72.87278
253.88        73.00835
254.33        72.91381
254.79        74.20755
255.25        78.20861
255.70        84.30132
256.16        91.19701
256.62        97.08086
257.07        99.97489
257.53        100.1387
257.99        98.44356
258.44        95.38834
258.90        92.62729
259.35        90.23591
259.81        88.78997
260.27        87.77309
260.72        86.78304
261.18         86.0822
261.63        85.16019
262.09        84.65096
262.55        84.72173
263.00        85.12944
263.46        85.91799
263.91        86.17124
264.37        85.32137
264.83        83.37416
265.28        80.62372
265.74        78.16119
266.19        76.89526
266.65        77.04315
267.11        78.02448
267.56        79.10052
268.02         79.2813
268.47        78.33399
268.93        76.62953
269.38        74.54838
269.84        72.93606
270.30        72.02699
270.75        71.57053
271.21        71.29731
271.66        70.76322
272.12        69.85419
272.57        68.70228
273.03         67.5159
273.48        66.48158
273.94        65.72395
274.39        65.10049
274.85        64.52039
275.31        63.75742
275.76        62.74404
276.22        61.61359
276.67        60.47003
277.13        59.64185
277.58        59.08688
278.04        58.76432
278.49        58.39969
278.95        57.75662
279.40        56.72895
279.86        55.53811
280.31        54.28459
280.77         53.3279
281.22        52.63209
281.68        52.14852
282.13        51.71541
282.59        51.19921
283.04        50.53207
283.50        49.82851
283.95        49.09842
284.41        48.43798
284.86        47.83083
285.32        47.29739
285.77        46.81876
286.22        46.46779
286.68        46.25172
287.13        46.10349
287.59        45.99529
288.04        45.80939
288.50        45.55165
288.95         45.2031
289.41        44.81387
289.86        44.36782
290.32        43.93573
290.77        43.50818
291.22        43.15215
291.68        42.92991
292.13        42.84995
292.59        42.93197
293.04         43.1515
293.50        43.49967
293.95        43.94641
294.40        44.48056
294.86        45.09319
295.31        45.77806
295.77        46.52296
296.22        47.31346
296.68        48.09555
297.13           48.77
297.58        49.32359
298.04        49.78773
298.49        50.23662
298.95        50.84165
299.40        51.60746
299.85        52.47492
300.31        53.35235
300.76        54.07255
301.21        54.60781
301.67        55.05989
302.12        55.42756
302.58        55.80361
303.03        56.18655
303.48         56.5798
303.94        57.07831
304.39        57.77056
304.84        58.66027
305.30        59.68899
305.75         60.6641
306.20        61.33446
306.66        61.66942
307.11        61.71695
307.57         61.6334
308.02        61.55579
308.47        61.56875
308.93        61.62645
309.38        61.70418
309.83         61.8383
310.29        62.01522
310.74        62.23267
311.19         62.3921
311.65         62.3209
312.10        61.98973
312.55        61.45908
313.00        60.89875
313.46        60.57186
313.91        60.51578
314.36        60.66695
314.82        60.86857
315.27        60.89616
315.72        60.66969
316.18        60.27536
316.63        59.80448
317.08        59.42059
317.53        59.16319
317.99         58.9696
318.44        58.78101
318.89        58.49017
319.35        58.07674
319.80        57.59644
320.25        57.11054
320.70        56.71225
321.16        56.41981
321.61        56.20545
322.06        56.03111
322.51         55.8432
322.97        55.60699
323.42        55.34752
323.87        55.04427
324.32        54.67569
324.78        54.23499
325.23         53.7485
325.68        53.24203
326.13        52.77652
326.59        52.37392
327.04        52.05632
327.49        51.80798
327.94          51.606
328.39        51.43517
328.85        51.26927
329.30        51.15487
329.75        51.08728
330.20        51.05336
330.66        51.01324
331.11        50.94402
331.56        50.74474
332.01        50.39948
332.46        49.94055
332.92        49.41666
333.37        48.95116
333.82        48.58397
334.27        48.30627
334.72        48.11833
335.17        48.01167
335.63        47.95795
336.08        47.97566
336.53        48.02777
336.98        48.07386
337.43        48.09136
337.88        48.08203
338.34        47.99282
338.79        47.79655
339.24        47.48082
339.69        47.06334
340.14        46.66122
340.59        46.46899
341.05        46.51877
341.50          46.763
341.95        47.05987
342.40        47.18492
342.85        47.08442
343.30        46.82922
343.75        46.51472
344.20        46.30031
344.66        46.22986
345.11        46.22886
345.56        46.26231
346.01        46.27567
346.46         46.2372
346.91         46.1723
347.36         46.0439
347.81        45.78285
348.26        45.40077
348.72        44.95643
349.17        44.51152
349.62        44.23914
350.07        44.18712
350.52        44.29676
350.97        44.52495
351.42        44.80492
351.87        45.08511
352.32        45.35969
352.77        45.54383
353.22        45.50919
353.67        45.24081
354.13        44.79607
354.58        44.25859
355.03        43.81347
355.48        43.52233
355.93        43.35791
356.38        43.27892
356.83        43.20952
357.28        43.11725
357.73        43.01094
358.18        42.91031
358.63        42.84586
359.08         42.8109
359.53        42.78215
359.98        42.68384
360.43        42.40676
360.88        41.94545
361.33        41.34947
361.78         40.7368
362.23        40.30109
362.68         40.0901
363.13         40.0389
363.58        40.05581
364.03         39.9932
364.48        39.79989
364.93        39.51723
365.38        39.15724
365.83        38.74751
366.28        38.31508
366.73        37.85198
367.18        37.40551
367.63        37.05212
368.08         36.8045
368.53        36.64967
368.98        36.52883
369.43        36.33986
369.88         36.0588
370.33        35.71396
370.78        35.35318
371.23        35.06324
371.68         34.8722
372.13         34.7505
372.58        34.67342
373.03        34.60105
373.48        34.51341
373.93        34.42032
374.38        34.31253
374.83        34.17322
375.28        33.99728
375.72        33.77214
376.17        33.53269
376.62        33.29882
377.07        33.08559
377.52        32.89639
377.97        32.72678
378.42        32.56647
378.87          32.413
379.32        32.26725
379.77        32.14338
380.22         32.0595
380.67        32.01205
381.11        31.99591
381.56        31.95821
382.01        31.83777
382.46        31.62192
382.91        31.32584
383.36        31.01438
383.81        30.78457
384.26        30.65802
384.71        30.61931
385.15        30.58617
385.60         30.4427
386.05        30.16826
386.50        29.80253
386.95        29.46394
387.40        29.33719
387.85        29.44763
388.29        29.71379
388.74        29.99788
389.19        30.07962
389.64        29.91494
390.09        29.56078
390.54         29.1472
390.98        28.87461
391.43        28.81671
391.88        28.89726
392.33         28.9867
392.78        28.89832
393.23         28.6153
393.67        28.20053
394.12        27.82735
394.57        27.63922
395.02        27.66275
395.47         27.8372
395.91        28.06955
396.36        28.16654
396.81        28.08651
397.26        27.88746
397.71        27.65873
398.15        27.51258
398.60        27.50936
399.05        27.58799
399.50        27.68979
399.95        27.73536
400.39        27.70369
400.84        27.61571
401.29        27.51566
401.74         27.4817
402.18        27.53868
402.63        27.65245
403.08        27.75376
403.53        27.72832
403.97        27.55856
404.42        27.29697
404.87        27.04265
405.32        26.95936
405.76        27.07545
406.21        27.33165
406.66        27.62243
407.11        27.78153
407.55        27.76812
408.00        27.64061
408.45        27.45286
408.90        27.23231
409.34        27.04509
409.79        27.00918
410.24        27.07773
410.68        27.06227
411.13        26.95453
411.58        26.86404
412.03        26.80278
412.47        26.75126
412.92         26.7108
413.37        26.67875
413.81        26.68397
414.26         26.7908
414.71        26.99257
415.15        27.27436
415.60        27.52866
416.05        27.61355
416.49        27.49474
416.94        27.21947
417.39        26.89323
417.83        26.68657
418.28        26.65484
418.73        26.74498
419.17        26.88624
419.62        26.96013
420.07        26.93719
420.51        26.85591
420.96        26.76655
421.41        26.71638
421.85        26.71145
422.30        26.74799
422.74        26.79879
423.19        26.86889
423.64        26.94332
424.08        27.03653
424.53        27.11825
424.98        27.17672
425.42        27.21212
425.87        27.22594
426.31         27.2199
426.76         27.2083
427.21        27.18523
427.65        27.13858
428.10        27.10257
428.54        27.11743
428.99        27.19864
429.44        27.40503
429.88        27.60738
430.33        27.53306
430.77        27.21556
431.22        26.95661
431.66        26.85826
432.11        26.95564
432.56        27.21489
433.00         27.6391
433.45        27.99318
433.89        27.82441
434.34        27.28625
434.78        27.06702
435.23        26.97527
435.67        27.55652
436.12        27.13366
436.57        26.99053
437.01        26.74262
437.46        26.65274
437.90        26.75125
438.35         26.8956
438.79        26.99962
439.24        27.05339
439.68        27.03968
440.13        26.75053
440.57         26.3795
441.02        26.66379
441.46        27.36198
441.91          27.606
442.35        26.70197
442.80        26.44918
443.24        26.58116
443.69        26.52784
444.13        26.28884
444.58        26.15817
445.02        26.16593
445.47        26.29958
445.91        26.48864
446.36        26.55555
446.80        26.46599
447.24         26.3097
447.69        26.15392
448.13        26.04852
448.58        26.02287
449.02        26.04837
449.47        26.09357
449.91        26.09957
450.36        26.05765
450.80        25.98602
451.25        25.91011
451.69        25.84123
452.13        25.79653
452.58        25.76649
453.02        25.75823
453.47        25.79208
453.91        25.86729
454.36        25.97498
454.80        26.08624
455.24        26.14666
455.69        26.14953
456.13        26.07921
456.58         25.9872
457.02        25.93968
457.46        25.94579
457.91         25.9286
458.35        25.87052
458.79        25.81792
459.24        25.76349
459.68        25.71117
460.13        25.73209
460.57        25.69431
461.01        25.57201
461.46        26.06876
461.90        26.17074
462.34        25.91303
462.79        26.15707
463.23        26.01947
463.68        25.90592
464.12        25.79813
464.56        25.91318
465.01        26.06942
465.45        26.20439
465.89        26.25635
466.34        26.22138
466.78        26.03377
467.22         25.7987
467.67         25.8683
468.11         26.1916
468.55        26.24471
468.99         26.0344
469.44        25.99837
469.88        26.14579
470.32        26.21842
470.77        26.19671
471.21        26.18129
471.65        26.17672
472.10        26.15215
472.54        26.12773
472.98        26.18613
473.42        26.32696
473.87        26.44954
474.31        26.52551
474.75        26.67712
475.20        26.84221
475.64        26.74618
476.08        26.47756
476.52        26.40592
476.97        26.55738
477.41        26.76085
477.85        26.94998
478.29        27.09486
478.74         27.1746
479.18        27.15228
479.62        27.10604
480.06        27.16724
480.50        27.32611
480.95        27.42113
481.39        27.43098
481.83        27.45134
482.27        27.48266
482.72        27.49397
483.16        27.50874
483.60        27.53188
484.04         27.6479
484.48        27.85241
484.93        28.14424
485.37        28.32328
485.81        28.33322
486.25        28.80272
486.69        29.74618
487.14        29.56142
487.58        28.96099
488.02         29.6218
488.46        29.29446
488.90        29.45774
489.34         29.3363
489.79        29.46744
490.23        29.78615
490.67        29.98468
491.11         30.0498
491.55        30.03454
491.99        29.98766
492.43        30.01056
492.88          30.129
493.32        30.27474
493.76        30.44433
494.20        30.66211
494.64        30.92216
495.08        31.22404
495.52        31.52853
495.96         31.7648
496.41        31.94195
496.85        32.08298
497.29        32.21585
497.73        32.47274
498.17        32.80929
498.61        32.92426
499.05        32.85633
499.49        32.98149
499.93        33.32645
500.37        33.60258
500.82        33.79052
501.26        34.13348
501.70        34.54042
502.14         34.5616
502.58         34.2815
503.02        34.22347
503.46        34.42999
503.90        34.63247
504.34        34.76881
504.78        34.85476
505.22        34.87288
505.66        34.83153
506.10        34.77748
506.54        34.78062
506.98        34.86164
507.42        35.00243
507.86        35.17539
508.30        35.33384
508.74        35.45984
509.18         35.5633
509.62        35.65639
510.06        35.75753
510.50        35.87173
510.94        35.99311
511.38        36.10023
511.82        36.16114
512.26        36.17233
512.70        36.14609
513.14        36.12333
513.58        36.16128
514.02        36.26461
514.46        36.41969
514.90        36.58306
515.34         36.6089
515.78        36.55172
516.22        36.45811
516.66         36.3987
517.10         36.1827
517.54        35.82743
517.98        36.24571
518.42        36.09549
518.86        36.25701
519.30        36.31774
519.74        36.40273
520.18        36.48948
520.62        36.52422
521.06        36.51242
521.50        36.45578
521.93        36.36497
522.37        36.26578
522.81        36.17154
523.25          36.084
523.69         36.0145
524.13        35.98031
524.57        35.97926
525.01        35.99776
525.45        36.02849
525.89        36.05693
526.32        36.07339
526.76        36.08856
527.20        36.06772
527.64        35.96181
528.08        35.77131
528.52        35.50997
528.96        35.26304
529.40        35.16108
529.83        35.22107
530.27         35.4105
530.71         35.6119
531.15        35.64027
531.59        35.46065
532.03        35.13749
532.46        34.78483
532.90        34.60616
533.34        34.63748
533.78        34.80672
534.22         35.0257
534.66        35.15988
535.09        35.16465
535.53          35.099
535.97        34.98642
536.41        34.85732
536.85        34.73278
537.28        34.61588
537.72        34.54549
538.16         34.4824
538.60        34.59867
539.04        34.73116
539.47        34.86352
539.91        34.98416
540.35        35.09891
540.79         34.9187
541.22        34.93847
541.66        34.97669
542.10        35.21124
542.54        35.05545
542.97        35.40921
543.41        35.57387
543.85        35.78923
544.29        35.97581
544.72        36.11197
545.16        36.26901
545.60        36.43792
546.04        36.48642
546.47        36.50352
546.91        36.85921
547.35        37.45634
547.79        37.82696
548.22        37.92567
548.66        37.94036
549.10        37.94778
549.53        38.19374
549.97        38.68765
550.41        38.74611
550.84        39.07664
551.28        39.29144
551.72        39.60761
552.15        39.88983
552.59        40.13426
553.03        40.36254
553.46        40.54785
553.90        40.67884
554.34        40.75132
554.77        40.80512
555.21        40.88898
555.65        40.90055
556.08        41.10406
556.52        41.27014
556.96        41.45699
557.39        41.67847
557.83        41.91155
558.27        42.05085
558.70        42.09407
559.14        42.13577
559.57           42.17
560.01        42.19681
560.45        42.21874
560.88        42.18207
561.32        42.17511
561.75        42.31661
562.19        42.71189
562.63        42.88161
563.06        42.86074
563.50        42.87634
563.93        42.94654
564.37        43.10983
564.80        43.17413
565.24        43.34431
565.68        43.52115
566.11        43.65616
566.55         43.7666
566.98        43.82573
567.42        43.84684
567.85        44.14469
568.29        44.06526
568.72        44.41558
569.16        44.91698
569.60        45.27428
570.03        45.42274
570.47        45.60955
570.90        45.61783
571.34         46.0724
571.77        45.58401
572.21        46.25483
572.64        46.85549
573.08         47.1492
573.51        46.78643
573.95        47.44827
574.38        47.87255
574.82        48.33251
575.25        48.41846
575.69        48.18807
576.12        48.15612
576.56        47.95592
576.99         47.8178
577.42        48.16139
577.86        48.14268
578.29        48.39559
578.73        48.89099
579.16        48.63999
579.60        48.37991
580.03        47.78555
580.47        47.69398
580.90        47.76206
581.33        47.72052
581.77        47.40826
582.20        48.30178
582.64        48.16761
583.07        47.67028
583.51        47.44421
583.94        46.81956
584.37        46.61139
584.81        46.07373
585.24        46.05902
585.68        46.27192
586.11        46.23175
586.54        46.35496
586.98        45.87445
587.41        45.76865
587.85        45.66553
588.28        45.77147
588.71        45.71198
589.15        45.53594
589.58         45.0611
590.01        45.22395
590.45        45.64177
590.88         45.4057
591.31        45.58645
591.75        44.88215
592.18        45.14788
592.61        45.07302
593.05        45.53583
593.48        45.01699
593.91        46.42095
594.35        46.10779
594.78        46.21489
595.21        46.34834
595.65         46.6665
596.08        46.80308
596.51        46.80536
596.94         46.6581
597.38        46.64993
597.81        46.90481
598.24        47.13855
598.68        48.10096
599.11         48.1832
599.54        49.15945
599.97        48.97002
600.41        49.22277
600.84         49.2993
601.27        50.22412
601.70        50.77922
602.14        51.09754
602.57        51.44314
603.00        51.85871
603.43        52.33648
603.87        52.69524
604.30        53.25705
604.73        53.96221
605.16        53.83895
605.60        54.26584
606.03        54.64799
606.46        55.21679
606.89        56.09715
607.32        56.52901
607.76        56.61744
608.19        57.05952
608.62         57.8626
609.05        57.79557
609.48        58.01581
609.92         58.2404
610.35         58.2787
610.78        59.24138
611.21        60.14449
611.64        59.79159
612.07        60.01364
612.50        60.32553
612.94        60.51582
613.37         60.9145
613.80        61.24316
614.23        61.57088
614.66         62.1664
615.09        62.41412
615.52        62.87307
615.96        63.21966
616.39        63.54979
616.82        63.97788
617.25        63.12495
617.68         63.7196
618.11        64.02847
618.54         64.6409
618.97        64.71658
619.40        64.32507
619.84        64.07762
620.27        63.83179
620.70        64.37412
621.13        65.49576
621.56         65.6914
621.99        65.18336
622.42         65.2219
622.85        65.88808
623.28        66.16161
623.71        65.99623
624.14        66.27007
624.57        66.10079
625.00         65.9251
625.43         66.0693
625.86        65.17294
626.29        65.14158
626.72        64.85544
627.15        64.86487
627.58        65.01384
628.01        65.16733
628.44        65.25664
628.87        64.98572
629.30        64.48653
629.73        63.98695
630.16        63.56709
630.59        63.57275
631.02        63.23872
631.45        62.80711
631.88        62.43054
632.31        62.14587
632.74        61.76811
633.17        61.30544
633.60        60.87379
634.03        60.47918
634.46        60.08987
634.89        59.67569
635.32        59.18997
635.75        58.63312
636.18         58.0395
636.61        57.45564
637.04        56.94628
637.47        56.52557
637.89        56.17354
638.32        55.86044
638.75        55.57058
639.18        55.29116
639.61        55.03595
640.04        54.76569
640.47         54.4142
640.90         53.9796
641.33        53.48391
641.76         53.0148
642.18        52.72321
642.61        52.63104
643.04          52.695
643.47        52.82695
643.90         52.8771
644.33        52.80505
644.76        52.66362
645.18        52.50113
645.61         52.3952
646.04        52.37897
646.47        52.42332
646.90        52.54543
647.33        52.77846
647.75        53.11505
648.18        53.53624
648.61        53.98236
649.04        54.35516
649.47        54.64357
649.89        54.86671
650.32        55.07571
650.75        55.43664
651.18         55.9819
651.61        56.42924
652.03        56.81412
652.46        57.71723
652.89        58.93754
653.32        59.24453
653.74        58.82776
654.17        59.38274
654.60        59.80726
655.03        61.30871
655.46        60.57854
655.88        62.25706
656.31        63.69423
656.74        70.53365
657.16        69.71903
657.59        66.56633
658.02        65.32495
658.45        64.71022
658.87        65.44167
659.30        65.46527
659.73        66.17892
660.15        67.03735
660.58        67.06971
661.01        66.89535
661.44        66.41096
661.86        66.58379
662.29        67.36134
662.72        68.07653
663.14        68.54814
663.57        68.60564
664.00        68.40268
664.42        68.49937
664.85        68.96201
665.27        69.36145
665.70        69.62995
666.13        69.91916
666.55        70.21921
666.98        70.43002
667.41        70.58398
667.83          70.707
668.26        70.78886
668.69        71.06506
669.11        71.09138
669.54        71.23145
669.96        71.36894
670.39        71.51197
670.82        71.67424
671.24        71.91304
671.67        72.24389
672.09        72.48631
672.52        72.81586
672.94         73.1395
673.37        73.43199
673.80        73.34018
674.22        72.99458
674.65        72.91268
675.07        73.16499
675.50        73.47551
675.92        73.76147
676.35        73.95586
676.77        74.02854
677.20        74.01511
677.62        73.97874
678.05        74.00829
678.47        74.12103
678.90        74.36217
679.32        74.57646
679.75        74.80578
680.17        75.01215
680.60        75.21764
681.02        75.41566
681.45        75.50429
681.87        75.52887
682.30         75.6307
682.72        75.80578
683.15        75.91756
683.57        75.98209
684.00        75.99247
684.42        76.05456
684.85        76.33733
685.27        76.49287
685.70        76.80959
686.12        77.10997
686.54        77.33366
686.97        77.45266
687.39        77.46223
687.82        77.40515
688.24        77.45645
688.66        77.59824
689.09        77.62952
689.51        77.57113
689.94         77.5777
690.36        77.66673
690.78        77.75294
691.21        77.84889
691.63        78.02209
692.06        78.26675
692.48        78.68036
692.90         78.6584
693.33        79.31655
693.75        79.11781
694.17        79.20061
694.60        79.16781
695.02        79.03496
695.44        78.82018
695.87        78.73803
696.29        78.77332
696.71        78.59037
697.14         78.4132
697.56        78.80332
697.98        79.46013
698.41        80.77247
698.83        80.08928
699.25         79.9654
699.68        79.75802
700.10         79.8517
700.52        79.73811
700.94         79.8923
701.37        80.09798
701.79        80.28474
702.21         80.3936
702.64        80.45513
703.06        80.51533
703.48        80.64277
703.90        80.85514
704.33        81.12141
704.75        81.35853
705.17        81.39647
705.59        81.20883
706.01        80.85102
706.44        80.50849
706.86         80.4583
707.28        80.74435
707.70         81.3176
708.12         81.9703
708.55        82.25514
708.97        82.14856
709.39        82.02036
709.81        81.95404
710.23         81.8593
710.66        81.78497
711.08        81.83919
711.50        82.01112
711.92        82.16223
712.34        82.26252
712.76        82.49635
713.19        82.84856
713.61        82.60968
714.03        82.91711
714.45         82.8308
714.87        82.77679
715.29        82.85139
715.71        83.08093
716.13        83.41497
716.56        83.72684
716.98        83.93027
717.40        83.95185
717.82         83.8356
718.24         83.6637
718.66        83.56899
719.08        83.59187
719.50        83.69248
719.92        83.82513
720.34        83.91499
720.76        83.93887
721.19        83.91927
721.61        83.89547
722.03        83.88076
722.45        83.90939
722.87        83.96046
723.29        84.02898
723.71        84.08481
724.13        84.14101
724.55        84.23093
724.97         84.3583
725.39        84.54453
725.81        84.79559
726.23        84.90649
726.65        85.22417
727.07        85.44719
727.49        85.66615
727.91        85.86595
728.33        86.01817
728.75        86.06069
729.17        85.99059
729.59         85.8711
730.01        85.71701
730.43        85.58481
730.85        85.56376
731.27        85.58328
731.69        85.57246
732.10        86.37851
732.52        86.28213
732.94        86.48858
733.36        86.50653
733.78        86.53496
734.20        86.60897
734.62        86.55712
735.04        86.34974
735.46        86.40009
735.88        86.48421
736.30        85.75357
736.72        85.94463
737.13        86.10442
737.55        86.59792
737.97        87.04526
738.39        87.29884
738.81        87.13432
739.23        86.73843
739.65        86.80394
740.06        87.16187
740.48        87.60593
740.90        87.35865
741.32        86.55676
741.74        86.91518
742.16        86.80606
742.57         86.8176
742.99        86.91454
743.41        87.08249
743.83        87.22927
744.25        87.31609
744.67        87.24274
745.08         87.2569
745.50         87.1406
745.92        86.98865
746.34        86.78767
746.75         86.5944
747.17        86.47405
747.59        86.44344
748.01        86.59197
748.42        86.84348
748.84        86.86293
749.26        86.73943
749.68        86.80199
750.09        87.06937
750.51        87.53981
750.93        88.00414
751.35        87.82762
751.76         87.1381
752.18        86.81462
752.60        86.90713
753.01        86.92669
753.43        86.88216
753.85        86.94901
754.27        87.08918
754.68        87.55742
755.10        88.27583
755.52        87.69965
755.93        87.80844
756.35        87.66228
756.77        87.48412
757.18        87.49335
757.60        87.64945
758.02        87.95039
758.43        88.19743
758.85        88.43527
759.26        89.04466
759.68        87.95707
760.10        87.93666
760.51        88.16582
760.93        88.23137
761.34        87.14949
761.76        88.19229
762.18        87.85341
762.59        87.36272
763.01        87.30462
763.42        87.78076
763.84         88.2645
764.26        88.62174
764.67        88.50658
765.09        88.17892
765.50        88.68007
765.92        89.77694
766.33        90.02486
766.75        89.30332
767.16        88.59211
767.58        88.10381
768.00        87.68424
768.41         87.5133
768.83        88.00005
769.24        88.88842
769.66        89.24953
770.07        89.04585
770.49        88.92387
770.90        89.01009
771.32        89.24723
771.73        89.55917
772.15        89.67412
772.56         89.6016
772.97        89.51799
773.39        89.36025
773.80        89.42926
774.22        88.97743
774.63        88.53361
775.05        88.06865
775.46        88.01466
775.88        88.39864
776.29        89.12261
776.70        89.88165
777.12         90.2044
777.53        89.98821
777.95        89.32979
778.36          88.565
778.77        88.26524
779.19        88.57018
779.60        89.36301
780.02        90.23908
780.43        90.76688
780.84        90.82167
781.26        90.05941
781.67        88.99335
782.09        89.64462
782.50        91.55228
782.91          91.735
783.33        90.29915
783.74        89.90871
784.15        90.63278
784.57        90.99246
784.98        90.84056
785.39        90.46712
785.81        89.97213
786.22        89.69154
786.63        89.65806
787.04        89.62009
787.46         89.6016
787.87        89.71476
788.28        89.93188
788.70        90.51503
789.11        90.62453
789.52        91.01171
789.93        91.37407
790.35        91.39648
790.76        91.14885
791.17        91.12797
791.58         91.3065
792.00         91.0958
792.41        90.52628
792.82        90.18152
793.23        90.02809
793.65        89.56915
794.06        89.16975
794.47        89.48607
794.88        90.15652
795.29        92.29281
795.71        91.94058
796.12        91.43169
796.53        92.16251
796.94        91.32277
797.35        90.04154
797.76        89.76336
798.18        90.51894
798.59        91.09584
799.00        91.25069
799.41        91.29437
799.82        91.25066
800.23        91.28976
800.64        91.41903
801.06        91.32529
801.47        91.11623
801.88         91.0974
802.29        91.29357
802.70        91.57596
803.11         91.8176
803.52          91.824
803.93        91.57252
804.34        91.17423
804.75        90.74517
805.17        90.49576
805.58        90.50602
805.99        90.51096
806.40        90.67347
806.81        91.26749
807.22        92.80009
807.63        93.29379
808.04        91.43174
808.45        90.95722
808.86         92.1151
809.27        92.97549
809.68        93.42783
810.09        93.70547
810.50        93.72913
810.91        93.42308
811.32        92.92205
811.73        92.43674
812.14        92.04385
812.55        91.77329
812.96        91.63286
813.37        91.46889
813.78        91.34256
814.19        91.59833
814.60         92.0945
815.01        92.33321
815.42          92.259
815.83        92.07137
816.24        91.88746
816.65        91.84821
817.05         92.0223
817.46        92.32008
817.87        92.63371
818.28        92.74055
818.69         92.6067
819.10        92.30104
819.51        91.98558
819.92        91.99755
820.33        92.41904
820.74        92.97382
821.14        93.51196
821.55        94.13345
821.96        94.59848
822.37         94.1596
822.78        93.06324
823.19        92.47771
823.60        92.56498
824.00        92.76931
824.41        92.91039
824.82        93.06178
825.23        93.16349
825.64        93.22883
826.04         93.2905
826.45        93.33914
826.86        93.39635
827.27         93.4465
827.68        93.50749
828.08        93.65528
828.49        93.82104
828.90        94.01324
829.31        94.19191
829.72        94.28226
830.12        94.28316
830.53        94.19338
830.94         94.0255
831.35        93.76109
831.75        93.44808
832.16        93.05031
832.57        92.71836
832.97         92.6826
833.38        92.95064
833.79        93.44502
834.20        93.97554
834.60        94.23398
835.01        94.16467
835.42        93.87103
835.82        93.46496
836.23        93.07529
836.64         92.8017
837.04        92.59775
837.45        92.52466
837.86        92.73756
838.26        93.25749
838.67        94.00661
839.08        94.76729
839.48         95.1012
839.89        94.89414
840.29        94.30214
840.70         93.6565
841.11        93.36287
841.51        93.54223
841.92         93.9967
842.33        94.65401
842.73        95.39085
843.14        95.99619
843.54         96.5845
843.95        96.92568
844.35         96.7468
844.76        96.05105
845.17        94.96516
845.57        93.83681
845.98        93.23511
846.38        93.28844
846.79        93.84264
847.19         94.7296
847.60        95.44008
848.00        95.85722
848.41         96.0306
848.81         96.1016
849.22        96.20613
849.62        96.44096
850.03        96.66771
850.43        96.88044
850.84        96.93366
851.24        96.87407
851.65        96.69743
852.05        96.52608
852.46        96.40823
852.86        96.37617
853.27        96.42954
853.67         96.4921
854.07        96.61302
854.48        96.74303
854.88        96.91019
855.29        96.99127
855.69        96.96549
856.10        96.71613
856.50        96.37158
856.90        95.97311
857.31        95.65736
857.71        95.57366
858.12        95.62375
858.52        95.79824
858.92        95.96106
859.33        96.03941
859.73         96.1142
860.13         96.1859
860.54        96.26836
860.94        96.43954
861.34        96.60577
861.75        96.65095
862.15        96.51831
862.55        96.15679
862.96        95.63818
863.36        95.08025
863.76        94.62034
864.17        94.32245
864.57        94.17968
864.97        94.20802
865.38        94.39993
865.78        94.77863
866.18        95.25992
866.58        95.70327
866.99        95.86057
867.39        95.72373
867.79        95.31879
868.19        94.66154
868.60        93.76585
869.00         92.6671
869.40        91.41984
869.80        90.33379
870.21        89.91097
870.61         90.3103
871.01        91.32066
871.41        92.47626
871.81        93.01978
872.22        92.77335
872.62        91.99529
873.02        90.99342
873.42        90.34894
873.82        90.17255
874.22        90.10767
874.63        90.18333
875.03        90.56136
875.43        91.16209
875.83        92.22511
876.23        92.75732
876.63        92.90381
877.03        92.45939
877.44        91.36655
877.84        108.6346
878.24        90.40679
878.64        90.89949
879.04        92.38054
879.44        91.76934
879.84        90.92484
880.24        91.23647
880.64        90.06654
881.04        87.75407
881.44        86.34377
881.84        86.39085
882.24        87.47737
882.65        88.92712
883.05        89.70547
883.45        89.42526
883.85         88.5312
884.25        87.56198
884.65        87.22296
885.05        87.69498
885.45         88.7163
885.85        89.90431
886.25        90.64389
886.65        90.72958
887.05        90.35643
887.45        89.80783
887.85        89.49011
888.25        89.52892
888.65        89.82222
889.04        90.19254
889.44        90.25299
889.84        89.95712
890.24        89.41341
890.64        88.90086
891.04         88.8258
891.44         89.2196
891.84        89.90018
892.24        90.50609
892.64        90.43132
893.04        89.58212
893.44        88.28481
893.83        86.82924
894.23        85.66743
894.63        84.91602
895.03         84.4338
895.43        84.34538
895.83        84.86147
896.23         85.9342
896.63        87.47705
897.02        89.03279
897.42        89.73335
897.82        89.39286
898.22        88.25432
898.62         86.7964
899.01        85.77917
899.41        85.46706
899.81         85.6224
900.21        86.08934
900.61        86.62271
901.00        87.10214
901.40        87.58749
901.80        88.02292
902.20        88.27524
902.59        88.33551
902.99        88.21795
903.39         87.9515
903.79        87.61092
904.18        87.24157
904.58        86.86295
904.98         86.6599
905.38        86.91635
905.77        87.63005
906.17        88.72866
906.57        89.80469
906.96        90.24249
907.36        89.88642
907.76        88.90195
908.15        87.76743
908.55        87.20232
908.95        87.40031
909.34        88.19594
909.74        89.08392
910.14         89.2006
910.53        88.34148
910.93        86.88022
911.33         85.4292
911.72        84.94357
912.12        85.59177
912.52        86.94798
912.91        88.49812
913.31        89.39406
913.70        89.46207
914.10        88.96349
914.49        88.04386
914.89        87.03866
915.29        86.18976
915.68        85.41608
916.08        84.99374
916.47        85.26475
916.87        86.19007
917.26        87.63458
917.66        89.13616
918.05        89.95672
918.45        89.86932
918.84        89.13143
919.24        87.99312
919.64        86.91051
920.03        86.09495
920.42        85.44992
920.82        85.14983
921.21        85.40335
921.61        86.14203
922.00        87.34163
922.40        88.56013
922.79         89.2823
923.19        89.30117
923.58        88.68642
923.98        87.62919
924.37        86.74977
924.77        86.40424
925.16        85.00207
925.55        85.31319
925.95        85.22597
926.34        85.56147
926.74        86.15939
927.13        86.93819
927.52        87.66306
927.92        88.23685
928.31         88.7687
928.70        89.09861
929.10        88.99663
929.49        88.47251
929.89        87.57278
930.28        86.72558
930.67        86.60973
931.07        87.31974
931.46        88.69419
931.85        90.17271
932.24        90.91077
932.64        90.68211
933.03        89.65313
933.42        88.23277
933.82        87.30769
934.21        87.15499
934.60        87.53828
934.99        87.91129
935.39        87.61302
935.78        86.53561
936.17        84.67239
936.56        82.39647
936.96        82.44715
937.35        82.48817
937.74        84.19453
938.13        86.04678
938.53        87.34595
938.92        87.99813
939.31        88.25043
939.70         88.1729
940.09        87.83492
940.49        87.35069
940.88        86.72568
941.27        86.19625
941.66        86.15201
942.05        86.62865
942.44        87.50778
942.84        88.52965
943.23        89.26085
943.62        89.52773
944.01        89.48491
944.40        89.15876
944.79        88.60663
945.18        87.90279
945.57        86.99776
945.97        86.21919
946.36        86.13716
946.75        86.86909
947.14        88.19716
947.53        89.54971
947.92        90.13479
948.31         89.8242
948.70        88.85891
949.09        87.62408
949.48        86.81158
949.87        86.65415
950.26        86.94202
950.65        87.45842
951.04        87.84243
951.43         87.9521
951.82        87.91052
952.21        87.76148
952.60        87.55234
952.99        87.32311
953.38        87.05251
953.77        86.76337
954.16        86.51135
954.55        86.32363
954.94        86.21183
955.33        86.21306
955.72        86.36818
956.11         86.6839
956.50        87.15074
956.89        87.68114
957.28        88.10477
957.66        88.34007
958.05        88.33367
958.44        88.19549
958.83        88.07829
959.22        88.01523
959.61        88.00385
960.00        87.87079
960.39        87.32921
960.78        86.36985
961.16        85.08788
961.55        83.94866
961.94        83.51752
962.33        83.88891
962.72        84.89785
963.11        86.04947
963.49        86.50552
963.88        85.95126
964.27        84.69446
964.66        83.25059
965.04        82.48071
965.43        82.61608
965.82        83.40258
966.21        84.49072
966.60        85.31163
966.98          85.679
967.37        85.72922
967.76        85.65081
968.15         85.7128
968.53        86.00588
968.92        86.33791
969.31        86.57647
969.69         86.5294
970.08        86.10061
970.47        85.42824
970.86        84.65539
971.24        83.95978
971.63        83.47303
972.02        83.19814
972.40        83.10622
972.79        83.13232
973.17        83.28515
973.56        83.43693
973.95        83.74892
974.33        84.46577
974.72        85.44381
975.11        86.58173
975.49        87.41802
975.88        87.25375
976.26        86.03199
976.65        84.05946
977.04         81.8913
977.42        80.49563
977.81        80.18592
978.19        80.67608
978.58        81.75788
978.96        83.10771
979.35        84.40982
979.74        85.85399
980.12        87.05222
980.51        87.04509
980.89        85.86794
981.28        83.77782
981.66        81.69686
982.05        80.97921
982.43         81.7893
982.82        83.74097
983.20        86.16116
983.59        87.47021
983.97        87.27384
984.35        85.88845
984.74        84.06419
985.12        82.91048
985.51        82.72668
985.89        83.23039
986.28        83.89082
986.66        83.89512
987.04        82.93039
987.43        81.53562
987.81        80.09867
988.20        79.03804
988.58        78.37087
988.96        77.89062
989.35        77.61363
989.73        77.83195
990.12        78.46672
990.50        79.52441
990.88        80.45277
991.27        80.67079
991.65        80.24345
992.03        79.28083
992.42        78.31371
992.80        78.44154
993.18         79.9004
993.56        82.15988
993.95        84.42385
994.33        85.93565
994.71        86.37391
995.10        85.99933
995.48        85.09743
995.86        84.02219
996.24        82.94389
996.63        81.80029
997.01         80.5583
997.39        79.25699
997.77        78.11357
998.15        77.25877
998.54        77.05489
998.92        77.83707
999.30        79.72541
999.68        82.96496
1000.06         86.7866
1000.45        88.21964
1000.83          86.104
1001.21        81.70263
1001.59        77.48344
1001.97        75.45421
1002.35        75.53181
1002.73        77.14119
1003.12        79.43884
1003.50         80.7009
1003.88          79.932
1004.26        77.76421
1004.64        75.17319
1005.02        73.44711
1005.40        72.95993
1005.78        73.37689
1006.16        74.37464
1006.54        75.29765
1006.92        75.76606
1007.30        75.88178
1007.69        75.98265
1008.07        76.62899
1008.45        78.00523
1008.83        80.41695
1009.21        83.43015
1009.59        84.63969
1009.97        82.05728
1010.35        75.93613
1010.73        69.92901
1011.11        68.77852
1011.49        72.59406
1011.86        79.63172
1012.24        86.13776
1012.62        88.23802
1013.00        85.65464
1013.38        80.00541
1013.76        73.30574
1014.14        69.07825
1014.52        68.46427
1014.90        70.31136
1015.28        73.25036
1015.66        75.00048
1016.04        74.70747
1016.41        73.16035
1016.79        70.55386
1017.17        67.87473
1017.55        65.99839
1017.93        64.61676
1018.31        64.01096
1018.69        64.55273
1019.06        66.08936
1019.44        68.47234
1019.82        71.05773
1020.20        71.98256
1020.58        70.50678
1020.95        67.20158
1021.33        63.05817
1021.71        58.83242
1022.09        54.28456
1022.46        47.47618
1022.84        39.46465
1023.22         41.1937
1023.60        54.34763
1023.97         66.3802
1024.35        72.62903
1024.73        74.50469
