SpectraSmart Spectrum 2.9.0.0
--------- Device Information -----------
Spectrum Name :  反射率_0
Saving Time :  2024/04/20 00:23:55
Spectro-Module Model Name : SE2030-DUVN
Spectro-Module Serial Number : OS361AC55029948
Wavelength Start : 200
Wavelength End : 1025
Wavelength Unit : Wavelength(nm)
Spectrum Unit : Reflectance(%)
-----------Spectrum Setting ------------
Integration Time : 30ms
Average : 10
Boxcar : 0
Background removal :  enabled
linearity correction :  enabled
SC :  disabled
Intensity correction :  disabled
DWT denoise :  enabled
savitzky-golay :  disabled
FFT :  disabled
Running average :  disabled
Kalman :  disabled
High pass :  disabled
---------------BEGIN--------------------
Wavelength(nm)             Reflectance(%)
200.29               0
200.75        53.44971
201.21        55.66462
201.67        60.63383
202.13         67.6693
202.58        75.98431
203.04         85.8397
203.50        94.31612
203.96        94.87897
204.42        88.04758
204.88        78.48043
205.34         70.1032
205.80        64.42793
206.26        60.39116
206.72        56.56014
207.18        52.87603
207.64        51.32307
208.10        53.72486
208.55        59.56012
209.01        64.66981
209.47        66.28866
209.93        64.84072
210.39         61.5303
210.85        57.77764
211.31        55.07855
211.77        53.51009
212.23        52.39106
212.69        51.78286
213.14        52.18738
213.60        53.09371
214.06         54.6652
214.52        55.98692
214.98        56.54849
215.44        56.47321
215.90        55.58652
216.36        54.74044
216.81        55.81623
217.27        59.04554
217.73        63.71447
218.19        67.34651
218.65        66.61481
219.11        60.98631
219.57        50.91698
220.02        38.97219
220.48         32.3197
220.94        33.56924
221.40        41.37195
221.86        51.41445
222.32        56.89579
222.77        56.14534
223.23        51.51014
223.69        46.17797
224.15         44.6369
224.61         47.0712
225.06        51.08566
225.52        54.61301
225.98        56.12931
226.44        55.61732
226.90        53.84983
227.36        51.55207
227.81         49.8554
228.27        49.47117
228.73        49.87659
229.19        50.54858
229.65        50.89761
230.10        50.81439
230.56        50.53455
231.02        50.36135
231.48        50.68286
231.93        51.43472
232.39        52.44082
232.85        53.22935
233.31        53.11545
233.77        52.00785
234.22        50.17269
234.68        48.13358
235.14        46.72243
235.60        46.25428
236.05        46.52354
236.51        47.29372
236.97        48.19457
237.43        49.15028
237.88        50.50101
238.34        52.12935
238.80        53.78934
239.26        55.04946
239.71        55.59521
240.17        55.50983
240.63        55.68378
241.08        56.43273
241.54        57.56865
242.00        58.50489
242.46        57.97569
242.91        55.32296
243.37        49.92437
243.83         42.3648
244.28        38.14056
244.74        42.48081
245.20        54.05954
245.66        65.24744
246.11        69.85696
246.57        67.49666
247.03        58.79618
247.48        45.94881
247.94        41.81792
248.40        48.48402
248.85        57.14353
249.31         63.5714
249.77        66.97568
250.22         68.2076
250.68        68.29012
251.14        67.47099
251.59        65.97457
252.05        64.26149
252.51        62.38589
252.96        60.24903
253.42        58.08869
253.88        56.31232
254.33         55.1873
254.79        55.87405
255.25        59.10943
255.70        64.21866
256.16        70.08195
256.62        74.97253
257.07        77.00424
257.53        76.34867
257.99        73.77267
258.44        70.04819
258.90        67.04844
259.35        64.81821
259.81         63.5002
260.27        62.35241
260.72        60.71219
261.18        58.79473
261.63        56.42804
262.09        54.43367
262.55        53.42902
263.00        53.33084
263.46        53.92141
263.91        54.27805
264.37        53.59832
264.83        51.87866
265.28        49.45584
265.74         47.3046
266.19        46.33879
266.65        46.69577
267.11        47.83476
267.56        49.04284
268.02        49.30334
268.47        48.42508
268.93        46.76168
269.38        44.73571
269.84        43.25795
270.30        42.56622
270.75        42.40101
271.21        42.40952
271.66        42.05669
272.12        41.20017
272.57         40.0213
273.03        38.80455
273.48        37.88467
273.94        37.39316
274.39        37.17156
274.85        37.00896
275.31        36.57159
275.76        35.78215
276.22        34.77758
276.67        33.77563
277.13        33.20329
277.58        33.05721
278.04        33.21814
278.49        33.32614
278.95        32.94781
279.40        32.00208
279.86         30.7536
280.31        29.47421
280.77        28.68313
281.22        28.40291
281.68        28.48375
282.13        28.67911
282.59        28.66973
283.04         28.3658
283.50        27.91223
283.95        27.39717
284.41        26.98216
284.86        26.68967
285.32        26.48352
285.77        26.33131
286.22        26.25972
286.68        26.25313
287.13        26.28804
287.59        26.32442
288.04        26.27143
288.50        26.13181
288.95        25.89693
289.41        25.63214
289.86        25.36278
290.32        25.15291
290.77        24.99089
291.22        24.89792
291.68        24.86828
292.13        24.90786
292.59        25.03712
293.04        25.28331
293.50        25.70042
293.95        26.27611
294.40        26.97413
294.86        27.72556
295.31        28.43556
295.77        29.07707
296.22        29.67112
296.68        30.24321
297.13        30.81569
297.58        31.41311
298.04        32.03688
298.49        32.69577
298.95         33.4459
299.40        34.27172
299.85        35.14499
300.31        36.03077
300.76        36.86798
301.21        37.62932
301.67        38.34983
302.12        38.97178
302.58        39.47937
303.03        39.86237
303.48        40.16127
303.94        40.49176
304.39        40.98638
304.84        41.67292
305.30        42.48878
305.75        43.29642
306.20        43.91121
306.66        44.30417
307.11         44.5124
307.57        44.61887
308.02        44.66843
308.47        44.71842
308.93         44.7498
309.38        44.78955
309.83        44.93797
310.29        45.19591
310.74        45.53921
311.19        45.84835
311.65        45.92456
312.10        45.72829
312.55        45.32247
313.00        44.86586
313.46        44.60449
313.91        44.57704
314.36        44.72507
314.82        44.90643
315.27        44.91697
315.72        44.69086
316.18        44.31002
316.63        43.87763
317.08        43.56068
317.53        43.39857
317.99         43.3303
318.44        43.28054
318.89         43.1187
319.35        42.81195
319.80        42.40707
320.25        41.97922
320.70        41.64506
321.16        41.43003
321.61         41.3058
322.06        41.19649
322.51        40.98537
322.97        40.63633
323.42         40.1917
323.87        39.72496
324.32        39.36282
324.78        39.12938
325.23        38.99939
325.68        38.87931
326.13        38.62086
326.59        38.19144
327.04        37.66967
327.49        37.15123
327.94         36.7939
328.39        36.63847
328.85        36.61137
329.30        36.69077
329.75        36.77675
330.20        36.81785
330.66        36.81552
331.11        36.75579
331.56        36.55713
332.01        36.21349
332.46        35.73882
332.92         35.2108
333.37        34.78989
333.82        34.52852
334.27        34.41399
334.72        34.39145
335.17        34.35217
335.63        34.24926
336.08        34.11961
336.53         34.0107
336.98        34.01762
337.43        34.15051
337.88        34.36884
338.34        34.53985
338.79         34.5016
339.24        34.20576
339.69        33.70939
340.14        33.18443
340.59        32.91892
341.05        32.97068
341.50        33.25584
341.95        33.60327
342.40        33.74537
342.85        33.61533
343.30        33.30834
343.75        32.91907
344.20        32.60201
344.66        32.40768
345.11        32.26009
345.56        32.16507
346.01        32.13218
346.46        32.14167
346.91        32.20871
347.36        32.22866
347.81        32.02745
348.26        31.59722
348.72        31.02051
349.17         30.4441
349.62        30.19038
350.07        30.32803
350.52        30.73616
350.97        31.24764
351.42        31.61419
351.87        31.75118
352.32        31.72005
352.77         31.5405
353.22        31.24841
353.67        30.88277
354.13        30.45709
354.58        30.00677
355.03         29.6328
355.48        29.36843
355.93        29.20827
356.38         29.1398
356.83        29.12842
357.28         29.1447
357.73        29.17501
358.18         29.1866
358.63         29.1309
359.08        28.99249
359.53        28.78593
359.98         28.5073
360.43        28.15402
360.88        27.74507
361.33        27.29403
361.78        26.87718
362.23        26.61681
362.68        26.53131
363.13        26.57493
363.58        26.65345
364.03         26.6171
364.48        26.42159
364.93        26.10577
365.38        25.70858
365.83        25.30608
366.28        24.93742
366.73        24.58551
367.18        24.26786
367.63        24.01119
368.08        23.81353
368.53        23.67163
368.98        23.55296
369.43        23.39565
369.88        23.18714
370.33        22.95093
370.78        22.69951
371.23        22.46089
371.68        22.25204
372.13        22.05651
372.58        21.91586
373.03        21.90084
373.48         22.0035
373.93        22.18529
374.38          22.337
374.83         22.2927
375.28        22.02094
375.72        21.56836
376.17        21.04896
376.62        20.61082
377.07        20.31672
377.52        20.13429
377.97        20.04719
378.42        20.02428
378.87        20.04002
379.32        20.09518
379.77        20.16628
380.22        20.21301
380.67        20.22135
381.11         20.1976
381.56        20.11796
382.01        19.97182
382.46        19.76567
382.91        19.50211
383.36        19.24554
383.81        19.09016
384.26        19.05221
384.71        19.11772
385.15        19.18926
385.60        19.11825
386.05        18.87887
386.50        18.51397
386.95        18.15807
387.40        18.02374
387.85        18.14393
388.29        18.43895
388.74        18.74425
389.19        18.82254
389.64        18.63129
390.09        18.24212
390.54         17.8099
390.98        17.57569
391.43        17.61005
391.88        17.81713
392.33        18.04483
392.78        18.07585
393.23        17.88089
393.67        17.53736
394.12        17.20053
394.57        17.02014
395.02        17.02791
395.47        17.16728
395.91        17.35798
396.36          17.442
396.81        17.38175
397.26        17.22578
397.71        17.05415
398.15        16.96853
398.60        17.01241
399.05        17.13684
399.50        17.27325
399.95        17.32824
400.39        17.28083
400.84        17.15534
401.29        17.02242
401.74        17.00844
402.18         17.1445
402.63        17.37717
403.08        17.59471
403.53        17.62099
403.97        17.42629
404.42        17.08415
404.87        16.72123
405.32        16.54423
405.76        16.60269
406.21        16.82791
406.66        17.11666
407.11        17.30706
407.55        17.35344
408.00        17.30786
408.45        17.21583
408.90        17.11132
409.34        17.03771
409.79        17.05684
410.24        17.12595
410.68        17.11131
411.13        17.00796
411.58        16.89592
412.03        16.80006
412.47        16.73651
412.92         16.7137
413.37        16.71748
413.81        16.75719
414.26        16.86079
414.71        17.01678
415.15        17.22428
415.60        17.39546
416.05        17.41459
416.49         17.2579
416.94        16.96496
417.39         16.6444
417.83        16.47355
418.28        16.50078
418.73        16.66815
419.17          16.879
419.62        16.96856
420.07        16.90348
420.51        16.74114
420.96        16.55613
421.41        16.44349
421.85        16.42558
422.30        16.47623
422.74        16.56533
423.19        16.68135
423.64        16.80356
424.08        16.94591
424.53        17.06737
424.98        17.12211
425.42        17.10176
425.87        17.01862
426.31        16.89874
426.76        16.79482
427.21         16.7135
427.65         16.6372
428.10        16.58871
428.54        16.57823
428.99        16.61002
429.44        16.75716
429.88        16.92267
430.33        16.83993
430.77        16.56442
431.22        16.42859
431.66        16.47999
432.11        16.60194
432.56        16.77064
433.00        17.06576
433.45        17.31295
433.89        17.25789
434.34        17.01261
434.78        16.74706
435.23        16.46533
435.67        17.29753
436.12        16.82718
436.57        16.84456
437.01        16.68057
437.46        16.61579
437.90        16.65625
438.35        16.67189
438.79        16.64014
439.24        16.59953
439.68        16.55051
440.13        16.35057
440.57        16.10732
441.02        16.25076
441.46        16.62809
441.91        16.72398
442.35        16.12491
442.80        15.92744
443.24        15.96614
443.69        15.89469
444.13        15.71792
444.58         15.6256
445.02        15.63443
445.47        15.73497
445.91         15.8646
446.36        15.88518
446.80        15.77133
447.24        15.58735
447.69          15.404
448.13        15.29472
448.58        15.28732
449.02        15.35144
449.47         15.4395
449.91        15.46893
450.36        15.42416
450.80        15.33077
451.25        15.23156
451.69        15.17473
452.13        15.17856
452.58        15.21589
453.02        15.27035
453.47         15.3186
453.91        15.35214
454.36         15.3789
454.80        15.38803
455.24        15.35979
455.69        15.30112
456.13        15.20268
456.58        15.10876
457.02        15.07726
457.46        15.11477
457.91        15.16828
458.35        15.21107
458.79         15.2393
459.24        15.24137
459.68        15.22261
460.13        15.23707
460.57         15.2218
461.01        15.16677
461.46        15.47925
461.90        15.55066
462.34        15.38306
462.79        15.48787
463.23        15.35044
463.68        15.22591
464.12        15.12263
464.56        15.17762
465.01        15.27477
465.45        15.37598
465.89        15.44001
466.34        15.45961
466.78        15.39683
467.22        15.29881
467.67        15.35122
468.11        15.51891
468.55        15.49679
468.99         15.3114
469.44        15.25613
469.88        15.34452
470.32        15.41461
470.77        15.43513
471.21         15.4358
471.65        15.41023
472.10        15.35383
472.54        15.28901
472.98        15.28555
473.42        15.35178
473.87        15.42277
474.31        15.47937
474.75        15.58579
475.20        15.70224
475.64         15.6665
476.08        15.53318
476.52        15.52425
476.97        15.65346
477.41        15.81909
477.85         15.9634
478.29        16.04011
478.74        16.03415
479.18        15.93313
479.62        15.81586
480.06        15.80947
480.50        15.91583
480.95        16.02328
481.39        16.08556
481.83        16.10895
482.27        16.08517
482.72        16.01055
483.16        15.92345
483.60        15.90193
484.04        15.95923
484.48        16.10129
484.93        16.34837
485.37        16.49692
485.81        16.50356
486.25        16.87459
486.69        17.43646
487.14         16.7738
487.58        16.75238
488.02        17.49787
488.46         17.0611
488.90        17.20461
489.34        17.16683
489.79        17.31671
490.23        17.57033
490.67        17.67714
491.11         17.6412
491.55        17.56468
491.99        17.49193
492.43        17.45754
492.88        17.48613
493.32        17.55268
493.76        17.65982
494.20         17.8202
494.64        18.02729
495.08        18.26898
495.52        18.50878
495.96        18.70559
496.41        18.84934
496.85         18.9131
497.29        18.93185
497.73        19.05539
498.17        19.26828
498.61        19.36127
499.05        19.34805
499.49        19.44683
499.93        19.66933
500.37        19.84806
500.82        19.97392
501.26        20.19644
501.70        20.46212
502.14        20.50079
502.58        20.35983
503.02        20.34806
503.46        20.48869
503.90        20.62078
504.34        20.70547
504.78        20.74917
505.22        20.74212
505.66        20.69384
506.10        20.63281
506.54        20.60052
506.98        20.61393
507.42        20.66623
507.86        20.75347
508.30         20.8672
508.74        20.99687
509.18        21.13629
509.62         21.2776
510.06         21.4078
510.50        21.52162
510.94        21.62437
511.38        21.69537
511.82        21.70484
512.26        21.65412
512.70        21.55199
513.14        21.45862
513.58        21.46551
514.02        21.58052
514.46        21.77709
514.90        21.97839
515.34        21.99953
515.78         21.8458
516.22        21.63594
516.66        21.46826
517.10        21.15486
517.54        20.72686
517.98        21.29276
518.42        21.17997
518.86        21.44898
519.30        21.57904
519.74        21.73404
520.18        21.87127
520.62        21.90071
521.06        21.83126
521.50         21.6721
521.93        21.47732
522.37        21.34696
522.81         21.3073
523.25        21.33411
523.69        21.39554
524.13        21.43935
524.57        21.44562
525.01         21.4264
525.45        21.39075
525.89        21.35128
526.32        21.31157
526.76        21.26923
527.20        21.20861
527.64        21.11194
528.08        20.97957
528.52        20.81792
528.96        20.66644
529.40        20.58203
529.83        20.57233
530.27         20.6264
530.71        20.68247
531.15        20.64346
531.59        20.49465
532.03        20.26972
532.46         20.0436
532.90        19.95095
533.34         20.0098
533.78        20.17143
534.22        20.36039
534.66         20.4615
535.09        20.44068
535.53        20.34201
535.97         20.2028
536.41        20.07898
536.85        19.99416
537.28        19.94165
537.72        19.92665
538.16        19.89706
538.60          19.946
539.04         19.9892
539.47        20.03893
539.91        20.11911
540.35        20.23813
540.79        20.21713
541.22        20.31461
541.66        20.38301
542.10        20.51703
542.54        20.38684
542.97        20.54431
543.41         20.6297
543.85        20.79144
544.29        20.96835
544.72         21.1199
545.16        21.24492
545.60        21.33183
546.04        21.32059
546.47        21.28695
546.91        21.49083
547.35         21.8852
547.79        22.16136
548.22         22.2815
548.66        22.37819
549.10        22.47119
549.53        22.62591
549.97        22.86055
550.41        22.86641
550.84        23.07203
551.28        23.19502
551.72        23.37633
552.15        23.58353
552.59        23.81453
553.03        24.06582
553.46        24.29135
553.90         24.4454
554.34        24.51863
554.77        24.52685
555.21        24.51851
555.65        24.55847
556.08        24.66031
556.52        24.80399
556.96        24.95957
557.39        25.11203
557.83        25.24037
558.27        25.28959
558.70        25.28538
559.14        25.31835
559.57        25.39144
560.01        25.49425
560.45        25.58929
560.88        25.58703
561.32        25.53596
561.75        25.51937
562.19        25.65194
562.63        25.74653
563.06         25.8278
563.50        25.95348
563.93        26.10022
564.37        26.27966
564.80        26.36127
565.24        26.46119
565.68        26.53235
566.11        26.59986
566.55        26.68797
566.98         26.7219
567.42        26.70842
567.85         27.0354
568.29        26.99017
568.72        27.30537
569.16        27.69294
569.60        27.95928
570.03        28.06501
570.47        28.13369
570.90        28.06161
571.34        28.41698
571.77        28.30161
572.21        28.69477
572.64        28.75966
573.08        29.16646
573.51         29.1492
573.95        29.59666
574.38        29.90889
574.82        29.93323
575.25         30.0537
575.69        29.82714
576.12        29.75732
576.56        29.76955
576.99        29.98036
577.42        30.16282
577.86        30.06945
578.29        30.16749
578.73        30.53134
579.16        29.98712
579.60        29.94794
580.03         29.7278
580.47        29.85819
580.90        29.25865
581.33        29.35542
581.77         29.4121
582.20         29.7948
582.64        29.48906
583.07        29.14612
583.51        29.08529
583.94        28.61864
584.37        28.37769
584.81        28.21273
585.24        28.16754
585.68        28.21752
586.11        28.12586
586.54        28.12078
586.98        28.02094
587.41         27.9352
587.85        27.86864
588.28        27.81265
588.71        27.70822
589.15        27.61088
589.58        27.18848
590.01        27.46445
590.45        27.62722
590.88        27.57534
591.31        27.69048
591.75        27.44087
592.18        27.57856
592.61        27.33724
593.05        27.75512
593.48        27.67614
593.91        28.14981
594.35        27.82701
594.78        28.00336
595.21        28.17386
595.65        28.49061
596.08        28.49158
596.51        28.53445
596.94        28.57449
597.38        28.66183
597.81        28.88528
598.24        29.16488
598.68        29.66976
599.11        30.05313
599.54        30.68556
599.97        30.36839
600.41         30.6766
600.84        31.47021
601.27        31.75793
601.70        32.25172
602.14        32.52504
602.57        32.93192
603.00        33.45699
603.43        33.88816
603.87        34.22272
604.30         34.6394
604.73        35.16903
605.16        35.39991
605.60        35.79022
606.03        36.39739
606.46        37.18461
606.89        37.70432
607.32         37.9741
607.76        38.21018
608.19        38.73448
608.62        39.18756
609.05         39.4951
609.48        39.76583
609.92        40.00566
610.35        40.15649
610.78        41.28601
611.21        41.66243
611.64          41.611
612.07        42.17682
612.50        42.39929
612.94        42.47081
613.37        43.07833
613.80        43.45978
614.23        43.84642
614.66        44.35202
615.09        44.56053
615.52        44.97758
615.96        45.38378
616.39        45.72595
616.82        46.07278
617.25        45.75951
617.68        46.26581
618.11         46.6003
618.54        47.08145
618.97        47.13814
619.40        46.81465
619.84        47.03295
620.27        46.82011
620.70        47.34134
621.13        48.11259
621.56        48.36078
621.99        48.18259
622.42        48.28433
622.85        48.72288
623.28        48.84662
623.71        48.62083
624.14         48.9849
624.57        48.47425
625.00         48.5789
625.43        48.64175
625.86        48.02724
626.29        48.18657
626.72        47.97987
627.15        47.88043
627.58        47.81503
628.01        47.74588
628.44        47.57973
628.87        47.28381
629.30        46.87891
629.73        46.42229
630.16        46.06556
630.59        45.80595
631.02         45.5119
631.45        45.14647
631.88        44.74401
632.31        44.29082
632.74        43.74977
633.17        43.15536
633.60        42.59112
634.03        42.07912
634.46        41.60182
634.89        41.13716
635.32        40.64737
635.75        40.12783
636.18        39.60046
636.61        39.09194
637.04        38.63718
637.47        38.24008
637.89        37.88585
638.32        37.54693
638.75        37.20244
639.18        36.84721
639.61        36.49662
640.04        36.14903
640.47        35.79813
640.90        35.44898
641.33        35.10443
641.76        34.79791
642.18        34.58722
642.61        34.47627
643.04        34.45147
643.47        34.46743
643.90        34.44666
644.33        34.37278
644.76        34.27325
645.18        34.18756
645.61        34.18375
646.04        34.28069
646.47        34.45386
646.90        34.69145
647.33        34.97467
647.75        35.29182
648.18        35.64558
648.61        36.01382
649.04        36.36328
649.47         36.6958
649.89        37.00267
650.32        37.32901
650.75        37.80922
651.18        38.45051
651.61        39.05929
652.03        39.62597
652.46        40.45769
652.89         41.4835
653.32        41.99276
653.74        42.06541
654.17        43.02811
654.60        43.60513
655.03        44.84709
655.46        44.49694
655.88        46.28119
656.31        47.48075
656.74        53.27414
657.16        51.21634
657.59        48.23153
658.02        48.68705
658.45         49.2757
658.87        50.22593
659.30        50.92957
659.73        51.28179
660.15        52.57545
660.58         52.3639
661.01        52.46408
661.44        52.36039
661.86        52.67802
662.29        53.39504
662.72        54.18547
663.14        54.88399
663.57        55.06513
664.00        54.87796
664.42        55.02613
664.85        55.58146
665.27        56.08559
665.70        56.45329
666.13        56.80154
666.55        57.11327
666.98         57.3499
667.41        57.54208
667.83         57.7324
668.26        57.92621
668.69        58.13552
669.11        58.35338
669.54        58.52046
669.96        58.62835
670.39        58.81463
670.82        58.97647
671.24        59.06997
671.67        59.42075
672.09        59.72709
672.52        60.02902
672.94        60.16532
673.37        60.14709
673.80        60.07112
674.22        60.01925
674.65        60.04894
675.07        60.19695
675.50         60.4845
675.92        60.78447
676.35        60.97915
676.77        61.02302
677.20        60.97207
677.62        60.88826
678.05        60.87945
678.47        60.97185
678.90        61.13315
679.32        61.33493
679.75        61.53341
680.17        61.70687
680.60        61.88487
681.02        62.06294
681.45        62.16858
681.87        62.23518
682.30        62.36656
682.72        62.55078
683.15        62.65494
683.57        62.68837
684.00        62.66382
684.42        62.74232
684.85        62.84239
685.27        63.00416
685.70        63.22988
686.12        63.45314
686.54        63.59212
686.97         63.6245
687.39        63.55242
687.82         63.4364
688.24        63.47155
688.66        63.64962
689.09        63.78136
689.51        63.84199
689.94        63.91076
690.36        63.99325
690.78         63.9744
691.21        63.89232
691.63        63.99431
692.06        64.32388
692.48        64.37196
692.90        64.67714
693.33        65.08772
693.75        64.70786
694.17        64.75731
694.60        64.91285
695.02        64.87406
695.44        64.62782
695.87         64.6277
696.29         64.8384
696.71        64.60236
697.14        64.16547
697.56         64.5821
697.98        65.58978
698.41        66.41174
698.83        65.92631
699.25        65.67207
699.68        65.49393
700.10        65.36491
700.52        65.34589
700.94        65.45502
701.37        65.63674
701.79        65.82999
702.21        65.97926
702.64        66.10514
703.06        66.20719
703.48        66.29762
703.90        66.38261
704.33        66.44195
704.75        66.47211
705.17          66.446
705.59        66.36881
706.01        66.26015
706.44        66.17596
706.86        66.20161
707.28        66.34502
707.70        66.57034
708.12        66.82762
708.55        67.03014
708.97        67.14904
709.39        67.21581
709.81        67.22382
710.23        67.16972
710.66        67.06903
711.08        66.93108
711.50        66.80537
711.92        66.78396
712.34        66.88657
712.76        67.09769
713.19        67.33495
713.61        67.51142
714.03        67.56963
714.45        67.53864
714.87         67.4928
715.29        67.54984
715.71        67.73216
716.13        67.99894
716.56        68.25526
716.98        68.42237
717.40        68.44153
717.82        68.35009
718.24        68.21515
718.66        68.14347
719.08        68.16649
719.50        68.25229
719.92        68.35755
720.34        68.41071
720.76        68.39237
721.19        68.33001
721.61        68.27402
722.03        68.23367
722.45        68.23693
722.87        68.32736
723.29        68.50718
723.71        68.45856
724.13        68.61923
724.55        68.76143
724.97        68.99377
725.39        69.17883
725.81        69.30408
726.23        69.42235
726.65        69.53802
727.07        69.65178
727.49         69.7676
727.91         69.8716
728.33        69.94908
728.75        70.01511
729.17        70.05272
729.59        69.97898
730.01        69.82158
730.43        69.80099
730.85        69.95518
731.27        70.01816
731.69         69.9016
732.10        70.48612
732.52        70.16905
732.94         70.2187
733.36        70.18288
733.78        70.14934
734.20        70.16483
734.62        70.15216
735.04        70.06262
735.46        70.15146
735.88        70.48791
736.30        69.59294
736.72         69.9631
737.13        70.13279
737.55        70.44484
737.97        70.86713
738.39        71.16306
738.81        71.02338
739.23        70.57696
739.65        70.42673
740.06        70.56516
740.48         70.8484
740.90        71.21883
741.32        70.57636
741.74         70.7767
742.16        70.70299
742.57        70.92388
742.99        71.11788
743.41        71.24486
743.83        71.31578
744.25        71.29246
744.67        71.17983
745.08        71.01845
745.50        70.85193
745.92        70.72087
746.34        70.61509
746.75        70.54671
747.17        70.53336
747.59        70.58224
748.01        70.69988
748.42        70.85918
748.84        71.03295
749.26        71.21994
749.68        71.23484
750.09         71.1375
750.51        71.43403
750.93        71.94388
751.35        71.74458
751.76        70.96342
752.18        70.60366
752.60        70.71825
753.01        70.76913
753.43        70.73214
753.85        70.82373
754.27        71.02198
754.68        71.38923
755.10        71.78861
755.52        71.72684
755.93        71.30908
756.35        71.25079
756.77        71.55137
757.18        71.66376
757.60         71.6339
758.02        71.75591
758.43        71.93027
758.85        72.37682
759.26        72.35064
759.68        72.15592
760.10         72.0445
760.51        71.98132
760.93        71.92986
761.34        70.93011
761.76         71.4837
762.18        71.32478
762.59        71.31071
763.01        71.17043
763.42         71.8283
763.84        72.16096
764.26        72.36954
764.67        72.46347
765.09        72.53773
765.50        72.75791
765.92        73.08654
766.33        73.21125
766.75        73.02394
767.16        72.74639
767.58        72.42117
768.00        71.95016
768.41        71.55847
768.83        71.85715
769.24        72.67583
769.66        73.12698
770.07        73.10815
770.49        72.99659
770.90        72.93083
771.32         73.1582
771.73        73.57477
772.15        73.62877
772.56        73.31631
772.97        72.96522
773.39        72.64783
773.80        72.50281
774.22        72.46832
774.63        72.18235
775.05        71.76107
775.46        71.75939
775.88         72.1897
776.29        72.80719
776.70        73.36709
777.12        73.60176
777.53        73.44236
777.95        72.93656
778.36        72.34442
778.77        72.11646
779.19        72.36015
779.60        72.98665
780.02        73.68982
780.43        74.13909
780.84        74.22586
781.26        73.70261
781.67        72.93797
782.09        73.36895
782.50        74.67749
782.91        74.75988
783.33        73.66496
783.74        73.27558
784.15        73.65171
784.57        73.67313
784.98        73.32522
785.39          73.159
785.81        73.16812
786.22        73.08165
786.63        72.92656
787.04        72.91184
787.46        73.03429
787.87        73.16073
788.28        73.29632
788.70        73.50063
789.11        73.55581
789.52        73.83167
789.93        74.16959
790.35        73.89372
790.76        73.21165
791.17        73.30032
791.58        74.07672
792.00        74.24833
792.41        73.76523
792.82        73.61498
793.23        73.74974
793.65        73.32401
794.06        72.65727
794.47         72.7809
794.88        73.52986
795.29        74.78453
795.71        74.93671
796.12        74.80584
796.53        74.84441
796.94        74.26833
797.35        73.57462
797.76        73.40388
798.18        73.74715
798.59         73.9001
799.00         73.8111
799.41        74.00048
799.82        74.40433
800.23          74.624
800.64        74.60617
801.06        74.42808
801.47           74.23
801.88        74.17415
802.29        74.29945
802.70        74.53168
803.11        74.75344
803.52        74.77854
803.93        74.57492
804.34        74.22839
804.75        73.83839
805.17        73.60275
805.58         73.6057
805.99        73.60609
806.40        73.62722
806.81        74.13541
807.22        74.88959
807.63        74.91764
808.04         74.3496
808.45        74.16528
808.86        74.51346
809.27        75.08945
809.68        75.69919
810.09        75.99535
810.50        75.86764
810.91        75.51559
811.32        75.10921
811.73        74.75027
812.14        74.49173
812.55        74.53908
812.96        74.74796
813.37        74.31167
813.78        73.44603
814.19        73.46696
814.60        74.23902
815.01        74.51768
815.42        74.24055
815.83        74.07494
816.24        74.12478
816.65        74.23256
817.05        74.42053
817.46         74.6876
817.87         74.9316
818.28        74.94849
818.69        74.71938
819.10        74.30258
819.51        73.87038
819.92         73.7909
820.33         74.1601
820.74        74.70335
821.14        75.28359
821.55        76.00213
821.96         76.6164
822.37        76.40224
822.78        75.54175
823.19        75.06317
823.60        75.10185
824.00        75.14539
824.41         75.0836
824.82        75.07486
825.23        75.09756
825.64        75.13758
826.04        75.21371
826.45        75.29659
826.86        75.38636
827.27        75.47141
827.68        75.53423
828.08        75.57778
828.49        75.54079
828.90        75.45229
829.31        75.31679
829.72        75.14608
830.12         74.9779
830.53        74.79579
830.94        74.63045
831.35         74.4878
831.75        74.39881
832.16        74.32681
832.57        74.31956
832.97        74.42789
833.38        74.62708
833.79        74.88229
834.20        75.13773
834.60        75.30467
835.01        75.37727
835.42        75.39159
835.82        75.34553
836.23        75.18781
836.64         74.9515
837.04        74.63901
837.45        74.38264
837.86        74.44068
838.26        74.86414
838.67         75.5583
839.08        76.25934
839.48        76.46511
839.89        76.06306
840.29        75.24764
840.70        74.40411
841.11        74.02608
841.51        74.24335
841.92        74.84047
842.33        75.67166
842.73        76.48016
843.14         77.0378
843.54         77.4824
843.95        77.67406
844.35        77.47221
844.76        76.90892
845.17        76.05669
845.57        75.19305
845.98        74.77619
846.38        74.90345
846.79        75.45212
847.19        76.26614
847.60        76.89645
848.00         77.2322
848.41        77.31441
848.81         77.2672
849.22        77.20683
849.62        77.22192
850.03        77.21159
850.43        77.18103
850.84        77.05415
851.24        76.88231
851.65        76.65338
852.05        76.48081
852.46        76.43832
852.86        76.54681
853.27        76.71737
853.67        76.82732
854.07        77.00484
854.48        77.11902
854.88        76.82473
855.29        76.19826
855.69         75.9039
856.10        75.95741
856.50        76.13742
856.90         76.3205
857.31        76.44664
857.71        76.53887
858.12        76.55973
858.52        76.56818
858.92        76.54216
859.33        76.46983
859.73        76.37708
860.13        76.30521
860.54        76.35088
860.94        76.58427
861.34        76.92937
861.75        77.21237
862.15        77.24816
862.55        76.95903
862.96        76.45202
863.36        75.86995
863.76        75.42422
864.17        75.19567
864.57        75.13995
864.97        75.27602
865.38        75.61221
865.78        76.16048
866.18        76.84336
866.58        77.45657
866.99        77.63681
867.39         77.3368
867.79        76.63138
868.19        75.65633
868.60        74.62631
869.00          73.617
869.40        72.63122
869.80        71.87552
870.21         71.6676
870.61        72.09698
871.01         73.0179
871.41        74.02644
871.81        74.46427
872.22        74.20277
872.62        73.44955
873.02        72.47122
873.42        71.91428
873.82        71.76127
874.22        71.35156
874.63        70.89631
875.03        70.92771
875.43        71.48109
875.83         73.3362
876.23        73.58411
876.63        73.28226
877.03        71.91329
877.44        69.58257
877.84        128.4416
878.24        69.54722
878.64         71.1456
879.04         75.2066
879.44        72.71017
879.84        71.22326
880.24        74.85564
880.64        74.62833
881.04         71.5284
881.44        69.57642
881.84        69.49857
882.24        70.60995
882.65        72.17133
883.05        72.79935
883.45         72.0607
883.85        70.69303
884.25          69.368
884.65        68.80325
885.05        69.19653
885.45        70.28598
885.85        71.58028
886.25        72.28453
886.65        72.16889
887.05        71.49295
887.45        70.68698
887.85        70.39085
888.25        70.76051
888.65        71.58367
889.04        72.55112
889.44        73.06095
889.84        72.97046
890.24        72.47466
890.64        71.84299
891.04        71.46746
891.44         71.4264
891.84        71.54687
892.24        71.68137
892.64        71.59154
893.04        71.22999
893.44        70.77368
893.83        70.21309
894.23        69.54445
894.63        68.79436
895.03        67.94123
895.43        67.27948
895.83        67.30582
896.23        68.08408
896.63        69.47445
897.02        70.93931
897.42        71.49818
897.82        70.93528
898.22        69.54971
898.62        67.96083
899.01        67.12371
899.41        67.29411
899.81        68.14718
900.21         69.2794
900.61        70.08128
901.00        70.36605
901.40        70.29935
901.80        70.08424
902.20        70.02534
902.59        70.21999
902.99        70.55228
903.39        70.81966
903.79        70.71044
904.18        70.17224
904.58        69.38265
904.98        68.67307
905.38        68.53461
905.77        69.04422
906.17        70.03902
906.57        71.13718
906.96        71.77202
907.36        71.75095
907.76        71.21825
908.15        70.51118
908.55        70.11853
908.95        70.18905
909.34        70.61682
909.74         71.0377
910.14        70.82557
910.53        69.86582
910.93         68.4645
911.33        67.20015
911.72        66.96946
912.12        67.89043
912.52         69.5649
912.91        71.41071
913.31        72.46361
913.70        72.52484
914.10        71.86512
914.49        70.71347
914.89        69.63525
915.29         68.9144
915.68        68.42027
916.08        68.24176
916.47        68.47957
916.87        69.05148
917.26        69.91449
917.66        70.81068
918.05        71.33292
918.45        71.34062
918.84        70.98713
919.24        70.31686
919.64        69.44022
920.03        68.48572
920.42          67.477
920.82         66.7651
921.21        66.83828
921.61        67.69442
922.00        69.20893
922.40        70.82217
922.79         71.8392
923.19        72.03827
923.58        71.40343
923.98        70.15195
924.37        69.37979
924.77        69.56282
925.16        67.20873
925.55        68.29378
925.95        68.04443
926.34        68.25356
926.74        68.72867
927.13        69.40369
927.52        69.96751
927.92         70.3035
928.31         70.5416
928.70        70.64316
929.10        70.60284
929.49        70.44673
929.89        70.15669
930.28        69.90464
930.67        69.97282
931.07        70.37753
931.46        71.09071
931.85        71.80951
932.24        72.08813
932.64        71.81724
933.03        71.02342
933.42        69.99355
933.82        69.34544
934.21        69.24147
934.60        69.55537
934.99        69.73481
935.39        69.26368
935.78        68.09711
936.17        65.84428
936.56        62.87331
936.96        63.88324
937.35        63.61613
937.74        66.02383
938.13        68.47266
938.53        70.07239
938.92        70.71245
939.31        70.72226
939.70        70.34574
940.09         69.9041
940.49        69.60961
940.88        69.39124
941.27        69.34338
941.66        69.65211
942.05        70.30157
942.44        71.21426
942.84         72.2505
943.23        73.15705
943.62        73.78772
944.01         74.2174
944.40        74.27099
944.79        73.69298
945.18        72.48654
945.57        70.69392
945.97        68.89056
946.36        68.08879
946.75        68.60548
947.14        70.10588
947.53         71.8155
947.92        72.64677
948.31        72.39014
948.70        71.37189
949.09        70.04933
949.48         69.2289
949.87        69.18011
950.26        69.64169
950.65         70.3338
951.04        70.81073
951.43        70.90989
951.82        70.78264
952.21        70.55149
952.60        70.38628
952.99         70.3376
953.38        70.32317
953.77        70.26297
954.16        70.05414
954.55        69.68707
954.94        69.23515
955.33        68.79358
955.72        68.49549
956.11        68.39249
956.50        68.45546
956.89        68.65956
957.28        68.94234
957.66        69.26152
958.05        69.54508
958.44         69.7671
958.83        69.89697
959.22        69.92711
959.61        69.86059
960.00        69.65582
960.39        69.26645
960.78        68.71777
961.16        68.02853
961.55        67.39799
961.94         66.9979
962.33        66.87233
962.72        66.99545
963.11        67.21601
963.49        67.28486
963.88        67.06258
964.27        66.65161
964.66        66.25243
965.04        66.20535
965.43        66.56708
965.82        67.22623
966.21        67.93655
966.60        68.30085
966.98        68.23406
967.37        67.84068
967.76        67.36365
968.15        67.17793
968.53         67.3877
968.92        67.77576
969.31        68.19496
969.69        68.40056
970.08        68.24871
970.47        67.87308
970.86        67.26028
971.24        66.34068
971.63        65.23024
972.02        64.00709
972.40        62.90382
972.79        62.34513
973.17        62.46291
973.56        63.03258
973.95        63.99258
974.33        65.18396
974.72        66.31892
975.11        67.39596
975.49        68.02155
975.88        67.60617
976.26        66.13823
976.65         63.8732
977.04        61.39923
977.42        59.75706
977.81         59.3075
978.19        59.78259
978.58         60.9362
978.96        62.29966
979.35        63.56078
979.74        64.92805
980.12        66.13376
980.51        66.46277
980.89         65.9352
981.28        64.63517
981.66        63.28726
982.05        62.96937
982.43        63.81348
982.82        65.50303
983.20        67.43082
983.59        68.17236
983.97        67.42966
984.35        65.57792
984.74        63.37416
985.12        61.90209
985.51        61.47396
985.89        61.72036
986.28        62.36163
986.66        62.88546
987.04         62.9744
987.43        62.93578
987.81        62.55384
988.20        61.46034
988.58        59.53427
988.96        56.55572
989.35        53.20241
989.73        51.68746
990.12        53.01797
990.50        56.47028
990.88         60.1461
991.27        61.93143
991.65        61.76942
992.03        60.26655
992.42        58.35155
992.80        57.82967
993.18        59.28677
993.56        61.82038
993.95         64.6457
994.33        67.15399
994.71        68.90738
995.10        70.14384
995.48        70.67009
995.86        70.04384
996.24        68.25504
996.63        65.36066
997.01        61.77761
997.39         58.9663
997.77        57.78894
998.15        57.95942
998.54         59.0283
998.92        60.41588
999.30        62.00016
999.68        64.19209
1000.06        66.42125
1000.45        66.67239
1000.83        64.38087
1001.21        60.49335
1001.59        56.91898
1001.97          55.177
1002.35         55.1108
1002.73        56.25911
1003.12        57.95619
1003.50        58.70269
1003.88        57.74998
1004.26        55.73176
1004.64        53.28166
1005.02        51.17342
1005.40        49.67618
1005.78        48.49083
1006.16        48.03809
1006.54        49.11386
1006.92        51.41879
1007.30        54.22871
1007.69        56.58786
1008.07        57.77972
1008.45        57.64519
1008.83        56.26599
1009.21        53.12835
1009.59        48.14104
1009.97        42.35555
1010.35        36.74642
1010.73        33.55637
1011.11        34.39231
1011.49        38.59383
1011.86        45.43489
1012.24        51.87735
1012.62        55.08443
1013.00        54.81288
1013.38        52.07409
1013.76        48.25856
1014.14         45.8517
1014.52        45.64048
1014.90        46.82938
1015.28        48.51218
1015.66        49.16547
1016.04        48.23752
1016.41        46.27367
1016.79        43.65047
1017.17        41.36871
1017.55         40.1982
1017.93        39.79555
1018.31        40.04629
1018.69        40.96866
1019.06        42.35749
1019.44        43.95081
1019.82        45.36105
1020.20        45.42262
1020.58        43.67922
1020.95        40.70184
1021.33        36.51249
1021.71        30.00389
1022.09        19.56042
1022.46       0.1308973
1022.84       -28.39731
1023.22       -36.66297
1023.60       -9.174978
1023.97        22.08783
1024.35        40.05938
1024.73        46.37467
