SpectraSmart Spectrum 2.9.0.0
--------- Device Information -----------
Spectrum Name :  反射率_0
Saving Time :  2024/04/20 00:54:15
Spectro-Module Model Name : SE2030-DUVN
Spectro-Module Serial Number : OS361AC55029948
Wavelength Start : 200
Wavelength End : 1025
Wavelength Unit : Wavelength(nm)
Spectrum Unit : Reflectance(%)
-----------Spectrum Setting ------------
Integration Time : 30ms
Average : 10
Boxcar : 0
Background removal :  enabled
linearity correction :  enabled
SC :  disabled
Intensity correction :  disabled
DWT denoise :  enabled
savitzky-golay :  disabled
FFT :  disabled
Running average :  disabled
Kalman :  disabled
High pass :  disabled
---------------BEGIN--------------------
Wavelength(nm)             Reflectance(%)
200.29               0
200.75        56.50912
201.21        57.41408
201.67        60.35421
202.13        64.69065
202.58         69.8176
203.04        76.17254
203.50        81.74053
203.96        81.73409
204.42        76.59558
204.88         69.6374
205.34        63.70579
205.80        59.99389
206.26        57.78245
206.72        56.14385
207.18        55.05093
207.64        55.08195
208.10         56.5362
208.55        59.37294
209.01        61.22061
209.47        60.90631
209.93        58.79724
210.39        55.61652
210.85        52.32238
211.31        49.83522
211.77        48.16816
212.23        46.94457
212.69        46.34562
213.14        47.10661
213.60        48.66973
214.06        50.71208
214.52        52.63513
214.98          54.449
215.44         56.3254
215.90        58.12859
216.36        59.98093
216.81        61.78377
217.27        63.06594
217.73        63.91733
218.19         63.3847
218.65        60.03834
219.11         53.6393
219.57         44.1506
220.02        33.39746
220.48        26.92995
220.94        26.72098
221.40        32.11642
221.86        39.41574
222.32        42.64229
222.77        40.47987
223.23        34.91249
223.69        29.48222
224.15        29.16172
224.61         33.6379
225.06        39.96434
225.52        45.25718
225.98         47.3097
226.44        46.21883
226.90         43.1456
227.36        39.24458
227.81        36.51092
228.27        35.98206
228.73        36.78331
229.19        38.31989
229.65         39.9239
230.10         41.2924
230.56        42.55241
231.02        43.61179
231.48        44.33375
231.93        44.68989
232.39        44.71536
232.85        44.38724
233.31        43.72586
233.77        42.79076
234.22        41.61615
234.68        40.41412
235.14        39.44512
235.60        38.85316
236.05        38.67023
236.51        38.82378
236.97        39.13782
237.43        39.63506
237.88        40.56484
238.34        42.05282
238.80        44.35296
239.26        47.20641
239.71        50.04096
240.17          52.465
240.63        54.79948
241.08        57.23307
241.54          59.664
242.00         61.3614
242.46        60.90175
242.91        57.51758
243.37        50.12346
243.83        39.45316
244.28         32.9795
244.74        37.95349
245.20        53.12177
245.66        67.63587
246.11        71.91918
246.57        65.03857
247.03        47.21423
247.48        23.19375
247.94        17.24744
248.40        32.10448
248.85         50.3881
249.31        63.54499
249.77        69.72891
250.22        70.87714
250.68        68.97414
251.14         65.2755
251.59        62.39706
252.05        62.02573
252.51        63.62544
252.96        65.39115
253.42         64.4848
253.88        60.73055
254.33        55.90306
254.79        53.12229
255.25        55.00463
255.70        60.80122
256.16        68.37862
256.62        75.02754
257.07        77.81212
257.53        76.85654
257.99        73.47179
258.44        68.86868
258.90         65.4131
259.35        63.19323
259.81        62.07369
260.27        61.17284
260.72        59.74505
261.18        57.99024
261.63        55.76682
262.09         53.9119
262.55        53.05109
263.00        53.08253
263.46         53.7709
263.91         54.1526
264.37        53.37755
264.83        51.46259
265.28        48.78727
265.74        46.38639
266.19        45.26086
266.65        45.55328
267.11        46.68147
267.56        47.90529
268.02        48.16496
268.47        47.25905
268.93        45.56897
269.38        43.49182
269.84        41.89544
270.30        41.02888
270.75        40.65132
271.21        40.50917
271.66        40.21602
272.12        39.64094
272.57        38.90863
273.03        38.16496
273.48        37.52911
273.94        37.07629
274.39        36.70708
274.85        36.32201
275.31        35.75183
275.76        34.95658
276.22        34.02602
276.67        33.09543
277.13        32.46988
277.58        32.13758
278.04        32.03824
278.49        31.91503
278.95        31.47038
279.40        30.63841
279.86        29.61899
280.31        28.58772
280.77        27.92958
281.22        27.64199
281.68        27.61942
282.13        27.68146
282.59        27.60307
283.04        27.32134
283.50        26.95474
283.95        26.54775
284.41        26.19753
284.86        25.91911
285.32        25.70001
285.77        25.56177
286.22        25.60815
286.68        25.82467
287.13        26.14496
287.59        26.45844
288.04         26.5792
288.50        26.49397
288.95        26.23013
289.41        25.89982
289.86         25.6004
290.32        25.42226
290.77        25.33637
291.22        25.35081
291.68        25.44068
292.13        25.60295
292.59        25.86296
293.04        26.25203
293.50        26.82767
293.95        27.57354
294.40        28.44868
294.86        29.36206
295.31        30.18757
295.77        30.89541
296.22        31.51613
296.68        32.11126
297.13        32.76212
297.58        33.50401
298.04        34.31827
298.49        35.17072
298.95        36.05236
299.40         36.9299
299.85        37.79475
300.31        38.64601
300.76        39.47101
301.21        40.25942
301.67        41.03865
302.12        41.72511
302.58        42.27037
303.03        42.65773
303.48        42.93948
303.94        43.27051
304.39        43.83868
304.84        44.67623
305.30        45.69825
305.75         46.7042
306.20        47.41599
306.66        47.79235
307.11         47.9057
307.57        47.90608
308.02        47.93549
308.47        48.07319
308.93        48.26258
309.38        48.48772
309.83        48.78891
310.29        49.14429
310.74        49.54462
311.19        49.87269
311.65         49.9311
312.10        49.68681
312.55        49.20616
313.00        48.66152
313.46        48.32215
313.91        48.23462
314.36         48.3371
314.82        48.49368
315.27        48.50734
315.72        48.30748
316.18        47.97297
316.63        47.57724
317.08        47.24502
317.53        47.00712
317.99        46.81031
318.44        46.61267
318.89        46.34056
319.35        45.97702
319.80        45.55671
320.25        45.11908
320.70        44.72273
321.16        44.37896
321.61        44.07581
322.06        43.78054
322.51        43.44623
322.97        43.05186
323.42        42.61986
323.87        42.16734
324.32        41.73018
324.78        41.31092
325.23        40.91193
325.68        40.50368
326.13        40.04753
326.59         39.5401
327.04        39.02714
327.49        38.54089
327.94         38.1349
328.39        37.81957
328.85        37.55253
329.30        37.35999
329.75        37.22574
330.20        37.13148
330.66        37.05619
331.11        36.95963
331.56        36.71672
332.01        36.30512
332.46        35.75274
332.92        35.14972
333.37        34.67459
333.82        34.38443
334.27        34.25614
334.72         34.2178
335.17        34.13712
335.63        33.95975
336.08        33.72665
336.53         33.5055
336.98        33.42469
337.43         33.5014
337.88        33.68578
338.34        33.81609
338.79        33.68318
339.24        33.22812
339.69         32.5222
340.14        31.77507
340.59        31.33825
341.05        31.29103
341.50        31.53883
341.95        31.87436
342.40         31.9703
342.85        31.74787
343.30         31.3205
343.75        30.82464
344.20        30.48327
344.66        30.35552
345.11        30.33069
345.56        30.36255
346.01        30.38142
346.46        30.34597
346.91        30.29984
347.36        30.16389
347.81        29.80181
348.26         29.2246
348.72        28.50807
349.17        27.81666
349.62        27.50315
350.07        27.64134
350.52        28.10522
350.97         28.7004
351.42        29.13213
351.87        29.30561
352.32        29.29533
352.77        29.13377
353.22         28.8811
353.67        28.57997
354.13         28.2248
354.58        27.85242
355.03        27.56845
355.48        27.39944
355.93        27.33952
356.38        27.34467
356.83        27.32842
357.28        27.26138
357.73        27.15644
358.18        27.03483
358.63         26.9372
359.08        26.87008
359.53         26.8134
359.98        26.73203
360.43        26.57574
360.88        26.34039
361.33        26.05134
361.78        25.75565
362.23        25.52942
362.68        25.39056
363.13        25.30815
363.58        25.25031
364.03        25.16615
364.48        25.03476
364.93         24.8731
365.38        24.66727
365.83        24.39772
366.28        24.07595
366.73        23.71379
367.18         23.3716
367.63        23.14342
368.08        23.04332
368.53        23.04118
368.98        23.07301
369.43        23.03393
369.88        22.89948
370.33        22.70681
370.78        22.48824
371.23        22.30229
371.68        22.17348
372.13        22.07462
372.58        22.02376
373.03        22.05433
373.48         22.1518
373.93        22.29359
374.38          22.401
374.83        22.35295
375.28        22.12878
375.72        21.76157
376.17        21.34347
376.62        20.98594
377.07        20.73973
377.52        20.58304
377.97        20.51031
378.42        20.50736
378.87         20.5531
379.32        20.64007
379.77        20.74017
380.22         20.8084
380.67        20.82909
381.11        20.81148
381.56        20.73259
382.01        20.58168
382.46        20.36706
382.91        20.09378
383.36         19.8269
383.81        19.66173
384.26        19.61537
384.71        19.67269
385.15        19.74243
385.60        19.68516
386.05        19.47487
386.50        19.15192
386.95        18.83435
387.40        18.70932
387.85        18.80595
388.29        19.05134
388.74        19.30514
389.19        19.36358
389.64        19.18857
390.09        18.84104
390.54         18.4496
390.98        18.21317
391.43        18.19663
391.88        18.32236
392.33         18.4675
392.78        18.45588
393.23        18.26494
393.67        17.95522
394.12        17.66257
394.57        17.50961
395.02        17.52137
395.47        17.64962
395.91        17.82081
396.36         17.8884
396.81        17.81881
397.26        17.65365
397.71        17.47001
398.15        17.36715
398.60        17.38632
399.05        17.47878
399.50        17.57474
399.95        17.57604
400.39        17.46268
400.84        17.26521
401.29        17.05485
401.74        16.96166
402.18        17.02436
402.63        17.19015
403.08        17.36774
403.53        17.40989
403.97        17.28433
404.42        17.04999
404.87        16.79103
405.32        16.64694
405.76        16.65162
406.21        16.75592
406.66        16.89466
407.11        16.96593
407.55         16.9426
408.00        16.86351
408.45        16.75606
408.90         16.6237
409.34        16.50185
409.79        16.46296
410.24        16.48317
410.68        16.45629
411.13        16.37984
411.58        16.32136
412.03         16.2809
412.47        16.23528
412.92        16.18421
413.37        16.12691
413.81        16.10045
414.26        16.17603
414.71        16.35108
415.15         16.6082
415.60        16.84002
416.05        16.89701
416.49        16.74413
416.94        16.43454
417.39        16.07909
417.83        15.85863
418.28        15.82744
418.73        15.92482
419.17        16.07472
419.62        16.14503
420.07        16.10449
420.51        15.99962
420.96        15.87082
421.41        15.75901
421.85        15.67805
422.30        15.62216
422.74         15.5935
423.19        15.62663
423.64        15.71284
424.08        15.85158
424.53        15.99049
424.98        16.06169
425.42         16.0481
425.87        15.97166
426.31        15.85912
426.76        15.76293
427.21        15.69174
427.65        15.62542
428.10        15.59303
428.54        15.61715
428.99         15.7013
429.44        15.90904
429.88        16.13334
430.33        16.09833
430.77        15.85201
431.22        15.71541
431.66        15.74796
432.11        15.86085
432.56        16.03444
433.00        16.33773
433.45        16.57987
433.89        16.47599
434.34          16.132
434.78        15.73684
435.23        15.32983
435.67        15.99722
436.12        15.50928
436.57        15.51241
437.01        15.37878
437.46        15.34933
437.90        15.42088
438.35         15.4768
438.79        15.49051
439.24        15.49008
439.68        15.47302
440.13        15.30262
440.57         15.0818
441.02        15.22092
441.46         15.5778
441.91        15.66646
442.35        15.09833
442.80        14.89854
443.24        14.91233
443.69         14.8222
444.13        14.63043
444.58         14.5104
445.02        14.47921
445.47        14.52767
445.91        14.61491
446.36        14.64065
446.80        14.58205
447.24        14.48771
447.69        14.38934
448.13        14.30214
448.58        14.24385
449.02        14.20504
449.47        14.17737
449.91        14.14279
450.36        14.10239
450.80        14.06021
451.25        14.03374
451.69        14.03261
452.13        14.06127
452.58        14.10468
453.02        14.15094
453.47         14.1816
453.91        14.19239
454.36        14.18845
454.80        14.16456
455.24        14.11346
455.69        14.04538
456.13        13.95036
456.58        13.86791
457.02        13.84754
457.46         13.8929
457.91        13.95513
458.35        14.00528
458.79        14.03253
459.24        14.02544
459.68        13.99014
460.13        13.98318
460.57        13.95665
461.01        13.90569
461.46        14.20304
461.90        14.28469
462.34        14.14088
462.79        14.23953
463.23        14.10767
463.68        13.99269
464.12        13.92235
464.56        14.02241
465.01        14.17521
465.45        14.31996
465.89        14.38341
466.34        14.35675
466.78        14.22004
467.22        14.04426
467.67        14.04354
468.11        14.19861
468.55        14.21818
468.99        14.11076
469.44        14.12002
469.88        14.24947
470.32        14.35638
470.77        14.41012
471.21        14.43728
471.65        14.43296
472.10        14.39081
472.54        14.33735
472.98        14.35025
473.42        14.43922
473.87        14.53926
474.31        14.62617
474.75         14.7501
475.20        14.87153
475.64        14.84143
476.08        14.71395
476.52        14.70295
476.97        14.82399
477.41        14.98039
477.85        15.12175
478.29        15.21091
478.74        15.23394
479.18        15.17647
479.62        15.10661
480.06        15.13463
480.50        15.26063
480.95        15.38317
481.39        15.46158
481.83        15.50466
482.27        15.50735
482.72         15.4719
483.16        15.43722
483.60        15.45934
484.04        15.54696
484.48        15.74775
484.93         16.0743
485.37        16.19446
485.81        16.27948
486.25        16.72706
486.69        17.46561
487.14         16.9041
487.58        16.59376
488.02        17.29599
488.46        16.95945
488.90        17.16597
489.34        17.11163
489.79        17.27472
490.23        17.58877
490.67          17.806
491.11        17.91276
491.55        17.93443
491.99        17.90883
492.43        17.92574
492.88        18.00982
493.32        18.09935
493.76        18.20455
494.20        18.37431
494.64        18.60938
495.08         18.8859
495.52        19.17674
495.96        19.45448
496.41        19.70769
496.85        19.90639
497.29        20.05436
497.73        20.25715
498.17        20.48766
498.61        20.53635
499.05        20.46457
499.49         20.5671
499.93        20.87028
500.37        21.21971
500.82         21.5483
501.26        21.82157
501.70        22.01347
502.14        22.10256
502.58        22.12215
503.02        22.16361
503.46        22.24828
503.90        22.34246
504.34        22.42193
504.78        22.45647
505.22         22.4414
505.66        22.40149
506.10        22.37195
506.54        22.37618
506.98        22.42355
507.42        22.55371
507.86         22.7649
508.30        22.79919
508.74        23.04584
509.18        23.17728
509.62         23.3137
510.06        23.44741
510.50        23.57933
510.94        23.70413
511.38        23.79474
511.82        23.82219
512.26        23.78458
512.70        23.69382
513.14          23.603
513.58        23.59051
514.02        23.66556
514.46        23.80868
514.90        23.96172
515.34        23.96756
515.78        23.84287
516.22        23.68869
516.66        23.58764
517.10        23.33213
517.54        22.94391
517.98        23.50659
518.42        23.39572
518.86        23.64542
519.30        23.75297
519.74        23.87605
520.18        23.98166
520.62        23.99674
521.06        23.93232
521.50        23.79396
521.93        23.62314
522.37        23.49815
522.81        23.43947
523.25        23.42892
523.69        23.44501
524.13        23.45125
524.57        23.43342
525.01        23.40151
525.45        23.35749
525.89        23.30311
526.32        23.23959
526.76        23.16639
527.20        23.08167
527.64          22.989
528.08        22.88998
528.52        22.78286
528.96        22.68021
529.40        22.59808
529.83        22.53808
530.27        22.50424
530.71        22.46673
531.15        22.37989
531.59        22.24122
532.03        22.06737
532.46        21.90664
532.90        21.85246
533.34        21.90978
533.78        22.04171
534.22        22.18664
534.66        22.25023
535.09        22.20502
535.53        22.08969
535.97        21.93337
536.41        21.78015
536.85        21.65305
537.28        21.55328
537.72        21.50084
538.16        21.46025
538.60        21.53572
539.04         21.6284
539.47        21.73544
539.91        21.85913
540.35        22.00308
540.79        21.98016
541.22        22.08349
541.66        22.17212
542.10          22.354
542.54        22.26315
542.97        22.49306
543.41        22.63687
543.85        22.85337
544.29        23.08063
544.72         23.2794
545.16        23.45671
545.60        23.60065
546.04        23.64004
546.47        23.65507
546.91         23.9227
547.35        24.38719
547.79        24.72687
548.22        24.89542
548.66        24.99188
549.10        25.06163
549.53          25.278
549.97        25.64532
550.41        25.70128
550.84        25.91797
551.28        26.04307
551.72        26.24749
552.15        26.48598
552.59        26.76146
553.03          27.072
553.46        27.36083
553.90        27.57079
554.34        27.68839
554.77        27.73081
555.21        27.75343
555.65        27.83236
556.08        27.98031
556.52        28.16941
556.96        28.36004
557.39         28.5263
557.83        28.64614
558.27        28.66771
558.70        28.62414
559.14         28.6244
559.57        28.67638
560.01        28.76475
560.45         28.8666
560.88        28.90674
561.32        28.93581
561.75        29.04579
562.19        29.32203
562.63        29.45626
563.06        29.47707
563.50        29.52854
563.93        29.61784
564.37        29.76752
564.80         29.8433
565.24        29.98624
565.68        30.12691
566.11         30.2482
566.55        30.36628
566.98        30.43194
567.42        30.44354
567.85        30.78206
568.29         30.6607
568.72        31.01518
569.16        31.51762
569.60        31.85597
570.03        31.98399
570.47        32.10087
570.90        32.08475
571.34        32.47609
571.77        32.40148
572.21        32.74756
572.64        33.00405
573.08        33.29185
573.51        33.35409
573.95        33.83068
574.38        34.17139
574.82        34.40778
575.25        34.44572
575.69        34.27231
576.12        34.27581
576.56        34.22914
576.99        34.30606
577.42        34.43909
577.86        34.44492
578.29        34.54332
578.73        35.09006
579.16        34.52483
579.60        34.32977
580.03        34.10623
580.47        34.10226
580.90        33.73337
581.33        33.81945
581.77        33.88748
582.20         34.4607
582.64        33.88308
583.07        33.34016
583.51        33.28827
583.94        32.67751
584.37        32.83489
584.81        32.24047
585.24        32.28418
585.68        32.48341
586.11        32.37331
586.54        32.30178
586.98        31.80798
587.41        31.65847
587.85        31.69458
588.28        31.99537
588.71        31.86776
589.15        31.35644
589.58         31.1375
590.01        31.17567
590.45        31.49455
590.88        31.28783
591.31        31.32194
591.75        31.11087
592.18        31.30454
592.61        31.11639
593.05        31.54969
593.48        31.30091
593.91         32.0683
594.35        31.86002
594.78        31.85297
595.21         32.1825
595.65        32.51044
596.08        32.43941
596.51        32.51533
596.94        32.65204
597.38        32.77413
597.81        32.91217
598.24        33.29676
598.68        33.75918
599.11        33.93095
599.54        34.99123
599.97        34.77059
600.41        35.13295
600.84        35.45864
601.27        36.24063
601.70        36.57157
602.14        36.80831
602.57        37.19043
603.00        37.81327
603.43        38.35563
603.87        38.68141
604.30        39.14228
604.73        39.73185
605.16        39.80747
605.60        40.29819
606.03        40.66838
606.46        41.59602
606.89        42.08789
607.32        42.55251
607.76        42.86262
608.19        43.21785
608.62        43.78952
609.05        43.78959
609.48        44.05541
609.92        44.43385
610.35        44.25148
610.78        45.22434
611.21        45.93715
611.64         45.6635
612.07         46.1414
612.50        46.31454
612.94        46.60733
613.37        46.93321
613.80        47.23402
614.23        47.52481
614.66        47.96669
615.09        48.10891
615.52         48.5463
615.96         49.0275
616.39        49.37162
616.82        49.62769
617.25        49.42143
617.68        49.61504
618.11        50.15569
618.54        50.65396
618.97        50.62913
619.40        49.99933
619.84        50.20582
620.27        49.96626
620.70        50.46629
621.13        51.13686
621.56        51.39767
621.99        51.32492
622.42        51.40535
622.85        51.71817
623.28        51.77065
623.71         51.5588
624.14        51.80328
624.57        51.63594
625.00        51.35503
625.43        51.73239
625.86        50.92429
626.29        51.15194
626.72        50.94045
627.15        50.87975
627.58        50.83733
628.01         50.7396
628.44        50.73382
628.87         50.4825
629.30        50.01744
629.73        49.66893
630.16        49.40646
630.59        49.09767
631.02        48.84375
631.45        48.54731
631.88        48.22095
632.31        47.84646
632.74        47.41033
633.17        46.93183
633.60        46.45338
634.03        45.98827
634.46        45.52562
634.89        45.06095
635.32        44.58504
635.75         44.0998
636.18        43.62232
636.61        43.15788
637.04        42.69259
637.47        42.24946
637.89        41.80948
638.32        41.38231
638.75        40.99835
639.18        40.66502
639.61        40.38018
640.04        40.11282
640.47        39.80965
640.90        39.46241
641.33         39.0896
641.76        38.73824
642.18        38.48928
642.61        38.35442
643.04        38.30988
643.47        38.31362
643.90        38.29514
644.33        38.23594
644.76        38.16394
645.18        38.10108
645.61        38.08248
646.04        38.12455
646.47        38.21736
646.90        38.37214
647.33        38.60773
647.75        38.91877
648.18        39.29145
648.61        39.69846
649.04        40.07542
649.47        40.41091
649.89        40.76832
650.32        41.15763
650.75        41.50776
651.18        41.89289
651.61        42.46286
652.03        43.18848
652.46          44.048
652.89        44.94143
653.32        45.31995
653.74        45.29414
654.17        46.06713
654.60        46.61924
655.03        47.58221
655.46        47.09462
655.88        49.08118
656.31        49.90815
656.74        58.35329
657.16        55.43219
657.59         50.8032
658.02        50.87102
658.45         50.8301
658.87        51.87278
659.30        52.22968
659.73        52.56894
660.15        53.39147
660.58        53.65854
661.01        53.56069
661.44        53.01747
661.86        53.16777
662.29        53.97601
662.72        54.77024
663.14        55.33092
663.57        55.36556
664.00        55.07217
664.42        55.11634
664.85        55.55013
665.27        56.06281
665.70        56.59822
666.13        56.35581
666.55        56.89959
666.98        56.92821
667.41        56.93764
667.83        57.01634
668.26        57.18275
668.69        57.40577
669.11        57.62335
669.54        57.77615
669.96        57.85018
670.39        57.87144
670.82        57.89709
671.24         57.9975
671.67        58.18945
672.09        58.47176
672.52        58.77789
672.94        58.94539
673.37        58.97335
673.80        58.96529
674.22        58.97252
674.65        58.99911
675.07        59.07578
675.50        59.20635
675.92        59.37125
676.35        59.49269
676.77         59.5628
677.20        59.60945
677.62        59.65011
678.05        59.71889
678.47        59.81757
678.90        59.93552
679.32        60.06707
679.75        60.19379
680.17        60.30304
680.60        60.44678
681.02        60.60905
681.45        60.61473
681.87        60.52996
682.30        60.67176
682.72        60.99676
683.15        61.09624
683.57        60.99414
684.00        60.95512
684.42        61.13812
684.85        61.27629
685.27        61.40352
685.70        61.60428
686.12         61.8359
686.54        62.00951
686.97         62.1018
687.39        62.14127
687.82        62.13683
688.24        62.13086
688.66        62.13082
689.09        62.13528
689.51        62.15625
689.94        62.16857
690.36        62.18815
690.78        62.27999
691.21        62.24057
691.63        62.41745
692.06        62.76371
692.48         62.6665
692.90        62.71655
693.33        63.08995
693.75        62.96569
694.17        62.88133
694.60        62.95708
695.02        62.84526
695.44        62.75305
695.87        62.74118
696.29        62.85302
696.71        62.73701
697.14        62.53463
697.56        62.97015
697.98        63.87199
698.41        64.18468
698.83        64.12256
699.25        63.89795
699.68        63.72663
700.10        63.61438
700.52        63.58945
700.94        63.67807
701.37        63.80997
701.79        63.95501
702.21        64.06242
702.64        64.14687
703.06        64.22623
703.48        64.33321
703.90        64.47666
704.33        64.64394
704.75        64.78889
705.17        64.78533
705.59        64.61417
706.01        64.36066
706.44        64.18198
706.86        64.04542
707.28        64.38766
707.70        64.87105
708.12        65.43272
708.55         65.6052
708.97        65.40134
709.39        65.28025
709.81        65.28905
710.23        65.18675
710.66        65.00883
711.08        64.94774
711.50        64.99936
711.92        65.06974
712.34        65.15055
712.76        65.27483
713.19        65.41419
713.61        65.56905
714.03         65.7032
714.45         65.8116
714.87        65.89576
715.29        65.96918
715.71         66.0364
716.13        66.09094
716.56        66.12329
716.98        66.19777
717.40        66.29309
717.82        66.39912
718.24        66.49747
718.66        66.55304
719.08        66.55752
719.50        66.53535
719.92        66.49556
720.34        66.42307
720.76        66.34209
721.19        66.31162
721.61        66.34563
722.03        66.37628
722.45        66.41929
722.87        66.49763
723.29        66.61349
723.71        66.74101
724.13        66.87621
724.55        67.02293
724.97        67.17508
725.39        67.32645
725.81        67.46973
726.23        67.59274
726.65        67.70286
727.07        67.81852
727.49        67.93932
727.91        68.06021
728.33        68.14809
728.75        68.14803
729.17        68.05935
729.59        67.90859
730.01        67.74604
730.43        67.68797
730.85        67.76431
731.27        67.85432
731.69        67.91782
732.10        68.24854
732.52        68.36167
732.94        68.37975
733.36        68.20888
733.78        68.11342
734.20        68.15094
734.62        68.14679
735.04        68.06078
735.46        68.11467
735.88        68.34735
736.30        67.78764
736.72        68.05445
737.13        68.21174
737.55        68.58636
737.97        68.94331
738.39        69.15475
738.81        68.81528
739.23        68.16222
739.65        68.27298
740.06        68.96741
740.48        69.28373
740.90         69.1546
741.32        68.29963
741.74        68.28375
742.16        68.07375
742.57        68.16011
742.99        68.38531
743.41        68.66597
743.83        68.87227
744.25        68.93916
744.67        68.89866
745.08        68.80026
745.50        68.70541
745.92        68.65186
746.34        68.60613
746.75         68.5597
747.17        68.50912
747.59        68.46514
748.01        68.45354
748.42        68.47583
748.84        68.55803
749.26        68.71606
749.68        68.73325
750.09        68.69012
750.51        69.10107
750.93         69.7197
751.35        69.65386
751.76        69.07002
752.18        68.33191
752.60        68.64088
753.01        68.83237
753.43        68.58098
753.85        68.65769
754.27         68.8714
754.68        69.22757
755.10        69.54095
755.52        69.63127
755.93         69.4938
756.35        69.34798
756.77        69.27889
757.18         69.3189
757.60        69.53449
758.02        69.81236
758.43         69.9646
758.85        70.39614
759.26        70.39619
759.68        69.71362
760.10        69.45466
760.51        69.52287
760.93         69.2141
761.34        69.22221
761.76        69.47574
762.18         69.4109
762.59        69.04308
763.01        69.00341
763.42        69.23612
763.84        69.86234
764.26         69.5869
764.67        69.59344
765.09          69.625
765.50        69.98737
765.92        70.54823
766.33        70.65311
766.75        70.26035
767.16        69.93355
767.58        69.73073
768.00         69.4811
768.41        69.31562
768.83        69.40702
769.24        69.72815
769.66        70.29192
770.07        70.85638
770.49        70.77278
770.90        70.18398
771.32        70.08634
771.73        70.48405
772.15        70.51683
772.56        70.19232
772.97        70.04996
773.39        70.06673
773.80        69.99452
774.22        69.79145
774.63        69.49007
775.05        69.19785
775.46        69.16389
775.88        69.40218
776.29        69.84319
776.70        70.29083
777.12        70.47318
777.53        70.33065
777.95        69.91131
778.36        69.41888
778.77        69.20939
779.19        69.37454
779.60        69.85853
780.02         70.3922
780.43        70.72675
780.84        70.79101
781.26        70.25709
781.67        69.50777
782.09        70.16115
782.50        71.80233
782.91        71.95551
783.33        70.72543
783.74        70.35547
784.15        70.91563
784.57        71.17867
784.98        71.01056
785.39        70.61141
785.81        70.08035
786.22        69.78013
786.63        69.76586
787.04        69.75327
787.46        69.75439
787.87        69.98107
788.28        70.37109
788.70        70.67481
789.11        70.83534
789.52        70.92596
789.93         70.9763
790.35        71.00098
790.76        71.02248
791.17        71.06626
791.58        71.09498
792.00        70.92439
792.41        70.56407
792.82        70.31498
793.23        70.17828
793.65        69.72521
794.06        69.26124
794.47         69.6262
794.88         70.5145
795.29        71.58136
795.71        71.59531
796.12        70.77476
796.53        71.53802
796.94        71.06307
797.35        70.33644
797.76        70.10149
798.18        70.38533
798.59        70.52554
799.00        70.45701
799.41        70.62374
799.82        70.97404
800.23        71.20845
800.64        71.28267
801.06        71.23649
801.47        71.16776
801.88        71.17953
802.29        71.29577
802.70         71.4607
803.11        71.60011
803.52        71.60355
803.93        71.45908
804.34        71.22308
804.75        70.96196
805.17        70.83305
805.58        70.90714
805.99        70.92789
806.40        70.91946
806.81        71.44364
807.22        72.22942
807.63        72.06751
808.04        71.18546
808.45        70.92167
808.86        71.59454
809.27        72.24227
809.68        72.70374
810.09        72.95723
810.50        72.90738
810.91        72.56194
811.32        72.06998
811.73        71.66061
812.14        71.40667
812.55        71.31395
812.96        71.32276
813.37        71.17657
813.78        70.91853
814.19         70.9181
814.60        71.11219
815.01        71.15813
815.42        71.04209
815.83        70.77281
816.24        70.71918
816.65        70.73579
817.05        70.94476
817.46        71.26816
817.87        71.59988
818.28        71.72506
818.69        71.60915
819.10         71.3241
819.51        71.00198
819.92        70.92587
820.33        71.17996
820.74        71.54137
821.14        71.94317
821.55        72.54716
821.96        73.16138
822.37         73.1422
822.78         72.5945
823.19        72.30882
823.60        72.37009
824.00        72.36411
824.41         72.2068
824.82        72.06644
825.23         71.9446
825.64        71.82401
826.04        71.74062
826.45        71.69365
826.86          71.692
827.27        71.73164
827.68        71.78425
828.08        71.82095
828.49        71.78175
828.90        71.70966
829.31        71.62788
829.72        71.58054
830.12        71.60213
830.53        71.63791
830.94        71.70354
831.35        71.79768
831.75        71.93144
832.16        72.06165
832.57        72.17075
832.97        72.20095
833.38        72.12498
833.79        71.96823
834.20        71.78271
834.60        71.64284
835.01        71.58854
835.42        71.60738
835.82        71.67402
836.23        71.68901
836.64        71.64684
837.04        71.56444
837.45        71.49169
837.86        71.55348
838.26        71.78045
838.67        72.10238
839.08        72.39449
839.48        72.41649
839.89         72.1196
840.29        71.61176
840.70        71.12214
841.11          70.913
841.51        71.06081
841.92         71.4323
842.33        71.95778
842.73        72.51504
843.14        72.94142
843.54        73.32716
843.95        73.54488
844.35        73.47162
844.76          73.119
845.17        72.54965
845.57        71.96304
845.98        71.69566
846.38        71.82016
846.79        72.23849
847.19        72.85619
847.60        73.35145
848.00        73.66016
848.41        73.80376
848.81        73.85954
849.22        73.86691
849.62        73.89423
850.03        73.86531
850.43        73.83521
850.84        73.81702
851.24        73.86442
851.65          73.923
852.05        74.00583
852.46         74.0103
852.86        73.92409
853.27        73.79877
853.67        73.60102
854.07        73.40697
854.48        73.20991
854.88        73.02998
855.29        72.83524
855.69        72.71881
856.10        72.62164
856.50        72.61465
856.90         72.6663
857.31        72.74754
857.71        72.90986
858.12        73.07697
858.52        73.25552
858.92        73.35324
859.33        73.33601
859.73        73.26164
860.13        73.14029
860.54        73.01407
860.94        72.96085
861.34         72.9266
861.75        72.88015
862.15        72.86689
862.55        72.84765
862.96        72.85401
863.36        72.84548
863.76        72.72208
864.17        72.47488
864.57        72.15665
864.97        71.89847
865.38        71.88928
865.78        72.20473
866.18        72.70747
866.58          73.208
866.99        73.37525
867.39        73.15033
867.79        72.61966
868.19        71.83133
868.60        70.84465
869.00        69.70197
869.40        68.44492
869.80        67.38483
870.21        67.02624
870.61        67.52164
871.01        68.68773
871.41        70.03873
871.81        70.78885
872.22        70.76372
872.62        70.17451
873.02        69.35282
873.42        69.06982
873.82        69.29632
874.22        69.30493
874.63        69.17142
875.03        69.16096
875.43        69.25943
875.83         70.4545
876.23        69.87459
876.63        69.10691
877.03        67.69254
877.44        65.73961
877.84        131.2113
878.24         66.9634
878.64        68.43399
879.04        72.27906
879.44         68.7555
879.84         66.7658
880.24        71.22489
880.64        71.53806
881.04        68.74493
881.44        67.01936
881.84        66.98319
882.24        67.97423
882.65        69.39109
883.05        70.03471
883.45        69.52036
883.85        68.53696
884.25        67.58716
884.65        67.13683
885.05        67.33808
885.45        68.01198
885.85        68.82014
886.25        69.22692
886.65        69.07634
887.05        68.54354
887.45        67.92885
887.85        67.67266
888.25        67.88181
888.65        68.41963
889.04        69.05743
889.44        69.33202
889.84        69.15795
890.24        68.68996
890.64        68.16868
891.04           67.95
891.44        68.08909
891.84        68.41235
892.24        68.76145
892.64        68.87196
893.04        68.67075
893.44         68.3248
893.83        67.79607
894.23        67.04322
894.63        66.10713
895.03        64.99819
895.43        64.07443
895.83        63.93508
896.23        64.67837
896.63        66.13948
897.02        67.76206
897.42        68.52544
897.82        68.17759
898.22        67.01448
898.62         65.6023
899.01        64.82397
899.41        64.92385
899.81        65.59413
900.21        66.49673
900.61        67.12569
901.00        67.32739
901.40         67.2574
901.80        67.06872
902.20        66.98087
902.59        67.06585
902.99        67.21866
903.39        67.32493
903.79        67.21321
904.18        66.85332
904.58        66.38756
904.98        65.96919
905.38        65.82293
905.77        65.99673
906.17        66.41206
906.57        66.94582
906.96        67.44044
907.36        67.76941
907.76        67.93226
908.15        67.97334
908.55        67.92016
908.95        67.80902
909.34        67.67634
909.74        67.38405
910.14        66.70594
910.53        65.65997
910.93        64.41261
911.33        63.42526
911.72        63.41712
912.12        64.43526
912.52        66.15835
912.91        67.98489
913.31        68.89735
913.70        68.70944
914.10         67.7013
914.49        66.20285
914.89        65.01144
915.29          64.459
915.68        64.31596
916.08        64.55928
916.47        65.13657
916.87         65.9217
917.26        66.94582
917.66        67.88451
918.05        68.22401
918.45         67.8392
918.84        66.90022
919.24        65.71294
919.64        64.81865
920.03        64.40437
920.42        64.34988
920.82        64.61832
921.21        65.09914
921.61        65.67038
922.00        66.39491
922.40        67.04731
922.79        67.50125
923.19        67.72037
923.58        67.48344
923.98         66.7932
924.37        66.44641
924.77        66.79075
925.16        64.15483
925.55        65.15108
925.95        64.68613
926.34        64.77796
926.74        65.15649
927.13        65.75825
927.52        66.27435
927.92        66.57905
928.31        66.82719
928.70        66.95624
929.10        66.90402
929.49        66.68527
929.89         66.2976
930.28         65.9603
930.67        66.03956
931.07        66.55985
931.46        67.45242
931.85        68.35695
932.24        68.74226
932.64        68.47804
933.03        67.61868
933.42        66.46105
933.82        65.64931
934.21        65.38008
934.60        65.53131
934.99        65.59066
935.39        65.13011
935.78        64.11318
936.17        62.06161
936.56        59.26899
936.96        60.59073
937.35        60.17425
937.74        62.45053
938.13        64.69846
938.53        66.12526
938.92        66.64016
939.31        66.54729
939.70        66.10352
940.09        65.64127
940.49        65.37268
940.88         65.2243
941.27        65.26237
941.66        65.62481
942.05        66.28436
942.44        67.17452
942.84        68.16676
943.23        69.02686
943.62        69.62263
944.01        70.02655
944.40        70.07602
944.79        69.53493
945.18        68.41227
945.57         66.7506
945.97        65.11003
946.36        64.45533
946.75        65.07957
947.14        66.64086
947.53        68.37798
947.92        69.22987
948.31        68.99364
948.70        67.99371
949.09        66.65806
949.48        65.74576
949.87        65.52248
950.26        65.74393
950.65        66.20254
951.04        66.56816
951.43        66.70557
951.82        66.74001
952.21         66.6992
952.60         66.5976
952.99        66.45253
953.38        66.22882
953.77        65.94803
954.16        65.66734
954.55        65.41568
954.94        65.21992
955.33        65.08099
955.72        64.97926
956.11        64.92345
956.50        64.92207
956.89        65.03141
957.28        65.34233
957.66        65.83852
958.05        66.36006
958.44        66.78658
958.83        66.96785
959.22        66.87592
959.61        66.57603
960.00        66.04139
960.39          65.261
960.78        64.31401
961.16        63.22326
961.55        62.29827
961.94        61.87017
962.33        61.99644
962.72        62.61476
963.11        63.39253
963.49        63.75458
963.88        63.46769
964.27        62.70253
964.66        61.84864
965.04         61.5708
965.43        62.01389
965.82        62.97314
966.21         64.0328
966.60         64.5199
966.98        64.28372
967.37        63.53024
967.76        62.66451
968.15        62.31052
968.53        62.63598
968.92        63.34187
969.31        64.14814
969.69        64.59421
970.08        64.47538
970.47        63.99425
970.86        63.22645
971.24        62.24956
971.63        61.21387
972.02        60.11881
972.40        59.14834
972.79        58.65691
973.17        58.74429
973.56         59.2471
973.95        60.04825
974.33        60.89225
974.72        61.51859
975.11        61.96868
975.49        62.07796
975.88        61.60308
976.26         60.5777
976.65        59.14991
977.04        57.61351
977.42         56.5012
977.81        56.01912
978.19        56.01152
978.58        56.47963
978.96        57.38536
979.35        58.56802
979.74         60.1287
980.12        61.62792
980.51         62.0495
980.89        61.34061
981.28         59.7257
981.66        58.10941
982.05        57.77837
982.43        58.90246
982.82        61.07384
983.20        63.56061
983.59        64.72275
983.97        64.15965
984.35        62.29181
984.74        59.95729
985.12         58.3676
985.51        57.89541
985.89        58.15845
986.28        58.81567
986.66        59.22995
987.04        59.07641
987.43        58.69176
987.81        58.06362
988.20        57.06931
988.58        55.62359
988.96         53.5192
989.35        51.13206
989.73        49.76815
990.12        50.13444
990.50        51.93996
990.88        54.05411
991.27        55.14156
991.65         55.2049
992.03         54.5751
992.42        53.90803
992.80        54.37976
993.18        56.26641
993.56         58.8653
993.95        61.42391
994.33        63.37485
994.71        64.38762
995.10        64.71908
995.48        64.42702
995.86        63.47084
996.24        61.93514
996.63        59.81849
997.01        57.40034
997.39        55.69024
997.77        55.20412
998.15        55.68136
998.54        56.68935
998.92        57.71461
999.30        58.64233
999.68        59.74614
1000.06        60.50345
1000.45        59.54842
1000.83        56.83317
1001.21        53.20066
1001.59        50.17732
1001.97        48.86823
1002.35        49.06612
1002.73        50.46526
1003.12        52.36441
1003.50        53.08918
1003.88        51.89656
1004.26        49.45781
1004.64        46.67746
1005.02        44.77292
1005.40        44.08541
1005.78        44.16594
1006.16        45.19424
1006.54        47.33834
1006.92        49.99501
1007.30        52.68523
1007.69         54.5666
1008.07        54.96754
1008.45        53.69106
1008.83        50.56864
1009.21        45.17736
1009.59        38.62754
1009.97        33.18525
1010.35        29.82705
1010.73         29.6636
1011.11        32.58434
1011.49        37.55569
1011.86        44.30592
1012.24        50.03416
1012.62        52.19098
1013.00         50.7342
1013.38        46.62348
1013.76        41.55073
1014.14        38.61746
1014.52        38.76913
1014.90         41.0641
1015.28        44.26601
1015.66        46.26726
1016.04         46.2724
1016.41        44.88334
1016.79        42.30664
1017.17        39.34138
1017.55        36.91803
1017.93        34.99716
1018.31        33.82504
1018.69        33.62266
1019.06        34.15788
1019.44        35.11988
1019.82        36.24549
1020.20        36.65319
1020.58        35.93208
1020.95         34.4464
1021.33        31.98032
1021.71        27.32764
1022.09        19.11853
1022.46        3.057585
1022.84       -21.18642
1023.22       -29.52572
1023.60       -8.000823
1023.97        17.40533
1024.35        32.02109
1024.73        36.97009
