SpectraSmart Spectrum 2.9.0.0
--------- Device Information -----------
Spectrum Name :  反射率_0
Saving Time :  2024/04/20 00:11:53
Spectro-Module Model Name : SE2030-DUVN
Spectro-Module Serial Number : OS361AC55029948
Wavelength Start : 200
Wavelength End : 1025
Wavelength Unit : Wavelength(nm)
Spectrum Unit : Reflectance(%)
-----------Spectrum Setting ------------
Integration Time : 30ms
Average : 10
Boxcar : 0
Background removal :  enabled
linearity correction :  enabled
SC :  disabled
Intensity correction :  disabled
DWT denoise :  enabled
savitzky-golay :  disabled
FFT :  disabled
Running average :  disabled
Kalman :  disabled
High pass :  disabled
---------------BEGIN--------------------
Wavelength(nm)             Reflectance(%)
200.29               0
200.75        61.02637
201.21        61.42449
201.67        64.35644
202.13        70.31767
202.58        79.21244
203.04        91.55163
203.50        102.9534
203.96         103.328
204.42        93.17638
204.88         79.3852
205.34        67.91419
205.80        61.38396
206.26        58.58867
206.72        58.22847
207.18        60.17425
207.64        62.90969
208.10        64.58363
208.55        65.91279
209.01        66.47192
209.47        67.06644
209.93        67.77937
210.39        67.95943
210.85        67.81355
211.31        67.79817
211.77        67.91831
212.23         68.3479
212.69        68.41839
213.14        66.64915
213.60        63.20939
214.06        60.13686
214.52         58.4967
214.98        58.76409
215.44        60.54958
215.90        63.29388
216.36        66.77582
216.81        69.93258
217.27        71.70959
217.73          72.511
218.19        71.41664
218.65         67.0246
219.11        59.21671
219.57        47.89875
220.02        35.54031
220.48         29.0957
220.94        31.07335
221.40         40.4462
221.86        52.47346
222.32         59.6147
222.77        59.95794
223.23          55.696
223.69        50.46762
224.15        49.51677
224.61        52.91048
225.06        57.87925
225.52        61.80737
225.98        62.50734
226.44        60.00008
226.90        55.32938
227.36        49.89095
227.81        46.18221
228.27        45.36559
228.73        46.42644
229.19         48.1597
229.65        49.13116
230.10        49.10694
230.56        48.64444
231.02        48.24248
231.48         48.5041
231.93        49.41529
232.39        50.67762
232.85         51.8079
233.31        52.13856
233.77        51.55177
234.22        50.30902
234.68        48.87059
235.14        47.92622
235.60        47.74884
236.05         48.1752
236.51        49.01865
236.97        50.01053
237.43        51.13572
237.88        52.73211
238.34        54.77916
238.80        57.19206
239.26        59.50161
239.71        61.26731
240.17        62.22307
240.63        62.87776
241.08        63.52003
241.54        64.04095
242.00        64.12867
242.46        63.00423
242.91         60.2275
243.37        55.16304
243.83        48.48989
244.28        45.41286
244.74        50.54676
245.20         62.3856
245.66        73.43506
246.11        77.87112
246.57        75.31126
247.03        66.10413
247.48        52.08206
247.94         46.1263
248.40        51.33309
248.85        59.25858
249.31        65.31448
249.77        68.30642
250.22        69.01196
250.68        68.46623
251.14        67.17535
251.59        66.03389
252.05         65.7619
252.51        66.17216
252.96        66.55852
253.42        66.01112
253.88        64.61884
254.33        63.11255
254.79        63.03585
255.25        65.53142
255.70        70.08856
256.16        75.47136
256.62        80.33538
257.07        83.25439
257.53        84.22226
257.99        83.66953
258.44          81.526
258.90        78.71194
259.35        75.55097
259.81        73.02842
260.27        70.95632
260.72        69.11899
261.18        67.67479
261.63        66.10684
262.09        65.04939
262.55        64.81248
263.00        65.17277
263.46        66.03445
263.91        66.43771
264.37        65.61433
264.83         63.5873
265.28        60.72056
265.74         58.0877
266.19        56.68499
266.65        56.70494
267.11         57.5727
267.56        58.57427
268.02        58.70526
268.47        57.75112
268.93        56.07354
269.38        54.03862
269.84        52.46189
270.30        51.56882
270.75        51.12565
271.21         50.8717
271.66        50.39874
272.12        49.59213
272.57         48.5903
273.03        47.58688
273.48        46.76627
273.94         46.2292
274.39        45.84322
274.85        45.49932
275.31        44.99329
275.76        44.25631
276.22        43.38176
276.67        42.46405
277.13        41.77373
277.58        41.28734
278.04        40.97533
278.49        40.60046
278.95        39.92352
279.40        38.88321
279.86        37.67983
280.31        36.48236
280.77        35.68858
281.22        35.28096
281.68        35.16324
282.13        35.12177
282.59        34.90029
283.04        34.42595
283.50        33.83577
283.95        33.20607
284.41        32.69551
284.86        32.32355
285.32        32.07106
285.77          31.914
286.22        31.89499
286.68        31.99548
287.13        32.16447
287.59        32.34975
288.04        32.43544
288.50        32.41691
288.95        32.28214
289.41        32.08251
289.86        31.81655
290.32        31.55519
290.77        31.30209
291.22        31.11557
291.68        31.04373
292.13        31.10606
292.59        31.31854
293.04        31.69448
293.50        32.26881
293.95        33.01595
294.40        33.90166
294.86         34.8549
295.31        35.77729
295.77        36.63521
296.22         37.4386
296.68        38.19599
297.13        38.90982
297.58        39.59658
298.04        40.26233
298.49        40.92756
298.95        41.67223
299.40        42.48967
299.85        43.35631
300.31        44.23856
300.76        45.06454
301.21        45.81347
301.67        46.53326
302.12        47.17226
302.58        47.73845
303.03        48.21157
303.48        48.61585
303.94        49.05308
304.39        49.63014
304.84        50.36403
305.30        51.19705
305.75        51.97104
306.20        52.47886
306.66        52.70329
307.11        52.69908
307.57        52.59597
308.02         52.4964
308.47        52.47382
308.93        52.48831
309.38        52.54741
309.83        52.72707
310.29        53.01308
310.74        53.38478
311.19        53.69321
311.65        53.69282
312.10        53.34049
312.55        52.71488
313.00        52.03157
313.46         51.6281
313.91        51.55796
314.36        51.73217
314.82          51.958
315.27        51.94612
315.72        51.61051
316.18        51.07659
316.63        50.46621
317.08        49.97651
317.53        49.66263
317.99        49.44507
318.44        49.29091
318.89        49.14046
319.35          48.961
319.80        48.77522
320.25        48.55666
320.70        48.25799
321.16        47.86985
321.61        47.41253
322.06        46.91733
322.51        46.45009
322.97        46.02717
323.42        45.64235
323.87        45.29386
324.32        44.98128
324.78        44.68908
325.23        44.43872
325.68        44.17621
326.13        43.81877
326.59        43.35309
327.04        42.82518
327.49        42.31343
327.94        41.95697
328.39        41.78344
328.85        41.72686
329.30         41.7488
329.75        41.70974
330.20        41.55861
330.66        41.31149
331.11        41.00648
331.56        40.64137
332.01        40.23043
332.46        39.76988
332.92        39.29396
333.37        38.88982
333.82        38.58261
334.27        38.37753
334.72        38.24738
335.17        38.13338
335.63        38.00336
336.08         37.8787
336.53        37.78193
336.98        37.77219
337.43        37.84965
337.88        37.98666
338.34        38.07222
338.79        37.97878
339.24        37.66503
339.69        37.17567
340.14        36.66175
340.59        36.37683
341.05        36.37329
341.50        36.58551
341.95        36.85855
342.40        36.94791
342.85        36.79451
343.30         36.4822
343.75        36.11229
344.20        35.85072
344.66        35.74205
345.11        35.70329
345.56        35.70424
346.01        35.69751
346.46        35.65428
346.91        35.60847
347.36        35.49769
347.81        35.21398
348.26        34.76572
348.72        34.21621
349.17        33.68901
349.62        33.46386
350.07        33.59785
350.52        33.98975
350.97         34.4807
351.42        34.83325
351.87        34.96754
352.32        34.93496
352.77        34.76836
353.22        34.52706
353.67         34.2485
354.13        33.93886
354.58        33.59531
355.03        33.26024
355.48        32.95866
355.93        32.70613
356.38        32.53801
356.83        32.49431
357.28        32.56649
357.73          32.723
358.18        32.89275
358.63        32.96255
359.08         32.8934
359.53        32.70924
359.98        32.43988
360.43         32.1357
360.88        31.82363
361.33        31.50086
361.78        31.18715
362.23        30.91688
362.68        30.69916
363.13        30.52468
363.58         30.3854
364.03        30.26094
364.48        30.13267
364.93        29.99875
365.38        29.81975
365.83        29.53708
366.28        29.15236
366.73        28.69551
367.18        28.23856
367.63        27.89332
368.08        27.68641
368.53        27.58441
368.98        27.54266
369.43        27.48584
369.88         27.3878
370.33        27.27217
370.78        27.13444
371.23        26.97018
371.68        26.78534
372.13        26.57005
372.58        26.36695
373.03        26.25453
373.48        26.24101
373.93        26.29871
374.38        26.35225
374.83        26.28227
375.28        26.06432
375.72        25.72942
376.17        25.36105
376.62        25.05473
377.07        24.84967
377.52        24.71877
377.97        24.64616
378.42        24.60623
378.87        24.57963
379.32         24.5684
379.77        24.55686
380.22        24.51683
380.67        24.44159
381.11        24.34127
381.56        24.20249
382.01        24.03006
382.46        23.83237
382.91        23.60575
383.36        23.39609
383.81        23.27003
384.26        23.23281
384.71        23.27143
385.15        23.29744
385.60        23.17991
386.05        22.89968
386.50         22.5035
386.95        22.11164
387.40        21.91535
387.85         21.9501
388.29         22.1413
388.74        22.37111
389.19        22.46062
389.64        22.36673
390.09        22.13452
390.54        21.84824
390.98        21.63513
391.43        21.55069
391.88        21.54632
392.33         21.5403
392.78        21.41727
393.23        21.17035
393.67        20.83657
394.12        20.54613
394.57        20.40552
395.02        20.43133
395.47        20.58102
395.91        20.76503
396.36        20.80451
396.81        20.66419
397.26        20.39667
397.71        20.11016
398.15        19.94899
398.60        19.96516
399.05        20.09358
399.50        20.24052
399.95        20.27284
400.39        20.16142
400.84        19.94496
401.29        19.70639
401.74        19.59688
402.18        19.66122
402.63        19.83813
403.08        20.02382
403.53        20.05273
403.97        19.89014
404.42        19.60469
404.87        19.29476
405.32        19.12149
405.76        19.12421
406.21        19.24648
406.66        19.41241
407.11         19.5042
407.55        19.48791
408.00        19.40448
408.45        19.28427
408.90        19.12903
409.34        18.98077
409.79        18.92981
410.24        18.93995
410.68        18.87584
411.13        18.73462
411.58        18.59184
412.03        18.48199
412.47        18.43721
412.92         18.4631
413.37        18.53926
413.81         18.6385
414.26        18.73394
414.71        18.80467
415.15        18.86441
415.60        18.87265
416.05        18.79609
416.49        18.63386
416.94        18.40484
417.39        18.16898
417.83        18.02293
418.28        17.99599
418.73        18.05597
419.17         18.1516
419.62        18.18894
420.07        18.14739
420.51        18.05441
420.96        17.94414
421.41        17.85033
421.85        17.78135
422.30        17.73759
422.74        17.71312
423.19         17.7305
423.64        17.77931
424.08        17.86176
424.53          17.938
424.98        17.96732
425.42        17.94151
425.87        17.87632
426.31        17.78098
426.76        17.67977
427.21        17.57204
427.65        17.44188
428.10        17.33614
428.54        17.30763
428.99         17.3685
429.44         17.5815
429.88        17.81035
430.33         17.7249
430.77        17.37926
431.22        17.14211
431.66        17.09752
432.11        17.18003
432.56        17.37769
433.00        17.75501
433.45        18.10032
433.89        18.07237
434.34         17.7649
434.78        17.41002
435.23        17.04143
435.67        17.72894
436.12        17.20818
436.57        17.14501
437.01         16.9236
437.46        16.83635
437.90         16.8911
438.35         16.9485
438.79        16.97695
439.24        17.00553
439.68        17.02475
440.13        16.88514
440.57        16.67688
441.02        16.81874
441.46        17.14989
441.91        17.14741
442.35        16.42836
442.80         16.1623
443.24        16.18543
443.69        16.13667
444.13        15.99507
444.58        15.90957
445.02         15.8868
445.47        15.92863
445.91         15.9998
446.36        16.00549
446.80        15.92694
447.24        15.81102
447.69        15.69187
448.13        15.58819
448.58        15.51783
449.02        15.47016
449.47        15.43442
449.91        15.38654
450.36        15.32734
450.80        15.26563
451.25        15.21804
451.69         15.1913
452.13        15.19305
452.58        15.21058
453.02        15.24394
453.47        15.29452
453.91        15.35844
454.36        15.43023
454.80        15.48626
455.24        15.48789
455.69        15.43442
456.13        15.32313
456.58        15.20078
457.02        15.12778
457.46        15.11568
457.91         15.1144
458.35        15.10636
458.79        15.10094
459.24        15.08914
459.68        15.07177
460.13        15.09899
460.57        15.10167
461.01        15.06579
461.46         15.3979
461.90        15.48613
462.34        15.32125
462.79         15.4122
463.23         15.2488
463.68        15.09928
464.12        14.99703
464.56        15.08158
465.01        15.22698
465.45        15.37858
465.89        15.47248
466.34        15.49741
466.78        15.42382
467.22        15.30578
467.67        15.33994
468.11        15.49555
468.55        15.46387
468.99        15.27517
469.44        15.22745
469.88        15.33453
470.32        15.43542
470.77        15.48774
471.21        15.50338
471.65        15.47229
472.10        15.39254
472.54        15.30263
472.98        15.29901
473.42        15.39419
473.87        15.51441
474.31        15.61765
474.75        15.73447
475.20        15.81997
475.64         15.7243
476.08        15.52838
476.52        15.49226
476.97        15.63764
477.41        15.85026
477.85         16.0547
478.29         16.1749
478.74        16.18553
479.18        16.08345
479.62        15.95533
480.06        15.93899
480.50        16.04145
480.95        16.14929
481.39        16.21652
481.83        16.24819
482.27         16.2352
482.72        16.18108
483.16        16.12975
483.60        16.13412
484.04        16.19906
484.48        16.41135
484.93        16.77607
485.37        16.86136
485.81        16.87449
486.25        17.45491
486.69        18.11516
487.14        17.66234
487.58        17.53968
488.02        17.93993
488.46        17.72978
488.90        17.80641
489.34        17.71166
489.79        17.85653
490.23        18.17031
490.67        18.40891
491.11        18.51591
491.55         18.4444
491.99        18.25681
492.43        18.17989
492.88        18.25672
493.32        18.34741
493.76        18.45613
494.20        18.65443
494.64        18.93648
495.08          19.272
495.52        19.61263
495.96        19.89862
496.41        20.11235
496.85        20.22903
497.29        20.28458
497.73         20.4375
498.17        20.67337
498.61         20.7687
499.05        20.74672
499.49        20.85574
499.93         21.1125
500.37        21.33529
500.82        21.50649
501.26        21.77363
501.70          22.076
502.14        22.12539
502.58        21.97932
503.02         21.9812
503.46        22.15925
503.90        22.33795
504.34        22.46708
504.78        22.54089
505.22        22.54624
505.66        22.49558
506.10        22.43333
506.54        22.42683
506.98        22.49644
507.42        22.62547
507.86        22.78754
508.30        22.93762
508.74        23.05818
509.18        23.15808
509.62         23.2494
510.06        23.35081
510.50        23.46733
510.94        23.59322
511.38        23.70528
511.82        23.76896
512.26        23.77897
512.70         23.7451
513.14        23.71052
513.58        23.73908
514.02        23.83501
514.46        23.97982
514.90        24.12044
515.34        24.10975
515.78        23.96897
516.22        23.79797
516.66        23.67726
517.10        23.39548
517.54        22.97445
517.98        23.50033
518.42        23.35707
518.86        23.58997
519.30        23.69767
519.74        23.83454
520.18          23.955
520.62        23.96616
521.06        23.87512
521.50        23.69306
521.93        23.47621
522.37        23.32711
522.81        23.27197
523.25        23.28482
523.69        23.32939
524.13        23.34659
524.57        23.31616
525.01        23.25424
525.45         23.1751
525.89        23.09941
526.32        23.03388
526.76         22.9737
527.20        22.90367
527.64        22.80685
528.08         22.6806
528.52        22.52803
528.96        22.38181
529.40        22.28844
529.83        22.25345
530.27        22.27091
530.71        22.28089
531.15        22.19026
531.59        21.98871
532.03        21.71031
532.46        21.44033
532.90        21.32977
533.34        21.39702
533.78        21.58652
534.22        21.80592
534.66        21.91353
535.09        21.86866
535.53        21.72387
535.97        21.52746
536.41        21.35329
536.85        21.23276
537.28        21.15703
537.72        21.12998
538.16         21.0939
538.60        21.14583
539.04        21.19564
539.47        21.25935
539.91        21.36647
540.35        21.52446
540.79          21.541
541.22        21.67833
541.66        21.75965
542.10        21.88557
542.54        21.71455
542.97        21.85537
543.41         21.9567
543.85        22.18347
544.29        22.45771
544.72        22.72183
545.16        22.95343
545.60        23.13037
546.04        23.19193
546.47        23.21365
546.91        23.46313
547.35        23.88857
547.79        24.17495
548.22         24.2953
548.66         24.3779
549.10        24.46571
549.53        24.72872
549.97        25.15199
550.41        25.25018
550.84        25.47708
551.28        25.59134
551.72        25.78022
552.15        26.03118
552.59        26.35116
553.03        26.72462
553.46        27.06948
553.90        27.29117
554.34        27.37127
554.77        27.34408
555.21         27.2901
555.65        27.32248
556.08        27.46607
556.52        27.68687
556.96        27.93344
557.39         28.1502
557.83        28.31163
558.27        28.39302
558.70         28.4193
559.14        28.46436
559.57        28.53351
560.01        28.62869
560.45        28.72547
560.88         28.7458
561.32        28.74508
561.75        28.80775
562.19        29.03846
562.63        29.18525
563.06        29.26867
563.50        29.37103
563.93        29.48462
564.37        29.65257
564.80        29.73679
565.24        29.85765
565.68        29.96495
566.11        30.08488
566.55        30.24009
566.98         30.3675
567.42        30.44893
567.85        30.83954
568.29         30.7456
568.72        31.11469
569.16        31.62362
569.60        31.98064
570.03        32.14492
570.47        32.27237
570.90        32.23772
571.34        32.70804
571.77        32.66723
572.21        32.97121
572.64        33.24231
573.08        33.47234
573.51        33.58491
573.95        33.77605
574.38         34.4286
574.82        34.67543
575.25        34.65221
575.69        34.52732
576.12        34.67392
576.56        34.60522
576.99        34.44069
577.42         34.6558
577.86        34.84401
578.29        34.64137
578.73        35.24792
579.16        35.07287
579.60        34.43214
580.03        34.17315
580.47          34.302
580.90        34.07206
581.33        33.86145
581.77        33.90487
582.20        34.11248
582.64        34.05545
583.07        33.59422
583.51        33.39686
583.94        32.92926
584.37        32.56807
584.81        32.17146
585.24        32.06728
585.68        32.15687
586.11         32.0292
586.54        32.01656
586.98        31.63777
587.41        31.70654
587.85        31.66757
588.28        31.69767
588.71        31.51339
589.15        31.15292
589.58        30.98542
590.01        30.98322
590.45         31.1639
590.88        31.21339
591.31        31.06925
591.75        30.66524
592.18        30.80921
592.61        30.82919
593.05        30.98173
593.48         30.9234
593.91        31.67495
594.35        31.32176
594.78        31.54446
595.21        31.83877
595.65        32.15622
596.08        32.22142
596.51        32.23067
596.94        32.21149
597.38        32.33066
597.81        32.66666
598.24        32.77289
598.68        33.56323
599.11        33.63557
599.54        34.91576
599.97        34.83752
600.41        34.93538
600.84        35.83848
601.27        36.25449
601.70        36.85162
602.14        37.13158
602.57        37.59405
603.00        38.22451
603.43        38.74849
603.87        39.01751
604.30        39.61721
604.73         40.4961
605.16        40.71397
605.60        41.33302
606.03        41.90635
606.46        42.59375
606.89        43.33591
607.32        44.10735
607.76        43.99966
608.19        44.60625
608.62        45.31414
609.05        45.27328
609.48        45.63465
609.92        46.06908
610.35        46.27214
610.78        47.21276
611.21        48.12627
611.64        47.78822
612.07        48.31245
612.50        48.71787
612.94        48.55819
613.37        49.31328
613.80        49.66406
614.23        50.06996
614.66        50.64373
615.09        50.87769
615.52        51.44272
615.96        51.85399
616.39         52.1835
616.82        52.41302
617.25        52.23529
617.68        52.46184
618.11        52.92518
618.54        53.38785
618.97        53.60531
619.40        53.47081
619.84        53.46383
620.27        53.14705
620.70        53.64309
621.13        54.58253
621.56        54.96148
621.99        54.88589
622.42         54.6645
622.85        55.08146
623.28        55.16565
623.71        55.12716
624.14        55.18623
624.57        55.11987
625.00        54.96464
625.43         55.1403
625.86        54.45179
626.29        54.49794
626.72        54.23383
627.15        54.14248
627.58          53.995
628.01        53.70464
628.44        53.79243
628.87        53.62534
629.30        52.70701
629.73        52.70103
630.16          52.224
630.59         51.9102
631.02         51.4976
631.45        51.02346
631.88        50.60596
632.31        50.11365
632.74        49.60183
633.17        49.03443
633.60        48.44324
634.03        47.83549
634.46        47.21042
634.89        46.57673
635.32        45.94257
635.75         45.3189
636.18        44.71789
636.61        44.14371
637.04         43.5945
637.47        43.06662
637.89        42.55904
638.32        42.07283
638.75        41.63688
639.18        41.25663
639.61        40.93037
640.04         40.6203
640.47        40.26227
640.90        39.84873
641.33        39.40382
641.76        38.99007
642.18        38.71373
642.61        38.59177
643.04        38.59107
643.47        38.65747
643.90        38.69982
644.33        38.69164
644.76        38.66666
645.18        38.64435
645.61        38.65807
646.04        38.72691
646.47        38.83809
646.90        39.01876
647.33        39.32221
647.75        39.75043
648.18        40.26123
648.61        40.80114
649.04         41.3244
649.47        41.79108
649.89        42.13037
650.32        42.41557
650.75        42.86302
651.18        43.52087
651.61        44.25869
652.03        45.05346
652.46        46.05531
652.89        47.11739
653.32        47.86565
653.74        47.79686
654.17        48.74943
654.60        49.35957
655.03        50.85922
655.46        50.32635
655.88         52.0837
656.31        53.58444
656.74        60.74963
657.16        59.68337
657.59        56.74334
658.02         56.1398
658.45        55.48061
658.87        56.74846
659.30        57.20921
659.73        57.82117
660.15        58.87877
660.58        58.70554
661.01        58.69807
661.44        58.53908
661.86        58.84076
662.29         59.5679
662.72        60.40776
663.14        61.14838
663.57        61.24816
664.00        60.88246
664.42         60.9122
664.85        61.41904
665.27        61.84383
665.70        62.10856
666.13         62.3946
666.55        62.68645
666.98        62.92031
667.41        63.10857
667.83        63.26948
668.26        63.40245
668.69        63.52141
669.11        63.62675
669.54        63.71615
669.96        63.80359
670.39        63.89026
670.82        64.01448
671.24        64.24367
671.67        64.58104
672.09        64.94687
672.52        65.27219
672.94        65.57385
673.37        65.76622
673.80        65.54782
674.22        65.08931
674.65        64.95531
675.07        65.23199
675.50        65.63554
675.92        66.03589
676.35        66.28206
676.77        66.32123
677.20        66.20882
677.62        66.03396
678.05         65.9445
678.47        65.97945
678.90        66.09943
679.32        66.26958
679.75        66.42144
680.17        66.52552
680.60        66.65141
681.02        66.80885
681.45        66.80888
681.87         66.8433
682.30        67.01303
682.72        67.30884
683.15        67.37914
683.57        67.25743
684.00         67.1952
684.42        67.34782
684.85        67.49941
685.27        67.68435
685.70        67.97723
686.12         68.2875
686.54         68.5304
686.97        68.56592
687.39        68.48377
687.82        68.31907
688.24        68.34441
688.66         68.5293
689.09        68.54291
689.51         68.4168
689.94        68.43136
690.36        68.61951
690.78        68.78481
691.21        68.87001
691.63        69.02641
692.06        69.27167
692.48        69.03286
692.90        69.03285
693.33        69.44416
693.75        69.28665
694.17        69.57138
694.60        69.84428
695.02        69.72472
695.44        69.26892
695.87        69.16396
696.29        69.39358
696.71        69.26499
697.14        69.03325
697.56        69.19643
697.98        70.08536
698.41        70.97665
698.83        70.98061
699.25        69.86439
699.68        70.33562
700.10        70.13501
700.52        70.17031
700.94        70.37194
701.37        70.66088
701.79        70.88726
702.21        70.95152
702.64        70.92208
703.06        70.86436
703.48        70.89515
703.90        71.04317
704.33        71.27438
704.75        71.49447
705.17         71.4956
705.59        71.24555
706.01        70.90845
706.44        70.51067
706.86        70.48022
707.28        70.81501
707.70        71.41836
708.12        72.08777
708.55        72.48138
708.97        72.53049
709.39         72.3952
709.81         72.1718
710.23        71.97832
710.66        71.88495
711.08        71.87974
711.50        71.93957
711.92        72.03146
712.34        72.14262
712.76        72.29887
713.19         72.4607
713.61        72.61299
714.03        72.71615
714.45        72.77101
714.87        72.81086
715.29        72.89838
715.71        73.04487
716.13        73.22749
716.56        73.38932
716.98        73.53276
717.40        73.59479
717.82        73.60606
718.24        73.58777
718.66        73.58337
719.08         73.6065
719.50        73.64621
719.92        73.68482
720.34        73.69077
720.76        73.65777
721.19        73.59766
721.61        73.54832
722.03        73.51661
722.45        73.53115
722.87        73.61285
723.29        73.75034
723.71        73.81532
724.13        73.84649
724.55        74.07484
724.97        74.46609
725.39        74.73788
725.81        74.85556
726.23        74.99249
726.65        75.18762
727.07        75.21453
727.49        75.45557
727.91        75.60341
728.33        75.73145
728.75        75.76662
729.17        75.71172
729.59        75.59482
730.01        75.44196
730.43        75.39599
730.85        75.49706
731.27        75.50549
731.69        75.40594
732.10        76.02783
732.52        76.20326
732.94        76.36056
733.36        76.18079
733.78        76.07902
734.20        76.12091
734.62        76.05146
735.04        75.84948
735.46        75.98782
735.88        76.05231
736.30        75.59586
736.72        75.94246
737.13        76.02188
737.55         76.1966
737.97        76.62786
738.39        77.11986
738.81        76.98994
739.23        76.40964
739.65        76.16879
740.06        76.22271
740.48        76.83765
740.90        77.06328
741.32        76.21735
741.74        76.08911
742.16        76.11279
742.57        76.13708
742.99        76.35942
743.41        76.51677
743.83        76.69394
744.25        76.83768
744.67        76.93925
745.08        76.98305
745.50        76.89469
745.92        76.68781
746.34        76.37929
746.75        76.06171
747.17        75.86165
747.59         75.8186
748.01        75.98183
748.42        76.25457
748.84        76.34071
749.26        76.28788
749.68          76.273
750.09        76.36917
750.51        76.83107
750.93        77.44563
751.35        77.37657
751.76        76.73428
752.18        76.44621
752.60         76.6258
753.01        76.67283
753.43        76.57848
753.85        76.60013
754.27        76.73763
754.68        76.98508
755.10         77.2508
755.52        77.27265
755.93        77.09073
756.35         77.0392
756.77        77.15033
757.18        77.27375
757.60        77.46979
758.02        77.68171
758.43        77.75407
758.85        78.21438
759.26         78.3737
759.68        77.50269
760.10        77.52288
760.51        77.34834
760.93        77.73586
761.34        76.66777
761.76        77.46532
762.18        77.06051
762.59        76.61269
763.01        76.44828
763.42        77.15997
763.84        77.50373
764.26        77.54763
764.67        77.58173
765.09        77.56134
765.50        77.97597
765.92        78.62711
766.33        78.91129
766.75        78.67502
767.16        78.12901
767.58         77.4649
768.00        77.10915
768.41         77.2096
768.83        77.63613
769.24         78.2047
769.66        78.57961
770.07        78.67001
770.49        78.59983
770.90        78.49973
771.32          78.608
771.73        78.85576
772.15         78.9485
772.56        78.83989
772.97        78.37077
773.39        77.69644
773.80        77.68817
774.22        78.19057
774.63        78.00495
775.05         77.2578
775.46        77.15519
775.88         77.7314
776.29        78.37982
776.70        78.84372
777.12        79.01967
777.53        78.84433
777.95         78.3131
778.36        77.69237
778.77        77.43981
779.19        77.67059
779.60        78.32233
780.02        79.04545
780.43        79.47632
780.84        79.51799
781.26        78.80241
781.67        77.82143
782.09        78.55083
782.50        80.50327
782.91         80.7476
783.33        79.38622
783.74        78.92215
784.15        79.47024
784.57        79.90895
784.98        80.02721
785.39        79.54865
785.81        78.67432
786.22        78.46517
786.63        78.85816
787.04        78.97497
787.46         78.8248
787.87        78.73137
788.28        78.67633
788.70        79.50186
789.11        79.27398
789.52        79.66372
789.93         80.0198
790.35         80.0965
790.76        79.94347
791.17         79.8885
791.58        79.98129
792.00        80.03622
792.41        79.96501
792.82        79.73425
793.23        79.33437
793.65         78.7028
794.06        78.23524
794.47        78.56708
794.88        79.32157
795.29        80.97347
795.71        80.47532
796.12         79.8707
796.53        80.29626
796.94        79.67715
797.35        78.82713
797.76        78.64084
798.18        79.11433
798.59        79.38786
799.00        79.38991
799.41        79.49366
799.82        79.98123
800.23        80.17415
800.64        80.13073
801.06        79.90711
801.47        79.66457
801.88        79.60125
802.29        79.75613
802.70        80.04009
803.11        80.32301
803.52        80.39636
803.93        80.22762
804.34        79.91928
804.75        79.54328
805.17        79.30437
805.58        79.29952
805.99        79.12729
806.40        78.91011
806.81        79.65869
807.22        80.97778
807.63        81.00575
808.04         79.9286
808.45        79.54279
808.86        80.07099
809.27        80.82227
809.68        81.55593
810.09        81.97852
810.50        81.96308
810.91        81.73672
811.32        81.44168
811.73         81.1346
812.14        80.87058
812.55        80.76588
812.96        80.74635
813.37        80.39828
813.78        79.83731
814.19        79.74191
814.60        80.05289
815.01        80.15212
815.42        80.00802
815.83        79.94499
816.24        80.01953
816.65        80.16575
817.05        80.39024
817.46        80.65152
817.87        80.89186
818.28        80.97813
818.69        80.90521
819.10        80.71958
819.51        80.51502
819.92        80.53653
820.33         80.8506
820.74        81.15742
821.14        81.44132
821.55        82.14957
821.96        83.00968
822.37        82.89436
822.78         81.9485
823.19        81.45507
823.60        81.54103
824.00        81.52097
824.41        81.30387
824.82        81.20002
825.23        81.21074
825.64        81.27539
826.04        81.39201
826.45        81.49874
826.86        81.58672
827.27         81.6668
827.68        81.72836
828.08        81.78106
828.49        81.76595
828.90        81.71214
829.31        81.64089
829.72        81.59275
830.12        81.60149
830.53        81.62639
830.94        81.65977
831.35        81.65404
831.75        81.62425
832.16        81.53999
832.57        81.45945
832.97        81.45714
833.38        81.52197
833.79        81.62543
834.20        81.72243
834.60        81.73472
835.01        81.66603
835.42        81.56299
835.82        81.43712
836.23        81.24873
836.64        81.03313
837.04        80.78403
837.45        80.61878
837.86        80.77641
838.26        81.29854
838.67        82.08504
839.08        82.85857
839.48        83.09651
839.89        82.67977
840.29        81.80705
840.70         80.8974
841.11        80.48553
841.51        80.71614
841.92        81.37237
842.33        82.28279
842.73        83.14307
843.14        83.70519
843.54        84.11639
843.95        84.28318
844.35        84.15063
844.76        83.75222
845.17        83.11624
845.57        82.42916
845.98        82.01873
846.38        81.96416
846.79        82.20099
847.19        82.65049
847.60        82.99512
848.00        83.19183
848.41        83.24029
848.81        83.28233
849.22        83.45481
849.62        83.82793
850.03        84.28964
850.43        84.72412
850.84        84.81339
851.24        84.55015
851.65        83.97747
852.05        83.36641
852.46        83.03376
852.86        83.07674
853.27        83.41145
853.67        83.82023
854.07        84.12178
854.48        84.21915
854.88        84.20322
855.29        84.06626
855.69        83.96039
856.10        83.83685
856.50        83.74992
856.90        83.64781
857.31        83.49727
857.71        83.38486
858.12         83.2752
858.52        83.24515
858.92        83.28745
859.33        83.37492
859.73        83.54042
860.13        83.74422
860.54        83.92374
860.94        84.11263
861.34        84.26182
861.75         84.2898
862.15        84.18505
862.55        83.91247
862.96        83.51454
863.36        83.08975
863.76        82.76482
864.17        82.58292
864.57        82.53609
864.97        82.60867
865.38        82.74341
865.78        82.96108
866.18         83.2053
866.58        83.38441
866.99        83.34698
867.39        83.11356
867.79        82.69396
868.19        82.10869
868.60        81.37773
869.00        80.50691
869.40        79.53799
869.80        78.69644
870.21         78.3398
870.61        78.59748
871.01        79.32539
871.41        80.14638
871.81        80.44801
872.22        80.11578
872.62        79.35609
873.02        78.47877
873.42        78.14526
873.82        78.36418
874.22        78.57755
874.63        78.82241
875.03        79.25475
875.43        79.77969
875.83        81.00011
876.23        80.96903
876.63        80.61498
877.03        79.61517
877.44        78.00042
877.84        120.5244
878.24        77.85059
878.64        78.60703
879.04        81.13053
879.44        78.68974
879.84        77.19708
880.24        80.03333
880.64        79.97377
881.04        77.68773
881.44         76.1396
881.84        75.82155
882.24          76.268
882.65        77.01721
883.05        77.21487
883.45        76.56915
883.85         75.6278
884.25        74.83985
884.65        74.63906
885.05         75.1367
885.45        76.14413
885.85        77.30701
886.25        78.05103
886.65        78.18452
887.05        77.87146
887.45        77.36196
887.85        77.03299
888.25        77.00587
888.65        77.18408
889.04        77.45198
889.44        77.53876
889.84        77.40738
890.24        77.12859
890.64        76.86606
891.04        76.85454
891.44        77.09955
891.84        77.47919
892.24        77.75205
892.64        77.51924
893.04        76.74576
893.44        75.68559
893.83        74.54301
894.23        73.63152
894.63        73.03408
895.03        72.63892
895.43        72.58997
895.83           73.13
896.23        74.21606
896.63         75.7387
897.02        77.21844
897.42        77.77126
897.82        77.22355
898.22        75.87051
898.62        74.22539
899.01        73.09077
899.41        72.74289
899.81        72.92648
900.21        73.52967
900.61        74.37489
901.00        75.32491
901.40         76.3993
901.80        77.38936
902.20        77.91783
902.59        77.90284
902.99        77.40483
903.39        76.61685
903.79         75.9017
904.18        75.40416
904.58        75.10421
904.98        75.01678
905.38        75.15793
905.77        75.48265
906.17        75.98274
906.57        76.51884
906.96        76.88573
907.36        76.97427
907.76         76.8119
908.15        76.46943
908.55        76.02951
908.95        75.56316
909.34        75.09801
909.74        74.61123
910.14        74.06794
910.53        73.49363
910.93         72.9823
911.33        72.72858
911.72        73.03937
912.12        73.89671
912.52        75.10434
912.91        76.32314
913.31         76.9493
913.70        76.89537
914.10        76.31529
914.49        75.37837
914.89        74.52661
915.29         73.9774
915.68        73.64155
916.08         73.6024
916.47        73.93333
916.87        74.55827
917.26        75.42545
917.66        76.27904
918.05        76.73344
918.45        76.65744
918.84        76.20052
919.24        75.43536
919.64        74.51821
920.03        73.57841
920.42        72.62535
920.82         71.9579
921.21        71.97208
921.61        72.65994
922.00        73.94754
922.40        75.32631
922.79        76.18657
923.19        76.32627
923.58        75.72617
923.98        74.64449
924.37        74.12556
924.77        74.58426
925.16         73.0891
925.55        74.41698
925.95        74.39093
926.34        74.42824
926.74        74.43684
927.13        74.59035
927.52        74.96757
927.92        75.52478
928.31        76.28174
928.70        76.94878
929.10        77.05885
929.49        76.52197
929.89        75.48361
930.28        74.38992
930.67        73.94961
931.07        74.30354
931.46         75.2907
931.85        76.45464
932.24        77.11775
932.64        77.08976
933.03        76.47803
933.42        75.58976
933.82        75.07008
934.21         75.0804
934.60        75.43526
934.99        75.61774
935.39        75.12764
935.78        73.91692
936.17        71.71748
936.56        68.85942
936.96        69.38524
937.35        68.93599
937.74        70.84757
938.13        72.91644
938.53         74.4224
938.92        75.26228
939.31        75.70558
939.70        75.84041
940.09        75.69946
940.49        75.38091
940.88        74.88519
941.27        74.45199
941.66        74.48663
942.05        75.03336
942.44        75.96707
942.84        77.05489
943.23        77.89067
943.62        78.30796
944.01        78.45885
944.40        78.30974
944.79        77.82473
945.18        77.04919
945.57        75.92936
945.97        74.88933
946.36        74.65901
946.75        75.41325
947.14         76.8997
947.53        78.37488
947.92        78.79436
948.31        78.01021
948.70        76.35561
949.09        74.44608
949.48        73.37508
949.87        73.47932
950.26        74.41327
950.65        75.72227
951.04        76.64514
951.43        76.89951
951.82        76.71011
952.21        76.22816
952.60        75.68523
952.99        75.19964
953.38        74.69883
953.77        74.20429
954.16        73.77831
954.55        73.44944
954.94        73.25241
955.33        73.22843
955.72        73.40446
956.11        73.77765
956.50        74.33453
956.89        74.96463
957.28        75.45383
957.66        75.72216
958.05        75.73701
958.44        75.62408
958.83        75.57278
959.22        75.62058
959.61         75.7206
960.00        75.74817
960.39        75.49156
960.78        74.92058
961.16         74.1104
961.55        73.31566
961.94        72.78603
962.33        72.58632
962.72        72.65233
963.11        72.81853
963.49        72.82184
963.88        72.51387
964.27        72.02388
964.66         71.5396
965.04        71.37166
965.43        71.58305
965.82        72.07865
966.21        72.67857
966.60         73.0914
966.98        73.24873
967.37        73.21525
967.76        73.14912
968.15        73.29063
968.53        73.69995
968.92        74.18417
969.31        74.64626
969.69         74.9255
970.08        74.91022
970.47        74.72501
970.86        74.30633
971.24         73.5171
971.63        72.44135
972.02        71.13629
972.40        69.94952
972.79        69.48466
973.17        69.90912
973.56        70.97458
973.95        72.31442
974.33        73.24939
974.72        73.42178
975.11        73.02094
975.49        72.22149
975.88        71.29654
976.26        70.40077
976.65        69.53869
977.04        68.72408
977.42        68.00677
977.81        67.44362
978.19        67.03304
978.58        67.00964
978.96        67.75978
979.35        69.22383
979.74          71.343
980.12        73.48241
980.51        74.26824
980.89          73.529
981.28        71.64384
981.66        69.58795
982.05        68.74321
982.43        69.32397
982.82        70.90376
983.20        72.86919
983.59         73.8091
983.97        73.38585
984.35        71.93894
984.74        70.15398
985.12        68.99059
985.51         68.7319
985.89        69.10344
986.28        69.71231
986.66          69.918
987.04        69.44038
987.43         68.6522
987.81         67.7705
988.20        67.01787
988.58         66.3806
988.96         65.6781
989.35        64.99117
989.73        64.71906
990.12        64.98168
990.50        65.79217
990.88        66.59904
991.27        66.74001
991.65        66.28127
992.03        65.35823
992.42        64.53037
992.80        64.86029
993.18        66.57759
993.56        69.11148
993.95         71.6544
994.33        73.49434
994.71        74.29758
995.10        74.30422
995.48        73.75345
995.86        72.92909
996.24        71.97955
996.63        70.85378
997.01        69.52306
997.39        68.14795
997.77        66.97556
998.15        66.09847
998.54        65.74964
998.92        66.09228
999.30        67.14242
999.68        69.09328
1000.06         71.2758
1000.45         71.4716
1000.83         69.0617
1001.21         65.1414
1001.59        61.70724
1001.97        60.33859
1002.35        60.91603
1002.73         63.0092
1003.12        65.80651
1003.50         67.4301
1003.88        66.85072
1004.26        64.68256
1004.64        61.96666
1005.02        60.15385
1005.40         59.6452
1005.78        60.01325
1006.16        60.99725
1006.54        62.02224
1006.92        62.68599
1007.30        63.11258
1007.69         63.3248
1008.07        63.50954
1008.45        63.67448
1008.83        63.83482
1009.21        63.74972
1009.59        62.85989
1009.97        60.93563
1010.35        58.21705
1010.73        56.17546
1011.11        56.40039
1011.49        58.74673
1011.86        62.74146
1012.24        66.15314
1012.62        67.01712
1013.00        65.26095
1013.38        61.65067
1013.76        57.61509
1014.14        55.70839
1014.52        56.59506
1014.90        59.40528
1015.28        62.69098
1015.66        64.01867
1016.04        62.54618
1016.41        58.92036
1016.79        53.74752
1017.17        49.21306
1017.55         46.8192
1017.93         45.9489
1018.31        46.39877
1018.69        48.02385
1019.06        50.55663
1019.44        54.04216
1019.82        57.61243
1020.20        58.77373
1020.58         56.5184
1020.95        51.45587
1021.33        45.15717
1021.71        39.09851
1022.09        32.99651
1022.46        24.26828
1022.84        13.68754
1023.22        12.58948
1023.60        24.95429
1023.97        38.15054
1024.35        45.16593
1024.73        46.89095
