SpectraSmart Spectrum 2.9.0.0
--------- Device Information -----------
Spectrum Name :  反射率_0
Saving Time :  2024/04/20 00:32:10
Spectro-Module Model Name : SE2030-DUVN
Spectro-Module Serial Number : OS361AC55029948
Wavelength Start : 200
Wavelength End : 1025
Wavelength Unit : Wavelength(nm)
Spectrum Unit : Reflectance(%)
-----------Spectrum Setting ------------
Integration Time : 30ms
Average : 10
Boxcar : 0
Background removal :  enabled
linearity correction :  enabled
SC :  disabled
Intensity correction :  disabled
DWT denoise :  enabled
savitzky-golay :  disabled
FFT :  disabled
Running average :  disabled
Kalman :  disabled
High pass :  disabled
---------------BEGIN--------------------
Wavelength(nm)             Reflectance(%)
200.29               0
200.75        56.55731
201.21        53.33373
201.67        51.34205
202.13        53.40703
202.58        60.91873
203.04        74.31898
203.50        89.22126
203.96         93.8364
204.42        86.83839
204.88        75.27573
205.34        65.01631
205.80        58.86137
206.26        55.82524
206.72        54.15386
207.18        54.03744
207.64        56.33132
208.10        60.63456
208.55        66.51748
209.01        70.07655
209.47        69.02821
209.93        64.38789
210.39        57.53585
210.85        50.91667
211.31          47.126
211.77        46.37544
212.23         48.0807
212.69        51.80305
213.14        54.96835
213.60        55.37104
214.06        54.64706
214.52        53.98314
214.98        54.29473
215.44        55.56418
215.90        57.19511
216.36        59.18726
216.81        61.29706
217.27         62.9284
217.73        64.24414
218.19         64.2685
218.65        61.52271
219.11        55.81982
219.57        47.19332
220.02        37.40562
220.48        31.82874
220.94        32.37795
221.40        38.37632
221.86        46.50569
222.32        51.42371
222.77         51.7651
223.23        49.12843
223.69         46.1588
224.15        46.58754
224.61        50.22356
225.06        54.89347
225.52        58.57932
225.98         59.7242
226.44        58.39683
226.90        55.41154
227.36         51.7077
227.81          48.923
228.27        47.99316
228.73        48.27476
229.19        49.12144
229.65        49.75234
230.10        49.96623
230.56        50.03123
231.02        50.15874
231.48        50.60911
231.93        51.34065
232.39        52.23474
232.85        52.93445
233.31        52.95279
233.77        52.22486
234.22        50.91026
234.68        49.47561
235.14        48.64205
235.60          48.634
236.05        49.26208
236.51        50.16563
236.97        50.77455
237.43        50.94218
237.88        50.92617
238.34        50.73777
238.80        50.91213
239.26        51.64407
239.71        52.61747
240.17        53.56005
240.63        54.60689
241.08        55.83417
241.54         57.2805
242.00        58.30925
242.46        57.59317
242.91        54.38538
243.37        47.58283
243.83        37.85215
244.28        32.16069
244.74        37.15752
245.20        51.59126
245.66        65.09949
246.11        68.55759
246.57        61.01303
247.03         42.4411
247.48        17.87813
247.94        12.47126
248.40        28.47975
248.85        47.74977
249.31          61.364
249.77        67.34158
250.22        67.71301
250.68         64.5692
251.14        59.16858
251.59        54.39209
252.05        52.37122
252.51        52.68536
252.96        54.01891
253.42        54.16981
253.88        52.71606
254.33        50.74309
254.79        50.61062
255.25        54.33131
255.70        61.09349
256.16        68.99983
256.62        75.33418
257.07        77.13467
257.53        74.76452
257.99        69.78639
258.44        63.89384
258.90        60.02218
259.35        58.13201
259.81        57.59823
260.27        57.28269
260.72        56.24356
261.18        54.67211
261.63         52.5647
262.09        50.69237
262.55        49.60374
263.00        49.26556
263.46        49.49409
263.91        49.54675
264.37        48.80413
264.83        47.26127
265.28        45.17934
265.74         43.3675
266.19        42.53545
266.65        42.79604
267.11        43.69931
267.56        44.66889
268.02         44.8667
268.47         44.1296
268.93         42.7348
269.38        41.00264
269.84        39.66963
270.30         38.9292
270.75        38.60464
271.21        38.40898
271.66        37.90068
272.12        36.97878
272.57        35.80146
273.03        34.68817
273.48        34.03293
273.94        33.94222
274.39        34.21448
274.85        34.53833
275.31        34.44515
275.76        33.83115
276.22        32.87326
276.67        31.83218
277.13        31.20135
277.58        31.00822
278.04        31.11346
278.49        31.18465
278.95        30.82017
279.40        29.94082
279.86        28.80423
280.31        27.63484
280.77        26.87279
281.22        26.53571
281.68         26.4971
282.13        26.57169
282.59        26.52828
283.04        26.29268
283.50        25.97372
283.95        25.60124
284.41        25.24944
284.86        24.92472
285.32        24.61602
285.77        24.34112
286.22        24.20046
286.68        24.19243
287.13        24.27099
287.59        24.34923
288.04        24.27277
288.50        24.03667
288.95        23.66494
289.41        23.26878
289.86        22.94583
290.32         22.7738
290.77        22.70985
291.22        22.74198
291.68        22.81716
292.13        22.92281
292.59        23.08814
293.04        23.33292
293.50        23.69923
293.95        24.17676
294.40        24.72886
294.86        25.30957
295.31         25.8629
295.77        26.37196
296.22        26.85364
296.68        27.31045
297.13        27.72529
297.58         28.1154
298.04        28.49332
298.49        28.90528
298.95        29.46091
299.40        30.15709
299.85        30.95448
300.31        31.76926
300.76        32.46784
301.21        33.01763
301.67        33.48455
302.12        33.88092
302.58          34.286
303.03        34.70217
303.48        35.11795
303.94        35.58847
304.39        36.15962
304.84        36.83262
305.30        37.58002
305.75        38.27483
306.20         38.7434
306.66        38.97769
307.11        39.02147
307.57        39.00941
308.02        39.07297
308.47        39.27381
308.93        39.55881
309.38        39.88599
309.83        40.24276
310.29        40.59668
310.74        40.95078
311.19        41.22297
311.65        41.27727
312.10        41.09889
312.55        40.73859
313.00        40.33293
313.46        40.09615
313.91         40.0634
314.36        40.18686
314.82        40.37342
315.27        40.48944
315.72        40.47664
316.18        40.39009
316.63        40.24491
317.08        40.07623
317.53        39.90025
317.99        39.69052
318.44        39.47746
318.89        39.30618
319.35         39.1847
319.80         39.1092
320.25        39.03226
320.70        38.87406
321.16        38.61297
321.61        38.27594
322.06        37.91314
322.51        37.61342
322.97        37.39222
323.42        37.22871
323.87        37.06804
324.32        36.82753
324.78        36.48129
325.23         36.0729
325.68        35.63497
326.13        35.22807
326.59         34.8791
327.04        34.59604
327.49        34.37603
327.94        34.21793
328.39        34.11333
328.85        34.04279
329.30        34.02867
329.75        34.05045
330.20        34.08986
330.66        34.11715
331.11        34.11586
331.56        34.00934
332.01         33.7842
332.46        33.45832
332.92        33.08046
333.37         32.7521
333.82        32.51007
334.27         32.3502
334.72        32.24775
335.17        32.15306
335.63        32.03893
336.08        31.92685
336.53        31.84541
336.98         31.8529
337.43        31.95349
337.88        32.12955
338.34        32.26178
338.79        32.20708
339.24        31.92143
339.69        31.44189
340.14        30.95477
340.59        30.77256
341.05        30.94693
341.50        31.39013
341.95        31.86046
342.40          31.982
342.85        31.68062
343.30        31.08941
343.75        30.42108
344.20        30.02367
344.66        29.98782
345.11        30.17229
345.56        30.46055
346.01         30.6636
346.46         30.7063
346.91          30.665
347.36        30.50958
347.81        30.18124
348.26        29.70891
348.72        29.13829
349.17        28.59393
349.62         28.3655
350.07        28.51118
350.52        28.93192
350.97        29.46589
351.42        29.86549
351.87        30.04646
352.32         30.0613
352.77        29.93181
353.22        29.70183
353.67        29.40629
354.13        29.05254
354.58         28.6597
355.03        28.30271
355.48        28.01325
355.93        27.79981
356.38        27.66894
356.83        27.61545
357.28        27.62055
357.73        27.66262
358.18         27.7108
358.63        27.71717
359.08         27.6594
359.53        27.54879
359.98        27.35918
360.43        27.05476
360.88        26.64981
361.33        26.16737
361.78        25.70584
362.23        25.42629
362.68        25.35656
363.13        25.43707
363.58        25.56184
364.03        25.56207
364.48        25.38766
364.93        25.08777
365.38        24.69665
365.83        24.28073
366.28        23.88257
366.73        23.48887
367.18        23.14136
367.63        22.90572
368.08        22.78346
368.53        22.75454
368.98        22.75714
369.43        22.68459
369.88        22.51251
370.33        22.27803
370.78        22.00469
371.23        21.74071
371.68         21.5125
372.13        21.29675
372.58         21.1433
373.03        21.13638
373.48        21.26988
373.93        21.50584
374.38        21.71628
374.83        21.70443
375.28        21.43385
375.72        20.95796
376.17         20.4149
376.62        19.99356
377.07        19.76209
377.52         19.6708
377.97         19.6725
378.42         19.6889
378.87        19.68613
379.32        19.68559
379.77        19.68625
380.22        19.68056
380.67        19.66504
381.11        19.63386
381.56        19.56446
382.01        19.44821
382.46        19.28547
382.91        19.07679
383.36        18.86521
383.81        18.71123
384.26        18.62729
384.71        18.61236
385.15        18.59424
385.60        18.46308
386.05        18.20639
386.50        17.85901
386.95        17.54479
387.40        17.45897
387.85        17.62344
388.29        17.95484
388.74         18.2931
389.19        18.40934
389.64        18.25981
390.09        17.91536
390.54        17.50331
390.98        17.22274
391.43        17.14807
391.88         17.2079
392.33        17.30752
392.78        17.31125
393.23        17.19476
393.67        16.99689
394.12        16.82065
394.57         16.7464
395.02        16.79079
395.47        16.92239
395.91        17.07035
396.36        17.09642
396.81        16.97618
397.26        16.74761
397.71        16.51765
398.15          16.429
398.60        16.52362
399.05        16.74164
399.50         16.9635
399.95         17.0181
400.39        16.87364
400.84        16.57814
401.29        16.25946
401.74        16.14939
402.18        16.31101
402.63        16.65817
403.08        17.02528
403.53        17.15335
403.97        16.98916
404.42        16.63083
404.87        16.22891
405.32        16.02854
405.76        16.09001
406.21        16.32599
406.66        16.62355
407.11        16.80895
407.55        16.83305
408.00         16.7585
408.45        16.62955
408.90         16.4775
409.34        16.35082
409.79        16.31084
410.24        16.33477
410.68        16.32208
411.13        16.26974
411.58        16.24549
412.03        16.24603
412.47        16.23857
412.92        16.21779
413.37        16.18389
413.81        16.16992
414.26        16.24231
414.71        16.40008
415.15        16.62855
415.60        16.83094
416.05        16.87625
416.49         16.7339
416.94        16.45113
417.39        16.13164
417.83        15.94321
418.28         15.9358
418.73         16.0547
419.17         16.2202
419.62        16.29465
420.07        16.24886
420.51        16.13051
420.96        15.99682
421.41        15.91512
421.85        15.90082
422.30        15.93702
422.74        16.00143
423.19         16.0939
423.64        16.19742
424.08        16.31957
424.53        16.42436
424.98        16.47444
425.42        16.46327
425.87        16.40571
426.31        16.31161
426.76        16.20757
427.21        16.09646
427.65        15.96517
428.10        15.86693
428.54        15.86399
428.99          15.967
429.44        16.22667
429.88        16.50183
430.33        16.46347
430.77        16.15807
431.22        15.93584
431.66        15.88537
432.11        15.96309
432.56        16.16312
433.00        16.53873
433.45        16.88636
433.89        16.88817
434.34        16.62933
434.78        16.30621
435.23        15.94207
435.67        16.64577
436.12        16.09992
436.57        16.02529
437.01         15.8028
437.46        15.73817
437.90         15.8411
438.35        15.97393
438.79        16.08248
439.24        16.15058
439.68         16.1609
440.13         15.9859
440.57        15.73488
441.02        15.83872
441.46        16.15576
441.91        16.18262
442.35        15.54407
442.80        15.32909
443.24        15.37903
443.69        15.35644
444.13        15.24188
444.58        15.17716
445.02        15.16975
445.47        15.22292
445.91        15.30054
446.36        15.30967
446.80        15.23341
447.24         15.1164
447.69        15.00504
448.13        14.93758
448.58        14.93226
449.02        14.97207
449.47        15.01991
449.91        15.00961
450.36        14.93386
450.80        14.81445
451.25        14.69909
451.69        14.64406
452.13        14.66768
452.58        14.74149
453.02        14.83913
453.47        14.92048
453.91        14.97221
454.36        15.00385
454.80        15.01135
455.24         14.9881
455.69        14.94284
456.13        14.86098
456.58        14.77691
457.02        14.73466
457.46        14.74024
457.91        14.74955
458.35        14.74711
458.79        14.74333
459.24        14.73101
459.68        14.71069
460.13        14.73191
460.57        14.72855
461.01         14.6884
461.46        15.00769
461.90        15.09315
462.34        14.94024
462.79        15.04413
463.23        14.90329
463.68        14.77288
464.12        14.67395
464.56        14.74154
465.01        14.85997
465.45        14.97801
465.89        15.03501
466.34        15.02312
466.78        14.91351
467.22        14.77272
467.67        14.81334
468.11        15.00875
468.55         15.0528
468.99         14.9475
469.44         14.9422
469.88        15.04153
470.32        15.09873
470.77        15.09548
471.21        15.08147
471.65        15.05736
472.10        15.01027
472.54         14.9628
472.98        14.98558
473.42        15.08341
473.87        15.19143
474.31        15.27773
474.75        15.38513
475.20         15.4721
475.64        15.38635
476.08        15.19811
476.52        15.14937
476.97        15.25965
477.41        15.42344
477.85        15.57708
478.29        15.66206
478.74        15.65918
479.18        15.56054
479.62        15.44465
480.06        15.43878
480.50        15.54401
480.95        15.64554
481.39        15.70002
481.83        15.71793
482.27        15.69373
482.72        15.62782
483.16        15.54856
483.60        15.52095
484.04        15.55979
484.48        15.65235
484.93        15.83369
485.37        16.01085
485.81        16.27238
486.25        16.63747
486.69        16.81233
487.14        16.52321
487.58        16.41001
488.02        17.04599
488.46        16.70896
488.90        16.78951
489.34        16.72048
489.79        16.84693
490.23         17.1112
490.67        17.24189
491.11        17.23223
491.55        17.18879
491.99        17.13917
492.43        17.09686
492.88        17.08253
493.32        17.07353
493.76        17.09882
494.20        17.21746
494.64        17.43329
495.08        17.72083
495.52        18.02043
495.96        18.25292
496.41        18.39726
496.85        18.43852
497.29        18.42638
497.73        18.53093
498.17        18.74423
498.61        18.85491
499.05        18.86522
499.49        18.97083
499.93        19.17924
500.37        19.33396
500.82        19.43715
501.26         19.6508
501.70        19.92511
502.14        19.98885
502.58        19.87799
503.02        19.87869
503.46        20.01083
503.90         20.1263
504.34        20.18844
504.78        20.20491
505.22        20.17089
505.66        20.09492
506.10         20.0229
506.54        20.02449
506.98        20.11754
507.42        20.28364
507.86        20.48539
508.30        20.65994
508.74        20.78359
509.18        20.86633
509.62        20.92803
510.06        21.00184
510.50        21.09732
510.94         21.2068
511.38        21.29917
511.82        21.32701
512.26        21.28406
512.70        21.18565
513.14        21.09179
513.58        21.09161
514.02        21.19372
514.46        21.37169
514.90        21.55037
515.34        21.54986
515.78        21.37693
516.22        21.15187
516.66        20.97811
517.10        20.67323
517.54        20.26871
517.98         20.8769
518.42        20.80485
518.86        21.10138
519.30        21.23829
519.74        21.38259
520.18        21.50197
520.62        21.52401
521.06        21.46147
521.50        21.31873
521.93        21.13686
522.37        20.99507
522.81        20.91677
523.25        20.88663
523.69          20.891
524.13         20.9046
524.57        20.91352
525.01        20.92165
525.45        20.92229
525.89        20.90265
526.32        20.85976
526.76        20.79927
527.20        20.71754
527.64        20.61585
528.08        20.49925
528.52        20.36653
528.96        20.24836
529.40        20.18915
529.83        20.19282
530.27        20.25239
530.71        20.31021
531.15        20.27518
531.59        20.13428
532.03        19.91849
532.46        19.69997
532.90        19.60974
533.34         19.6647
533.78        19.81716
534.22        19.99428
534.66        20.08438
535.09         20.0545
535.53        19.94867
535.97        19.80082
536.41         19.6616
536.85        19.55456
537.28        19.47517
537.72        19.43671
538.16        19.40043
538.60        19.45997
539.04        19.53093
539.47        19.61403
539.91        19.71571
540.35        19.83966
540.79          19.812
541.22         19.8999
541.66        19.98104
542.10        20.15066
542.54        20.07714
542.97         20.2792
543.41        20.36429
543.85        20.47486
544.29        20.56805
544.72        20.63556
545.16        20.72292
545.60        20.82824
546.04        20.87571
546.47        20.92019
546.91        21.18046
547.35        21.59677
547.79        21.89108
548.22        22.02178
548.66        22.07536
549.10        22.09385
549.53         22.2278
549.97        22.48964
550.41        22.49068
550.84        22.64977
551.28         22.7448
551.72        22.91505
552.15         23.1038
552.59        23.30949
553.03        23.53541
553.46        23.74434
553.90        23.90291
554.34         24.0021
554.77        24.05133
555.21        24.08409
555.65        24.14133
556.08        24.23064
556.52        24.34242
556.96        24.46069
557.39        24.58116
557.83         24.6943
558.27        24.76538
558.70        24.80103
559.14        24.84051
559.57        24.88087
560.01        24.93286
560.45        24.98162
560.88        24.96709
561.32        24.94065
561.75        24.97221
562.19        25.14732
562.63        25.24087
563.06        25.27056
563.50        25.31088
563.93        25.36487
564.37        25.48359
564.80        25.55111
565.24        25.66646
565.68        25.77368
566.11        25.87557
566.55        25.98783
566.98        26.05865
567.42        26.08101
567.85        26.39157
568.29        26.31292
568.72        26.61095
569.16         26.9943
569.60        27.33584
570.03         27.3421
570.47        27.41498
570.90        27.37919
571.34        27.63778
571.77        27.48436
572.21        27.73826
572.64        28.01542
573.08        28.11937
573.51        28.49237
573.95        28.85733
574.38        29.04919
574.82         29.1842
575.25        29.19388
575.69        29.06962
576.12        29.12257
576.56        29.06727
576.99        29.08729
577.42        29.29007
577.86        29.11852
578.29        29.17513
578.73          29.744
579.16        29.26222
579.60        29.03657
580.03        29.15672
580.47        29.15907
580.90        28.80549
581.33        28.84064
581.77        28.72864
582.20        29.08137
582.64        28.74168
583.07        28.16894
583.51        28.32291
583.94        27.98642
584.37        28.05606
584.81        27.75385
585.24        27.61586
585.68        27.55407
586.11        27.32794
586.54        27.25005
586.98        27.19707
587.41        27.25363
587.85        27.29954
588.28        27.28643
588.71        27.12987
589.15         26.8944
589.58        26.76586
590.01        26.86133
590.45        27.19701
590.88        26.92153
591.31        26.84547
591.75        26.63368
592.18         26.7949
592.61        26.74945
593.05        26.81119
593.48         26.8373
593.91        27.61142
594.35         27.1123
594.78        27.13073
595.21        27.52993
595.65        27.77617
596.08        27.76092
596.51        27.75077
596.94        27.76653
597.38         27.8889
597.81        28.18617
598.24        28.33707
598.68        28.78144
599.11        29.03295
599.54        29.87885
599.97        29.43079
600.41        29.90208
600.84         30.6428
601.27        30.93029
601.70        31.36323
602.14        31.56944
602.57        31.99007
603.00        32.57271
603.43        32.97412
603.87         33.2374
604.30        33.62741
604.73        34.13425
605.16        34.70161
605.60        34.94981
606.03        35.40652
606.46        35.91138
606.89        36.29662
607.32        37.09493
607.76        37.22276
608.19        37.60857
608.62        38.17896
609.05        38.26187
609.48        38.63393
609.92        39.03828
610.35        39.11746
610.78        39.98202
611.21        40.47656
611.64        40.35792
612.07        40.91564
612.50        41.27866
612.94        41.19389
613.37        41.81065
613.80        42.23479
614.23        42.87135
614.66         42.8159
615.09        43.26776
615.52        43.58824
615.96        44.04481
616.39        44.35838
616.82        44.57632
617.25        44.62822
617.68        44.90516
618.11        45.46566
618.54        45.77881
618.97        45.88895
619.40        45.74051
619.84        45.60335
620.27        45.83821
620.70        46.25708
621.13        46.81489
621.56        47.04425
621.99        47.02613
622.42        47.04003
622.85        47.18295
623.28        47.26191
623.71        47.26503
624.14        47.58021
624.57        47.44377
625.00        47.33154
625.43        47.55759
625.86        46.79392
626.29        46.71115
626.72        46.62937
627.15        46.40302
627.58        46.43986
628.01        46.47667
628.44        46.37962
628.87        46.09094
629.30        45.65586
629.73        45.26434
630.16         44.7623
630.59        44.64453
631.02        44.35278
631.45        43.98919
631.88        43.61097
632.31        43.20571
632.74        42.71291
633.17         42.1557
633.60        41.62167
634.03        41.12939
634.46        40.65897
634.89        40.19468
635.32        39.70985
635.75        39.20271
636.18        38.69347
636.61        38.20167
637.04        37.75027
637.47        37.34153
637.89        36.96496
638.32        36.60417
638.75         36.2557
639.18        35.91775
639.61        35.59899
640.04        35.28525
640.47        34.95022
640.90        34.59399
641.33        34.22614
641.76        33.88735
642.18        33.64793
642.61        33.51573
643.04        33.47083
643.47        33.46885
643.90        33.43403
644.33        33.34893
644.76        33.24369
645.18        33.14635
645.61        33.10512
646.04        33.13806
646.47        33.22885
646.90        33.38931
647.33        33.63789
647.75        33.97022
648.18        34.37766
648.61        34.81366
649.04        35.19793
649.47        35.51667
649.89        35.79289
650.32        36.08499
650.75        36.48714
651.18        37.03376
651.61        37.67468
652.03        38.36372
652.46        39.13297
652.89        39.91368
653.32        40.34399
653.74        40.53096
654.17        41.26888
654.60        41.80048
655.03        43.09299
655.46        42.92126
655.88        44.71671
656.31        45.55478
656.74        51.40468
657.16        49.02304
657.59         45.8684
658.02        46.44396
658.45        47.20671
658.87        48.43352
659.30        48.45872
659.73        49.38925
660.15        50.22604
660.58        50.40734
661.01        50.51397
661.44        50.40725
661.86        50.73951
662.29        51.47932
662.72        52.32471
663.14        53.06818
663.57        53.18591
664.00        52.85674
664.42        52.93465
664.85        53.50213
665.27        54.02787
665.70        54.40361
666.13        54.73166
666.55         54.9999
666.98        55.16146
667.41        55.27226
667.83         55.4082
668.26        55.58728
668.69        55.81584
669.11        56.05624
669.54        56.22406
669.96        56.30663
670.39        56.39961
670.82        56.44988
671.24        56.66518
671.67        57.01414
672.09        57.52328
672.52        58.04573
672.94        58.20307
673.37        58.02732
673.80        57.87498
674.22        57.84363
674.65        57.82417
675.07        57.86393
675.50        58.07016
675.92        58.38288
676.35        58.58027
676.77        58.62659
677.20        58.65281
677.62        58.59777
678.05        58.63887
678.47         58.7625
678.90        58.94275
679.32        59.14435
679.75        59.32186
680.17        59.45654
680.60         59.5644
681.02        59.67199
681.45        59.75535
681.87        59.89198
682.30         60.0527
682.72        60.22747
683.15        60.27445
683.57        60.23747
684.00        60.24569
684.42        60.44221
684.85        60.58142
685.27        60.69563
685.70        60.85771
686.12        61.00329
686.54        61.10875
686.97         61.1781
687.39        60.99143
687.82        60.73996
688.24        61.09143
688.66        61.22519
689.09        61.38708
689.51         61.3371
689.94        61.42014
690.36        61.63413
690.78         61.6928
691.21        61.60966
691.63         61.6937
692.06        61.99008
692.48        61.92097
692.90        62.06075
693.33        62.49076
693.75        62.31054
694.17        62.38743
694.60        62.41608
695.02         62.3685
695.44        62.24095
695.87        62.28799
696.29        62.46215
696.71        62.28341
697.14        61.96194
697.56         62.2739
697.98        62.99976
698.41        63.88839
698.83        63.42267
699.25        63.27276
699.68        63.14107
700.10        63.07499
700.52        63.12167
700.94        63.27127
701.37        63.46286
701.79        63.63002
702.21        63.72163
702.64         63.7597
703.06        63.77856
703.48        63.84349
703.90        63.97171
704.33        64.13387
704.75        64.28416
705.17        64.32317
705.59        64.23598
706.01        64.05777
706.44        63.88945
706.86        63.89084
707.28        64.08517
707.70        64.41054
708.12        64.75888
708.55        64.97426
708.97        65.01786
709.39        64.91499
709.81        64.70899
710.23        64.67623
710.66        64.55167
711.08        64.56234
711.50        64.61716
711.92        64.73835
712.34        64.91794
712.76        65.16807
713.19        65.43161
713.61        65.61434
714.03         65.7299
714.45        65.74326
714.87        65.72644
715.29        65.76848
715.71        65.88966
716.13        66.06187
716.56        66.22049
716.98        66.33488
717.40        66.36066
717.82        66.32153
718.24        66.25415
718.66         66.2152
719.08        66.22169
719.50        66.25567
719.92         66.2957
720.34        66.30616
720.76        66.27979
721.19        66.23102
721.61        66.18843
722.03        66.16145
722.45        66.17789
722.87        66.21786
723.29        66.28745
723.71         66.3882
724.13        66.51679
724.55        66.66992
724.97        66.83538
725.39        66.99232
725.81         67.1312
726.23        67.25211
726.65        67.35642
727.07         67.4521
727.49        67.54182
727.91        67.61979
728.33        67.68919
728.75         67.7557
729.17         67.8186
729.59        67.87942
730.01        67.92464
730.43        67.93061
730.85        67.89785
731.27        67.83702
731.69        67.77593
732.10        67.76894
732.52        67.81472
732.94        67.89431
733.36        67.98425
733.78        68.04485
734.20        68.07587
734.62        68.09807
735.04        68.09753
735.46         68.1096
735.88        68.14611
736.30        67.98608
736.72        67.95537
737.13        68.18877
737.55        68.64874
737.97        69.01089
738.39        69.15878
738.81        69.06858
739.23        68.84848
739.65        68.72768
740.06        68.71088
740.48        68.90546
740.90        69.22612
741.32        68.68282
741.74        68.56477
742.16        68.41416
742.57        68.64381
742.99        68.88012
743.41        69.05161
743.83        69.15005
744.25        69.13033
744.67        68.99661
745.08        68.81373
745.50        68.66396
745.92        68.59296
746.34        68.57702
746.75        68.58861
747.17        68.58468
747.59        68.56118
748.01        68.54588
748.42        68.56219
748.84        68.65529
749.26        68.84576
749.68        68.96569
750.09        69.02787
750.51        69.37324
750.93        69.82745
751.35        69.70108
751.76        69.13032
752.18         68.8618
752.60        68.91949
753.01         69.3369
753.43        69.22741
753.85        69.40247
754.27        69.58414
754.68        69.83786
755.10        70.06853
755.52        69.97701
755.93        69.64411
756.35        69.49957
756.77        69.58154
757.18        69.62334
757.60        69.71508
758.02        69.86102
758.43        69.95863
758.85         70.3048
759.26        70.68702
759.68        69.84272
760.10        70.23263
760.51        69.97976
760.93        69.94985
761.34        69.39548
761.76        69.83832
762.18        69.60486
762.59        69.27402
763.01        69.26656
763.42        69.78916
763.84        70.29415
764.26        70.66233
764.67         70.5229
765.09        70.11198
765.50        70.25965
765.92        70.90513
766.33        71.22381
766.75        71.04542
767.16        70.72858
767.58        70.34818
768.00        69.91225
768.41        69.64864
768.83        69.97555
769.24         70.7344
769.66        71.26738
770.07        71.41448
770.49        71.28024
770.90        71.00399
771.32        71.02814
771.73        71.31956
772.15        71.29125
772.56        70.95206
772.97         70.7338
773.39        70.65324
773.80        70.54258
774.22        70.39023
774.63        70.27386
775.05        70.23266
775.46        70.33446
775.88        70.56076
776.29        70.92029
776.70         71.2583
777.12        71.35092
777.53        71.16806
777.95        70.74818
778.36        70.28201
778.77        70.10523
779.19        70.29797
779.60        70.80795
780.02        71.37509
780.43        71.74478
780.84        71.83603
781.26        71.37086
781.67        70.69607
782.09        71.23151
782.50         72.6328
782.91        72.76942
783.33        71.71129
783.74        71.37621
784.15        71.82272
784.57        71.96638
784.98        71.74132
785.39        71.48402
785.81        71.24557
786.22        71.10184
786.63        71.06653
787.04         71.0687
787.46         71.1233
787.87        71.23483
788.28         71.3456
788.70        71.72527
789.11        71.65051
789.52        71.70116
789.93        71.71747
790.35        71.81242
790.76         71.9752
791.17        72.10187
791.58         72.1641
792.00        72.08529
792.41        71.87729
792.82         71.7649
793.23        71.72569
793.65        71.32039
794.06        70.83778
794.47        71.08649
794.88        71.88334
795.29        72.69036
795.71        73.33351
796.12        72.26212
796.53        72.52172
796.94        71.70988
797.35        71.04182
797.76        71.02105
798.18        71.54402
798.59        71.94177
799.00        72.14956
799.41        71.81666
799.82        72.54263
800.23        72.67046
800.64        72.65923
801.06        72.50219
801.47        72.36704
801.88        72.35056
802.29        72.47519
802.70        72.69164
803.11        72.89448
803.52        72.91698
803.93        72.73843
804.34        72.44044
804.75        72.09414
805.17        71.89037
805.58        71.92419
805.99         71.8241
806.40        71.67629
806.81        72.34499
807.22        73.43407
807.63        73.37284
808.04        72.00828
808.45        71.62545
808.86        72.29592
809.27        73.09875
809.68         73.7597
810.09        74.15138
810.50        74.14552
810.91        73.84201
811.32        73.40767
811.73        73.00809
812.14         72.7156
812.55        72.62966
812.96        72.67285
813.37        72.38183
813.78        71.88076
814.19        71.94545
814.60        72.46896
815.01        72.67844
815.42        72.52695
815.83        72.40517
816.24          72.405
816.65        72.49986
817.05        72.72022
817.46        73.02467
817.87        73.31907
818.28        73.41638
818.69         73.2923
819.10        73.00072
819.51        72.68202
819.92        72.62986
820.33        72.92232
820.74        73.34837
821.14        73.79879
821.55         74.3297
821.96        74.76064
822.37        74.55904
822.78        73.87409
823.19        73.49398
823.60        73.52546
824.00        73.58432
824.41        73.56873
824.82        73.58644
825.23        73.61344
825.64         73.6413
826.04        73.68944
826.45        73.73458
826.86        73.78226
827.27        73.82695
827.68        73.85503
828.08        73.87168
828.49        73.82574
828.90         73.7528
829.31        73.67116
829.72        73.61502
830.12        73.61181
830.53        73.60943
830.94        73.61957
831.35        73.62798
831.75        73.65089
832.16         73.6627
832.57        73.65195
832.97        73.57397
833.38        73.41252
833.79        73.18331
834.20         72.9825
834.60        72.95152
835.01        73.12784
835.42        73.47655
835.82         73.8579
836.23        73.98067
836.64        73.79913
837.04        73.38406
837.45         72.9315
837.86        72.80807
838.26        73.10909
838.67        73.70119
839.08        74.33865
839.48        74.55887
839.89        74.24676
840.29         73.5897
840.70        72.91479
841.11        72.62284
841.51        72.82603
841.92        73.33496
842.33        74.04015
842.73        74.75549
843.14        75.28302
843.54        75.73692
843.95        75.97424
844.35        75.84824
844.76        75.37379
845.17        74.61517
845.57        73.82172
845.98        73.40673
846.38         73.4591
846.79        73.87308
847.19         74.5025
847.60        74.92573
848.00        75.06411
848.41        74.97562
848.81        74.82339
849.22        74.77805
849.62        74.93169
850.03        75.15895
850.43        75.43058
850.84        75.60664
851.24        75.68925
851.65        75.66616
852.05        75.59295
852.46         75.4596
852.86        75.29723
853.27        75.08018
853.67        74.79858
854.07        74.70428
854.48        74.72063
854.88        74.54487
855.29        74.17921
855.69        74.05702
856.10        74.13847
856.50        74.30411
856.90        74.42966
857.31        74.42802
857.71        74.34087
858.12        74.12831
858.52        73.94139
858.92        73.90911
859.33        74.04095
859.73        74.32444
860.13        74.66666
860.54        74.89936
860.94        75.01027
861.34        75.00615
861.75        74.84955
862.15        74.58671
862.55        74.21497
862.96        73.76442
863.36        73.34593
863.76        73.11422
864.17        73.10767
864.57        73.31004
864.97        73.65138
865.38         73.9979
865.78        74.33843
866.18        74.60423
866.58        74.75083
866.99        74.72214
867.39        74.55214
867.79        74.25129
868.19        73.72701
868.60        72.81282
869.00        71.50568
869.40        69.93587
869.80        68.56956
870.21        68.16415
870.61        68.92695
871.01        70.55972
871.41        72.43332
871.81        73.54551
872.22        73.65429
872.62        73.05535
873.02        72.10437
873.42        71.59203
873.82        71.54598
874.22        71.25161
874.63        70.87347
875.03        70.87041
875.43        71.25914
875.83        72.87557
876.23         72.8564
876.63        72.36832
877.03        70.90153
877.44        68.56244
877.84        129.3315
878.24        68.42806
878.64        69.67405
879.04        73.43616
879.44        70.23492
879.84        68.42319
880.24        72.59911
880.64        72.77331
881.04        69.94719
881.44        68.16432
881.84        68.06277
882.24        68.99146
882.65        70.34334
883.05        70.93361
883.45        70.38277
883.85        69.36892
884.25         68.4394
884.65        68.12943
885.05        68.59127
885.45        69.62086
885.85        70.77929
886.25        71.35855
886.65        71.16228
887.05        70.41849
887.45        69.54845
887.85         69.1786
888.25        69.46342
888.65         70.2181
889.04        71.12508
889.44        71.56206
889.84        71.39108
890.24        70.80923
890.64        70.14086
891.04        69.86258
891.44        70.05886
891.84        70.52932
892.24        71.02479
892.64        71.12973
893.04        70.75396
893.44        70.13078
893.83        69.36649
894.23         68.6274
894.63        67.97586
895.03        67.33458
895.43        66.91906
895.83        67.09772
896.23        67.89152
896.63        69.19802
897.02        70.53056
897.42        70.99015
897.82        70.39805
898.22        69.04489
898.62        67.50455
899.01        66.66764
899.41        66.77541
899.81        67.50645
900.21        68.55066
900.61        69.43899
901.00        69.99237
901.40        70.33295
901.80        70.46944
902.20        70.39087
902.59        70.13312
902.99        69.67326
903.39        69.08617
903.79        68.52299
904.18        68.05153
904.58        67.71893
904.98        67.58035
905.38         67.6991
905.77        68.05727
906.17        68.62997
906.57        69.25668
906.96        69.71486
907.36        69.88895
907.76         69.7966
908.15        69.58862
908.55        69.47198
908.95        69.52643
909.34        69.74507
909.74        69.90054
910.14        69.59886
910.53        68.78622
910.93        67.65953
911.33        66.71147
911.72        66.71634
912.12        67.74668
912.52        69.46394
912.91        71.25349
913.31        72.08858
913.70        71.77954
914.10        70.60316
914.49         68.9422
914.89        67.67411
915.29        67.15962
915.68        67.16317
916.08        67.54169
916.47        68.06909
916.87        68.59431
917.26        69.17081
917.66        69.66726
918.05        69.88819
918.45        69.77195
918.84        69.41689
919.24        68.80939
919.64        67.97095
920.03        66.99858
920.42        65.93903
920.82        65.20229
921.21        65.35823
921.61        66.40758
922.00        68.19402
922.40        70.03278
922.79        71.02791
923.19         70.9291
923.58        69.78437
923.98        67.98831
924.37        67.00294
924.77        67.40947
925.16         65.3997
925.55        67.14663
925.95        67.34205
926.34        67.76569
926.74         68.2768
927.13        68.88444
927.52        69.38953
927.92        69.71215
928.31        69.95683
928.70        70.02544
929.10        69.82423
929.49        69.37463
929.89        68.70228
930.28        68.12833
930.67        68.15597
931.07        68.83122
931.46        70.05109
931.85        71.30153
932.24        71.81242
932.64        71.40073
933.03        70.17594
933.42        68.60767
933.82        67.68494
934.21        67.68871
934.60        68.35413
934.99        68.95675
935.39        68.77477
935.78        67.71546
936.17        65.45844
936.56        62.39262
936.96        63.31077
937.35        62.91219
937.74          65.201
938.13        67.55431
938.53        69.13886
938.92        69.84353
939.31        69.99471
939.70        69.77758
940.09        69.38717
940.49        68.99642
940.88        68.56348
941.27        68.26377
941.66        68.40516
942.05        68.99186
942.44        69.91023
942.84        70.95208
943.23        71.74287
943.62        72.12563
944.01         72.2504
944.40        72.01543
944.79        71.27436
945.18        70.06856
945.57        68.39054
945.97        66.85301
946.36        66.50848
946.75        67.61269
947.14        69.76965
947.53        72.00209
947.92         72.9636
948.31        72.43613
948.70        70.83455
949.09        68.82902
949.48        67.61427
949.87        67.57317
950.26         68.3219
950.65        69.43781
951.04        70.21606
951.43        70.39948
951.82        70.24386
952.21        69.84465
952.60        69.32847
952.99        68.78141
953.38        68.11856
953.77        67.47763
954.16         67.1086
954.55        67.05991
954.94        67.32859
955.33        67.69392
955.72        67.75241
956.11        67.41909
956.50        66.78431
956.89        66.17425
957.28        66.20513
957.66        67.00797
958.05        68.23634
958.44        69.45746
958.83        70.10762
959.22         70.0781
959.61        69.56511
960.00        68.71276
960.39         67.8086
960.78          67.028
961.16        66.28409
961.55        65.75074
961.94        65.56886
962.33        65.74347
962.72        66.27289
963.11        66.91018
963.49        67.21832
963.88        67.00169
964.27        66.38683
964.66        65.67351
965.04        65.38781
965.43        65.64748
965.82        66.30621
966.21        67.05839
966.60        67.40002
966.98        67.22724
967.37        66.69547
967.76        66.11544
968.15        65.96408
968.53        66.35555
968.92        67.00986
969.31        67.71626
969.69         68.1282
970.08        68.07037
970.47        67.72969
970.86        67.06701
971.24         65.9759
971.63         64.5868
972.02        62.96541
972.40        61.52327
972.79         60.9933
973.17        61.56114
973.56        62.93683
973.95        64.72076
974.33        66.15939
974.72        66.83409
975.11        66.93913
975.49        66.50076
975.88        65.58078
976.26        64.32394
976.65        62.78552
977.04         61.2574
977.42        60.27611
977.81        60.01679
978.19        60.33796
978.58        61.14809
978.96        62.24098
979.35        63.39913
979.74        64.75207
980.12        65.91467
980.51        65.99831
980.89        65.01711
981.28        63.17045
981.66        61.38057
982.05        60.95322
982.43        62.04197
982.82        64.25011
983.20        66.77779
983.59         67.8511
983.97        67.04911
984.35        64.82788
984.74        62.14545
985.12        60.40408
985.51        60.02601
985.89        60.60104
986.28        61.68327
986.66        62.40775
987.04        62.34373
987.43        61.88779
987.81        61.14926
988.20        60.18378
988.58        58.95454
988.96        57.23579
989.35        55.29197
989.73        54.14281
990.12        54.33409
990.50        55.69188
990.88        57.32801
991.27        58.16771
991.65        58.22687
992.03        57.77305
992.42        57.32085
992.80        57.78013
993.18        59.37746
993.56        61.56068
993.95        63.74726
994.33        65.59348
994.71        66.79208
995.10        67.45782
995.48        67.61169
995.86         67.1821
996.24        66.22813
996.63        64.82734
997.01         63.0072
997.39        61.16328
997.77        59.72091
998.15        58.71255
998.54        58.41453
998.92        59.09235
999.30        60.76982
999.68        63.72106
1000.06        67.13508
1000.45        68.01839
1000.83         65.2807
1001.21        60.35738
1001.59        55.77312
1001.97        53.50682
1002.35        53.40338
1002.73        54.85603
1003.12         57.0349
1003.50        58.05882
1003.88        57.01018
1004.26        54.64275
1004.64        51.87983
1005.02        49.91699
1005.40        49.10297
1005.78        48.99965
1006.16        49.68016
1006.54        51.21642
1006.92        53.12435
1007.30        55.04205
1007.69        56.40885
1008.07        56.84822
1008.45        56.22224
1008.83        54.48248
1009.21        51.10824
1009.59        46.08293
1009.97        40.52197
1010.35        35.39431
1010.73        32.81636
1011.11        34.22176
1011.49        38.86265
1011.86        45.99586
1012.24        52.40482
1012.62        55.03691
1013.00         53.7207
1013.38        49.59436
1013.76        44.39545
1014.14        41.26476
1014.52        41.16698
1014.90        43.10653
1015.28         45.8559
1015.66        47.32365
1016.04        46.76268
1016.41        44.90005
1016.79        42.04363
1017.17         39.1577
1017.55        37.18473
1017.93        35.83028
1018.31        35.43405
1018.69        36.48629
1019.06        38.75379
1019.44        41.94418
1019.82         45.1855
1020.20        46.02574
1020.58        43.47062
1020.95        38.39767
1021.33        31.80502
1021.71        23.93667
1022.09        13.65832
1022.46       -3.706113
1022.84       -27.51018
1023.22       -32.22658
1023.60       -6.524587
1023.97        21.37368
1024.35        37.12004
1024.73        42.74185
