SpectraSmart Spectrum 2.9.0.0
--------- Device Information -----------
Spectrum Name :  反射率_0
Saving Time :  2024/04/20 00:23:16
Spectro-Module Model Name : SE2030-DUVN
Spectro-Module Serial Number : OS361AC55029948
Wavelength Start : 200
Wavelength End : 1025
Wavelength Unit : Wavelength(nm)
Spectrum Unit : Reflectance(%)
-----------Spectrum Setting ------------
Integration Time : 30ms
Average : 10
Boxcar : 0
Background removal :  enabled
linearity correction :  enabled
SC :  disabled
Intensity correction :  disabled
DWT denoise :  enabled
savitzky-golay :  disabled
FFT :  disabled
Running average :  disabled
Kalman :  disabled
High pass :  disabled
---------------BEGIN--------------------
Wavelength(nm)             Reflectance(%)
200.29               0
200.75        64.33476
201.21        64.94529
201.67        67.63008
202.13        72.50433
202.58        79.39908
203.04        88.70387
203.50         97.5016
203.96        98.71871
204.42        92.40998
204.88        83.17243
205.34        75.22354
205.80        70.48371
206.26        68.08153
206.72        66.94687
207.18        66.66953
207.64         66.2102
208.10        65.01804
208.55        64.18134
209.01        63.42593
209.47        63.02069
209.93        62.83173
210.39        62.73059
210.85        62.36949
211.31         61.3304
211.77        59.49698
212.23        56.77128
212.69         53.9478
213.14        54.07233
213.60        57.35538
214.06        61.90849
214.52        65.90297
214.98        68.87059
215.44        71.18724
215.90        73.00114
216.36         74.6583
216.81        76.42716
217.27        78.00233
217.73        79.51646
218.19        79.72345
218.65        76.78587
219.11        70.58614
219.57        61.35875
220.02        51.79234
220.48        48.91859
220.94        54.85774
221.40        67.77833
221.86        82.51173
222.32        91.24447
222.77        91.99055
223.23        87.43668
223.69        80.48068
224.15        75.53661
224.61        73.81089
225.06        73.67122
225.52        74.34927
225.98        75.29777
226.44         76.3016
226.90        77.64952
227.36        79.08886
227.81         79.7892
228.27        79.78848
228.73        79.19619
229.19        78.28691
229.65        77.44352
230.10         76.7486
230.56        76.25193
231.02        75.99564
231.48        76.13781
231.93        76.56107
232.39        77.20013
232.85        77.81147
233.31        78.06384
233.77        77.86794
234.22        77.35137
234.68        76.50225
235.14        75.26337
235.60         73.7639
236.05         72.0869
236.51        70.64284
236.97        69.99896
237.43        70.31367
237.88        71.82852
238.34        74.01913
238.80        75.69481
239.26         75.8699
239.71        74.57263
240.17        72.47125
240.63         71.2747
241.08        71.43922
241.54        72.49427
242.00         73.4225
242.46         72.1835
242.91         67.7459
243.37        59.20352
243.83        46.98968
244.28         38.2996
244.74        40.89762
245.20        53.88418
245.66        68.15419
246.11        75.85282
246.57        76.49132
247.03        71.33974
247.48        61.73434
247.94        57.12809
248.40        60.22866
248.85        65.16257
249.31         68.8117
249.77        70.32547
250.22        70.12974
250.68        68.86152
251.14        67.10513
251.59        66.01794
252.05        66.50116
252.51        68.60767
252.96        70.93437
253.42        71.21729
253.88        69.31395
254.33        66.29311
254.79        65.10134
255.25        68.42936
255.70        75.48681
256.16        84.16538
256.62        91.69771
257.07        95.06152
257.53        94.46359
257.99        91.29877
258.44        86.68253
258.90         82.9675
259.35        80.34286
259.81        78.99768
260.27        78.10808
260.72        77.00745
261.18        75.94354
261.63        74.57379
262.09         73.7353
262.55        73.92262
263.00        74.86176
263.46        76.33901
263.91        77.20525
264.37        76.57197
264.83        74.46172
265.28        71.32705
265.74        68.38385
266.19        66.75314
266.65        66.68372
267.11        67.54837
267.56        68.58038
268.02        68.72499
268.47        67.74801
268.93        66.04646
269.38        64.01371
269.84         62.5053
270.30        61.74731
270.75        61.46173
271.21        61.36455
271.66        61.01403
272.12        60.28114
272.57        59.30121
273.03        58.24044
273.48        57.23187
273.94        56.39873
274.39         55.6406
274.85        54.93053
275.31        54.15456
275.76        53.26147
276.22        52.32726
276.67        51.41237
277.13        50.75339
277.58        50.29773
278.04          50.035
278.49        49.69542
278.95        49.02319
279.40        47.93896
279.86        46.65115
280.31        45.34943
280.77        44.49401
281.22        44.06084
281.68        43.95099
282.13         43.8889
282.59        43.54675
283.04         42.8392
283.50        41.94316
283.95        41.00256
284.41        40.29377
284.86        39.83823
285.32        39.57327
285.77        39.39444
286.22         39.2334
286.68        39.05816
287.13        38.86795
287.59        38.66059
288.04        38.36751
288.50        38.01273
288.95        37.56623
289.41        37.11015
289.86        36.69004
290.32        36.37545
290.77        36.14111
291.22         35.9856
291.68         35.8658
292.13        35.77183
292.59         35.7451
293.04        35.82132
293.50        36.07941
293.95        36.51611
294.40        37.09698
294.86        37.76181
295.31         38.4265
295.77        39.06323
296.22        39.68206
296.68        40.29763
297.13        40.91857
297.58        41.55009
298.04        42.18238
298.49        42.80157
298.95        43.43762
299.40        44.07542
299.85        44.71676
300.31        45.34983
300.76        45.93558
301.21        46.47737
301.67        47.02332
302.12        47.55083
302.58        48.11016
303.03        48.67496
303.48        49.24407
303.94        49.87003
304.39        50.58171
304.84        51.37549
305.30        52.21789
305.75        52.96287
306.20        53.42799
306.66        53.61149
307.11        53.55806
307.57        53.42926
308.02        53.37613
308.47         53.4719
308.93        53.65895
309.38        53.88522
309.83        54.13445
310.29        54.37516
310.74        54.61571
311.19        54.76193
311.65        54.65548
312.10        54.27892
312.55        53.68956
313.00        53.07021
313.46        52.70547
313.91        52.63705
314.36        52.79663
314.82         53.0187
315.27         53.0563
315.72        52.82665
316.18        52.42675
316.63        51.94905
317.08        51.55285
317.53        51.28166
317.99        51.07146
318.44        50.88899
318.89        50.67254
319.35        50.40217
319.80        50.11016
320.25        49.80655
320.70        49.50194
321.16        49.19626
321.61        48.88831
322.06        48.57604
322.51        48.26717
322.97        47.95346
323.42        47.64199
323.87        47.32114
324.32        46.97979
324.78        46.60807
325.23           46.23
325.68        45.83579
326.13         45.4197
326.59        44.98905
327.04        44.57809
327.49        44.21525
327.94        43.95223
328.39        43.79415
328.85        43.69696
329.30        43.67123
329.75        43.65996
330.20        43.63336
330.66         43.5759
331.11        43.47561
331.56        43.25364
332.01         42.9013
332.46        42.43431
332.92        41.92141
333.37        41.51144
333.82         41.2491
334.27         41.1263
334.72        41.08316
335.17        41.00527
335.63         40.8475
336.08        40.65324
336.53        40.49349
336.98        40.50519
337.43         40.7057
337.88         41.0415
338.34        41.34258
338.79        41.38935
339.24        41.11441
339.69        40.58571
340.14        40.00205
340.59        39.69912
341.05        39.75136
341.50        40.06523
341.95        40.44303
342.40        40.57641
342.85        40.39407
343.30        40.00691
343.75        39.55193
344.20        39.24963
344.66        39.16054
345.11         39.1818
345.56        39.26137
346.01        39.31916
346.46        39.31155
346.91        39.27835
347.36          39.162
347.81        38.86069
348.26        38.38715
348.72        37.80637
349.17        37.23568
349.62        36.94643
350.07        36.99989
350.52        37.30021
350.97        37.72251
351.42        38.07622
351.87        38.28629
352.32        38.39183
352.77        38.36959
353.22        38.18975
353.67        37.87035
354.13        37.43847
354.58        36.95952
355.03        36.58664
355.48        36.36456
355.93        36.27293
356.38        36.26189
356.83        36.23991
357.28         36.1691
357.73        36.05669
358.18        35.92311
358.63        35.80528
359.08        35.70578
359.53        35.60945
359.98        35.45226
360.43        35.14067
360.88        34.67189
361.33        34.08706
361.78        33.50733
362.23        33.12829
362.68        32.99081
363.13        33.02849
363.58        33.11505
364.03        33.05143
364.48        32.78168
364.93        32.36166
365.38         31.8617
365.83        31.40844
366.28        31.05147
366.73        30.75313
367.18        30.49558
367.63        30.25052
368.08        30.00676
368.53        29.78688
368.98        29.58143
369.43        29.36437
369.88        29.13133
370.33        28.88225
370.78         28.6392
371.23        28.44727
371.68        28.31744
372.13        28.23472
372.58        28.17361
373.03        28.09274
373.48         27.9749
373.93        27.82495
374.38        27.65289
374.83        27.47323
375.28        27.28643
375.72        27.07754
376.17        26.85352
376.62         26.5855
377.07        26.28406
377.52         25.9729
377.97        25.69336
378.42        25.50509
378.87        25.41593
379.32        25.39747
379.77        25.42029
380.22        25.43837
380.67        25.43169
381.11        25.41566
381.56        25.35568
382.01        25.21859
382.46         25.0042
382.91        24.71668
383.36        24.42768
383.81        24.24635
384.26        24.19277
384.71        24.24898
385.15        24.31209
385.60        24.22823
386.05        23.97044
386.50        23.58626
386.95        23.21497
387.40        23.07694
387.85        23.20339
388.29        23.50206
388.74        23.81153
389.19        23.88913
389.64        23.68972
390.09         23.2896
390.54        22.82788
390.98        22.51989
391.43        22.44454
391.88        22.51965
392.33        22.63545
392.78        22.63447
393.23        22.49017
393.67        22.24914
394.12        22.02884
394.57        21.91387
395.02        21.92319
395.47        22.01821
395.91        22.14024
396.36        22.16735
396.81         22.0782
397.26        21.90657
397.71        21.72698
398.15        21.63138
398.60        21.66337
399.05        21.77707
399.50        21.89619
399.95        21.91232
400.39         21.8043
400.84        21.59997
401.29        21.38408
401.74        21.31167
402.18        21.42344
402.63        21.65692
403.08        21.89105
403.53        21.93243
403.97        21.74472
404.42        21.40876
404.87        21.04473
405.32        20.85025
405.76        20.87385
406.21        21.04589
406.66        21.28169
407.11        21.44924
407.55        21.50782
408.00        21.50501
408.45         21.4548
408.90        21.32449
409.34        21.15263
409.79        21.04632
410.24        21.00109
410.68        20.92133
411.13        20.81539
411.58        20.75671
412.03        20.74181
412.47        20.73279
412.92        20.72072
413.37        20.70763
413.81        20.72329
414.26        20.82888
414.71        21.02006
415.15        21.28312
415.60        21.51171
416.05        21.56394
416.49        21.40908
416.94        21.09651
417.39        20.74795
417.83        20.56006
418.28        20.58675
418.73        20.76078
419.17        20.98055
419.62        21.07679
420.07        21.01111
420.51        20.84208
420.96        20.63788
421.41        20.48032
421.85        20.39183
422.30        20.35598
422.74        20.35597
423.19        20.40296
423.64         20.4811
424.08        20.60315
424.53        20.71936
424.98        20.77198
425.42         20.7503
425.87        20.66992
426.31        20.56444
426.76        20.49807
427.21        20.47598
427.65         20.4712
428.10         20.4917
428.54        20.52184
428.99        20.55804
429.44        20.69595
429.88        20.83626
430.33        20.68404
430.77        20.31552
431.22        20.13479
431.66        20.17997
432.11        20.27486
432.56        20.38415
433.00        20.61075
433.45        20.78172
433.89         20.6638
434.34        20.40897
434.78        20.19453
435.23        19.96474
435.67        21.01482
436.12        20.40006
436.57        20.30672
437.01        19.96739
437.46        19.84294
437.90        19.97192
438.35         19.9671
438.79        20.11528
439.24        20.13146
439.68        20.10282
440.13        19.86943
440.57        19.56507
441.02        19.71064
441.46        20.12265
441.91        20.17513
442.35        19.40451
442.80        19.17574
443.24        19.29283
443.69        19.32716
444.13        19.23429
444.58        19.16051
445.02        19.11121
445.47        19.09974
445.91        19.11094
446.36        19.07593
446.80        18.98665
447.24        18.88891
447.69        18.80985
448.13        18.75028
448.58        18.72281
449.02        18.72022
449.47        18.72993
449.91        18.72356
450.36        18.69915
450.80        18.66037
451.25        18.62327
451.69        18.59402
452.13        18.58135
452.58        18.57502
453.02         18.5748
453.47        18.58294
453.91        18.59858
454.36         18.6209
454.80        18.63422
455.24         18.6107
455.69        18.55413
456.13        18.45453
456.58        18.35817
457.02         18.3231
457.46        18.35554
457.91        18.39539
458.35        18.41523
458.79        18.42205
459.24        18.40425
459.68        18.36574
460.13        18.37127
460.57        18.34663
461.01        18.27817
461.46        18.66023
461.90        18.75171
462.34        18.54635
462.79        18.65907
463.23        18.47138
463.68        18.30174
464.12        18.18197
464.56        18.27719
465.01        18.43804
465.45        18.60073
465.89        18.69282
466.34        18.70252
466.78        18.59347
467.22        18.43269
467.67        18.45918
468.11        18.63724
468.55        18.59608
468.99        18.37168
469.44        18.32144
469.88        18.45999
470.32        18.59138
470.77         18.6646
471.21         18.6932
471.65        18.66487
472.10        18.57679
472.54        18.46978
472.98        18.44903
473.42        18.52973
473.87        18.62821
474.31        18.70902
474.75        18.83279
475.20        18.94863
475.64        18.86866
476.08        18.67108
476.52         18.6396
476.97        18.79408
477.41        19.00518
477.85        19.19627
478.29        19.29957
478.74        19.29312
479.18        19.16797
479.62        19.01913
480.06        18.99896
480.50         19.1116
480.95        19.22202
481.39        19.28431
481.83         19.3211
482.27        19.32185
482.72        19.27777
483.16        19.22178
483.60        19.20537
484.04        19.23584
484.48        19.37621
484.93        19.64927
485.37        19.72368
485.81        19.78737
486.25        20.28261
486.69        20.76866
487.14        20.42082
487.58        20.11018
488.02        21.04626
488.46        20.49164
488.90        20.56847
489.34        20.38125
489.79        20.47044
490.23        20.77195
490.67        20.94676
491.11        20.97668
491.55        20.93476
491.99         20.8569
492.43        20.81553
492.88        20.83411
493.32        20.84348
493.76        20.87397
494.20        21.01334
494.64        21.26559
495.08        21.59937
495.52        21.94486
495.96        22.19646
496.41        22.33717
496.85        22.38253
497.29        22.38175
497.73         22.4923
498.17        22.70102
498.61        22.77811
499.05        22.74253
499.49        22.84647
499.93        23.10407
500.37        23.31897
500.82        23.48315
501.26        23.77497
501.70        24.12778
502.14        24.21691
502.58        24.08104
503.02        24.06005
503.46        24.18001
503.90        24.26512
504.34        24.28551
504.78         24.2749
505.22        24.23262
505.66        24.16045
506.10        24.10448
506.54        24.13169
506.98        24.25711
507.42        24.46539
507.86        24.70409
508.30        24.88621
508.74        24.98496
509.18        25.01468
509.62         25.0248
510.06        25.09693
510.50        25.24858
510.94        25.45736
511.38        25.65186
511.82        25.71751
512.26        25.63377
512.70        25.43979
513.14        25.23605
513.58        25.17572
514.02        25.28414
514.46        25.51311
514.90         25.7646
515.34        25.81687
515.78        25.67432
516.22        25.45572
516.66         25.2654
517.10        24.93354
517.54        24.49558
517.98        25.00255
518.42        24.86891
518.86        25.11983
519.30        25.25962
519.74        25.43997
520.18        25.60559
520.62        25.64644
521.06        25.56493
521.50        25.37644
521.93        25.14312
522.37        24.97855
522.81        24.91478
523.25          24.925
523.69        24.97523
524.13        25.00951
524.57        25.00729
525.01        24.98312
525.45        24.94923
525.89        24.92209
526.32        24.90526
526.76        24.89378
527.20         24.8657
527.64        24.79463
528.08        24.67726
528.52         24.5197
528.96        24.36701
529.40        24.28496
529.83        24.28353
530.27        24.35302
530.71        24.42128
531.15        24.37512
531.59        24.19912
532.03        23.93225
532.46        23.67069
532.90        23.58419
533.34        23.69269
533.78         23.9312
534.22        24.19401
534.66        24.31957
535.09        24.26364
535.53        24.08933
535.97        23.85285
536.41        23.64002
536.85        23.48789
537.28        23.38446
537.72        23.34184
538.16        23.30766
538.60        23.38959
539.04        23.48627
539.47        23.59393
539.91        23.71291
540.35         23.8461
540.79        23.78768
541.22        23.85935
541.66        23.91654
542.10         24.0775
542.54        23.94898
542.97        24.16035
543.41        24.25813
543.85        24.41266
544.29        24.56372
544.72        24.69013
545.16         24.8289
545.60        24.97061
546.04        25.03124
546.47        25.07045
546.91        25.33566
547.35        25.76136
547.79        26.03451
548.22        26.12545
548.66         26.1544
549.10        26.17606
549.53        26.37021
549.97        26.73583
550.41        26.77817
550.84        26.98158
551.28        27.09801
551.72        27.30883
552.15        27.53119
552.59        27.75884
553.03        28.14802
553.46        28.36023
553.90        28.55213
554.34        28.62874
554.77        28.61835
555.21        28.58301
555.65        28.61382
556.08        28.73157
556.52        28.90459
556.96        29.09073
557.39        29.25971
557.83        29.38579
558.27        29.41319
558.70        29.37708
559.14        29.39134
559.57        29.46067
560.01        29.56759
560.45         29.6752
560.88        29.68056
561.32        29.63477
561.75        29.66065
562.19        29.86695
562.63         29.9298
563.06        29.90771
563.50        30.03313
563.93        30.26702
564.37         30.4748
564.80        30.50136
565.24         30.5663
565.68        30.63291
566.11        30.71189
566.55        30.83157
566.98        30.92978
567.42        30.98341
567.85        31.34871
568.29        31.21673
568.72        31.54995
569.16        32.02271
569.60        32.34642
570.03        32.48337
570.47        32.58638
570.90        32.52343
571.34        32.97872
571.77        32.92949
572.21        33.18497
572.64        33.40503
573.08        33.67525
573.51        33.90629
573.95        34.06135
574.38        34.47057
574.82        34.73883
575.25        34.89854
575.69        34.83332
576.12        34.60848
576.56        34.55791
576.99        34.67842
577.42        34.95555
577.86         34.8423
578.29        34.72373
578.73        35.26282
579.16        35.04989
579.60        34.66322
580.03        34.62491
580.47        34.53732
580.90        34.38726
581.33        34.39499
581.77        34.30301
582.20        34.63692
582.64        34.30346
583.07        33.79958
583.51        33.88033
583.94        33.21514
584.37        33.24389
584.81        32.84257
585.24        32.85096
585.68        32.96053
586.11        32.81664
586.54        32.77991
586.98        32.43831
587.41        32.43314
587.85        32.46719
588.28        32.61956
588.71         32.4734
589.15         32.0617
589.58        31.90431
590.01        31.81217
590.45        32.09337
590.88        32.01964
591.31        31.96549
591.75        31.46513
592.18        31.66607
592.61        31.79847
593.05        31.96022
593.48        31.78177
593.91         32.7099
594.35        32.54532
594.78         32.4568
595.21        32.77674
595.65        33.03482
596.08        32.93372
596.51        32.97204
596.94        33.07392
597.38        33.18698
597.81        33.33463
598.24        33.72056
598.68        34.38603
599.11         34.4412
599.54        35.30342
599.97        35.34892
600.41        35.38286
600.84        36.00716
601.27        36.53727
601.70        37.00734
602.14        37.17245
602.57         37.6191
603.00        38.34197
603.43        38.85221
603.87        39.04559
604.30         39.7289
604.73        40.22044
605.16        40.41866
605.60        40.94715
606.03        41.52916
606.46        42.21085
606.89        42.92221
607.32        43.38423
607.76        43.36533
608.19         43.9747
608.62        44.56183
609.05          44.522
609.48        44.93029
609.92         45.5726
610.35        45.41742
610.78        46.54226
611.21        47.17389
611.64        46.98821
612.07        47.43368
612.50        47.67408
612.94        47.71803
613.37        48.21899
613.80         48.5035
614.23        48.80277
614.66         49.3849
615.09        49.74035
615.52        50.23944
615.96        50.63655
616.39        51.01065
616.82        51.42677
617.25        51.28527
617.68        51.57926
618.11        52.20376
618.54        52.53288
618.97        52.58094
619.40        52.16223
619.84        52.31013
620.27         51.9628
620.70        52.51433
621.13        53.41464
621.56        53.68635
621.99         53.4267
622.42         53.4632
622.85        53.89956
623.28         54.0609
623.71        53.89547
624.14        54.38924
624.57        53.91271
625.00        53.92595
625.43        54.03389
625.86        53.22275
626.29        53.21308
626.72        52.98309
627.15        52.83362
627.58        52.84169
628.01        52.78959
628.44        52.98142
628.87        52.61982
629.30        51.92952
629.73        51.45033
630.16        51.20037
630.59        50.87183
631.02        50.51204
631.45         49.9882
631.88        49.55704
632.31        49.20816
632.74        48.79737
633.17        48.31381
633.60        47.80499
634.03          47.274
634.46        46.70982
634.89         46.1263
635.32        45.54732
635.75        44.98746
636.18        44.45527
636.61        43.95477
637.04        43.48269
637.47        43.03461
637.89        42.61181
638.32        42.20846
638.75        41.84075
639.18        41.50977
639.61        41.21342
640.04        40.92418
640.47        40.59588
640.90        40.22449
641.33        39.83055
641.76        39.45902
642.18        39.18736
642.61        39.02848
643.04         38.9597
643.47        38.95426
643.90        38.96477
644.33        38.97449
644.76        39.00283
645.18        39.03995
645.61        39.07226
646.04        39.10358
646.47        39.13215
646.90         39.2078
647.33        39.41599
647.75        39.77058
648.18        40.24069
648.61         40.7522
649.04        41.19177
649.47         41.5437
649.89        41.81632
650.32        42.08159
650.75        42.57001
651.18        43.28219
651.61         43.8671
652.03        44.36076
652.46        45.28863
652.89        46.50299
653.32        47.15539
653.74        47.10057
654.17         47.8054
654.60        48.30096
655.03        49.69762
655.46        49.07893
655.88        51.14179
656.31        52.72886
656.74        60.12841
657.16        58.20994
657.59        54.78169
658.02        54.55182
658.45        54.58659
658.87        55.54867
659.30        56.04029
659.73        57.06487
660.15        57.81088
660.58        57.52958
661.01        57.46553
661.44        57.50715
661.86        57.97754
662.29        58.79021
662.72        59.53955
663.14        60.07268
663.57        60.28861
664.00        60.32486
664.42        60.47998
664.85        60.79062
665.27        61.51534
665.70        61.62875
666.13        61.97193
666.55        62.24915
666.98        62.45923
667.41        62.62084
667.83        62.77763
668.26        62.94611
668.69        63.12137
669.11        63.29942
669.54        63.47584
669.96        63.66354
670.39        63.83708
670.82        64.01791
671.24         64.3185
671.67        64.74839
672.09        64.94984
672.52        65.36971
672.94        65.59657
673.37        65.72901
673.80        65.56807
674.22        65.25107
674.65        65.16557
675.07        65.37541
675.50        65.69459
675.92         66.0238
676.35          66.225
676.77        66.26106
677.20        66.18694
677.62        66.07426
678.05        66.04299
678.47        66.12246
678.90        66.27714
679.32        66.49559
679.75        66.72604
680.17        66.93571
680.60        67.22075
681.02        67.55869
681.45        67.50378
681.87        67.57757
682.30        67.61533
682.72        67.75972
683.15        67.77268
683.57        67.69436
684.00        67.66104
684.42        67.81089
684.85        67.98596
685.27        68.20609
685.70        68.51475
686.12        68.82967
686.54        69.01614
686.97        69.04349
687.39        68.95877
687.82        68.81522
688.24        68.73476
688.66        68.74703
689.09        68.81593
689.51        68.93058
689.94         69.0444
690.36        69.16337
690.78        69.26624
691.21        69.32806
691.63        69.47251
692.06         69.7311
692.48        69.54344
692.90         69.5933
693.33        70.03063
693.75        69.85931
694.17        70.04116
694.60        70.17922
695.02        70.14353
695.44        69.92333
695.87         69.8601
696.29        69.93749
696.71        69.73609
697.14        69.37147
697.56        69.80593
697.98        70.68012
698.41        71.79685
698.83        71.28839
699.25        70.76846
699.68        70.76114
700.10        70.59927
700.52        70.61077
700.94        70.78891
701.37        71.05373
701.79          71.269
702.21        71.35815
702.64        71.36893
703.06        71.36227
703.48        71.44571
703.90        71.64028
704.33        71.90884
704.75        72.16533
705.17        72.20707
705.59        71.99956
706.01        71.74606
706.44        71.36979
706.86        71.31747
707.28        71.56272
707.70        72.01633
708.12        72.52934
708.55        72.86771
708.97        72.96777
709.39         72.9095
709.81         72.7486
710.23        72.58643
710.66        72.47564
711.08         72.3914
711.50        72.35374
711.92        72.41367
712.34         72.5749
712.76        72.83602
713.19        73.11235
713.61        73.32418
714.03        73.42506
714.45        73.38734
714.87        73.26704
715.29        73.33948
715.71        73.66863
716.13        73.53956
716.56        73.90192
716.98        74.12649
717.40        73.95084
717.82        73.81291
718.24         73.6462
718.66        73.58328
719.08         73.6433
719.50         73.8032
719.92        73.99732
720.34        74.10723
720.76        74.10384
721.19        74.01812
721.61        73.91583
722.03        73.86385
722.45        73.90852
722.87        74.01429
723.29        74.14793
723.71        74.24695
724.13        74.29904
724.55        74.32553
724.97        74.37534
725.39        74.52636
725.81        74.78597
726.23        75.11255
726.65        75.43919
727.07        75.66837
727.49        75.77234
727.91        75.77849
728.33        75.72004
728.75         75.6596
729.17        75.63741
729.59        75.62371
730.01        75.61221
730.43        75.68566
730.85        75.86059
731.27          75.762
731.69        75.95879
732.10        76.13992
732.52        76.40096
732.94        76.46472
733.36        76.30907
733.78          76.197
734.20        76.18086
734.62        75.98904
735.04        75.59239
735.46          75.898
735.88        75.70726
736.30        75.48197
736.72        75.63588
737.13        75.97031
737.55        76.52909
737.97         77.0404
738.39        77.32339
738.81        77.03182
739.23        76.39556
739.65        76.22203
740.06        76.43261
740.48         76.9475
740.90        76.83134
741.32        76.24207
741.74        75.99734
742.16        76.03748
742.57        76.20919
742.99        76.57257
743.41          76.883
743.83        77.07837
744.25        77.09834
744.67         76.9606
745.08        76.74212
745.50        76.53482
745.92        76.39719
746.34        76.29885
746.75        76.24076
747.17        76.21951
747.59        76.23938
748.01         76.3462
748.42        76.51415
748.84        76.66243
749.26        76.81779
749.68        76.89106
750.09        76.93759
750.51        77.37099
750.93        77.95826
751.35        77.81364
751.76         77.0836
752.18        76.57399
752.60        76.57333
753.01         76.8285
753.43        76.49242
753.85        76.60796
754.27        76.89208
754.68        77.40646
755.10        77.89891
755.52        77.95972
755.93        77.62523
756.35          77.423
756.77        77.44562
757.18        77.45278
757.60        77.50736
758.02        77.73277
758.43        77.99181
758.85        78.20777
759.26        78.39534
759.68        77.75613
760.10        77.72665
760.51        77.49334
760.93        77.40222
761.34        77.06319
761.76        77.43829
762.18        77.19357
762.59        76.77671
763.01        76.82314
763.42        77.38644
763.84        77.79261
764.26          77.967
764.67        77.91161
765.09        77.80193
765.50        78.14555
765.92        78.81044
766.33        78.96336
766.75        78.48515
767.16        78.04765
767.58        77.42169
768.00        77.11517
768.41        77.17196
768.83        77.44607
769.24        77.84568
769.66        78.56577
770.07        79.30668
770.49        79.13328
770.90        78.29313
771.32        78.23025
771.73        78.91315
772.15        79.14157
772.56        78.85233
772.97        78.53471
773.39        78.25086
773.80        78.14044
774.22        78.14721
774.63        77.88803
775.05        77.47078
775.46         77.4521
775.88        77.84795
776.29        78.42897
776.70        78.96111
777.12        79.18629
777.53        79.03654
777.95        78.55144
778.36        77.97604
778.77        77.73518
779.19        77.93521
779.60        78.50923
780.02        79.14166
780.43        79.51374
780.84        79.53734
781.26        78.89346
781.67        78.01875
782.09        78.65601
782.50        80.38765
782.91        80.61884
783.33        79.42838
783.74        79.09755
784.15         79.6789
784.57        79.93253
784.98        79.74312
785.39        79.29617
785.81        78.73511
786.22        78.55254
786.63        78.71848
787.04        78.77229
787.46        78.71821
787.87        78.73426
788.28        78.80703
788.70        79.38064
789.11        79.34383
789.52        79.66561
789.93        79.95113
790.35        79.96846
790.76        79.75553
791.17        79.61969
791.58          79.622
792.00        79.52612
792.41        79.33535
792.82        79.35023
793.23        79.44028
793.65         79.0681
794.06        78.54329
794.47        78.79097
794.88        79.55568
795.29         80.9557
795.71        80.65612
796.12        80.37106
796.53        80.66809
796.94        80.16889
797.35        79.42439
797.76         79.2008
798.18        79.51604
798.59        79.66393
799.00        79.59081
799.41        79.77621
799.82        80.15195
800.23        80.35245
800.64        80.32707
801.06        80.13918
801.47        79.92701
801.88        79.85022
802.29         79.9484
802.70        80.14886
803.11         80.3496
803.52        80.38889
803.93        80.24133
804.34        79.98614
804.75        79.69698
805.17        79.54249
805.58        79.59972
805.99        79.59117
806.40        79.56918
806.81        80.14565
807.22        81.04105
807.63        81.06058
808.04        80.35554
808.45        80.09512
808.86        80.46941
809.27        81.16222
809.68        81.93954
810.09        82.33517
810.50        82.22549
810.91        81.85516
811.32        81.39333
811.73        81.06359
812.14        80.88913
812.55        80.66055
812.96        80.37223
813.37        80.09326
813.78        79.90574
814.19        80.02942
814.60        80.35101
815.01        80.46927
815.42        80.34129
815.83        80.15115
816.24        80.00271
816.65        80.00281
817.05        80.20213
817.46        80.52091
817.87         80.8513
818.28        80.97572
818.69        80.86139
819.10        80.58131
819.51        80.27466
819.92        80.22909
820.33        80.52383
820.74        80.93772
821.14        81.38715
821.55        81.97931
821.96        82.53192
822.37         82.4801
822.78        81.92032
823.19        81.56841
823.60        81.51411
824.00        81.39635
824.41        81.16833
824.82        81.05681
825.23        81.07599
825.64        81.18613
826.04         81.3708
826.45        81.54527
826.86        81.69022
827.27        81.81449
827.68        81.90057
828.08         81.9511
828.49         81.9052
828.90        81.79192
829.31        81.63773
829.72        81.49848
830.12        81.41751
830.53        81.35508
830.94        81.31676
831.35         81.2689
831.75        81.22942
832.16        81.17238
832.57        81.13399
832.97        81.14827
833.38         81.1972
833.79        81.26022
834.20        81.33372
834.60        81.40754
835.01        81.49229
835.42        81.60581
835.82        81.69958
836.23        81.63401
836.64        81.41689
837.04        81.07333
837.45        80.76503
837.86        80.80507
838.26         81.2605
838.67        82.00826
839.08        82.76694
839.48        83.00558
839.89        82.59679
840.29        81.74884
840.70        80.85473
841.11        80.40531
841.51        80.53938
841.92        81.04686
842.33        81.79751
842.73        82.56616
843.14        83.12611
843.54        83.60139
843.95        83.85351
844.35        83.74709
844.76        83.30135
845.17        82.58556
845.57        81.81456
845.98        81.35775
846.38        81.30659
846.79        81.56643
847.19         82.0899
847.60        82.61217
848.00        83.08211
848.41        83.48692
848.81        83.84273
849.22        84.09377
849.62        84.27954
850.03        84.32793
850.43        84.30742
850.84        84.23753
851.24         84.1984
851.65        84.13284
852.05        84.08451
852.46        83.99096
852.86        83.85758
853.27        83.73792
853.67        83.59501
854.07        83.50743
854.48        83.45242
854.88        83.44106
855.29        83.40105
855.69        83.37783
856.10        83.27882
856.50        83.19475
856.90        83.09563
857.31        82.97472
857.71        82.91994
858.12        82.86844
858.52        82.86414
858.92        82.85928
859.33        82.82674
859.73        82.82825
860.13        82.86351
860.54        82.94334
860.94        83.12962
861.34        83.34441
861.75        83.51759
862.15        83.65062
862.55        83.68919
862.96        83.67086
863.36        83.57482
863.76        83.33295
864.17        82.96024
864.57        82.50838
864.97        82.14571
865.38        82.10835
865.78         82.4837
866.18        83.13672
866.58         83.8167
866.99        84.07035
867.39        83.81767
867.79        83.16254
868.19        82.24287
868.60        81.26726
869.00         80.3083
869.40        79.34698
869.80        78.58298
870.21        78.33482
870.61        78.70419
871.01        79.56277
871.41        80.50609
871.81        80.87247
872.22        80.53208
872.62        79.68821
873.02        78.67447
873.42        78.19753
873.82        78.28291
874.22        78.36862
874.63        78.46728
875.03        78.70207
875.43        78.99522
875.83        80.01939
876.23        79.79277
876.63        79.35846
877.03        78.39235
877.44         76.9212
877.84        121.2508
878.24         77.3003
878.64        78.18962
879.04        80.80425
879.44        78.30808
879.84        76.72173
880.24        79.54264
880.64        79.39882
881.04        77.02423
881.44        75.60273
881.84        75.67277
882.24        76.70653
882.65         78.0967
883.05        78.77132
883.45        78.35961
883.85        77.40632
884.25        76.44119
884.65        76.05865
885.05        76.42091
885.45        77.32365
885.85          78.342
886.25        78.78626
886.65         78.4761
887.05        77.64951
887.45        76.73869
887.85        76.37692
888.25        76.71917
888.65        77.57935
889.04        78.62219
889.44         79.1862
889.84         79.1121
890.24        78.57967
890.64        77.92766
891.04        77.66417
891.44        77.87289
891.84        78.34566
892.24        78.77621
892.64        78.65878
893.04        77.91513
893.44        76.84547
893.83        75.66869
894.23         74.7069
894.63        74.04965
895.03        73.57796
895.43         73.4349
895.83        73.86996
896.23        74.84813
896.63        76.26526
897.02        77.66286
897.42        78.19012
897.82        77.67266
898.22        76.38174
898.62        74.80196
899.01        73.69087
899.41        73.31309
899.81        73.43703
900.21         73.9362
900.61        74.61108
901.00        75.33587
901.40        76.13872
901.80        76.89764
902.20        77.37595
902.59        77.52155
902.99        77.36257
903.39        76.96217
903.79        76.46626
904.18        75.95441
904.58        75.44736
904.98        75.10455
905.38        75.16292
905.77        75.63026
906.17        76.45845
906.57        77.33192
906.96        77.76915
907.36        77.62272
907.76        77.00335
908.15         76.2634
908.55        75.92764
908.95        76.14076
909.34        76.78587
909.74        77.45304
910.14         77.4361
910.53        76.58356
910.93        75.21262
911.33        73.89648
911.72        73.53337
912.12        74.26205
912.52         75.6893
912.91        77.28323
913.31         78.1557
913.70        78.12379
914.10        77.44541
914.49         76.3159
914.89        75.20984
915.29        74.40067
915.68          73.797
916.08        73.53751
916.47        73.78339
916.87        74.46321
917.26        75.49071
917.66        76.59277
918.05        77.34061
918.45        77.56803
918.84         77.4338
919.24        76.91659
919.64         76.0276
920.03         74.8856
920.42        73.54276
920.82        72.47566
921.21        72.35935
921.61        73.23461
922.00        74.94299
922.40        76.79848
922.79        77.88383
923.19        77.90975
923.58        76.97248
923.98        75.45411
924.37        74.60585
924.77        74.92987
925.16        73.44426
925.55        74.83926
925.95        74.96076
926.34        75.16573
926.74        75.38349
927.13        75.68809
927.52        76.00317
927.92        76.27793
928.31        76.57759
928.70         76.7687
929.10        76.67877
929.49        76.30397
929.89        75.69541
930.28        75.15773
930.67        75.16917
931.07        75.77713
931.46        76.86358
931.85        77.99969
932.24        78.55152
932.64        78.36083
933.03        77.54343
933.42        76.40458
933.82        75.61373
934.21        75.38289
934.60        75.54613
934.99        75.69092
935.39        75.45244
935.78        74.77496
936.17        73.36568
936.56        71.38934
936.96        72.16914
937.35        71.60453
937.74        72.88114
938.13        74.18871
938.53        75.10122
938.92        75.56903
939.31        75.74695
939.70        75.75847
940.09         75.7032
940.49        75.66202
940.88        75.63947
941.27        75.64913
941.66         75.7488
942.05        75.94338
942.44        76.19358
942.84        76.56463
943.23        77.18192
943.62        77.99934
944.01        78.98669
944.40        79.79874
944.79        79.89477
945.18         79.1709
945.57         77.7295
945.97        76.13428
946.36        75.40544
946.75        75.87135
947.14        77.19093
947.53        78.66203
947.92        79.30795
948.31         78.9486
948.70        77.89967
949.09        76.60838
949.48        75.85024
949.87         75.8676
950.26        76.38966
950.65        77.11232
951.04        77.54719
951.43        77.52596
951.82        77.23251
952.21        76.77261
952.60        76.29496
952.99        75.87698
953.38        75.45018
953.77        75.08073
954.16        74.89106
954.55        74.89332
954.94        75.08659
955.33        75.33299
955.72        75.37927
956.11        75.17212
956.50        74.77026
956.89        74.34975
957.28        74.25887
957.66        74.58608
958.05        75.11279
958.44        75.65588
958.83        75.96662
959.22        75.98406
959.61        75.81332
960.00        75.41315
960.39        74.73344
960.78        73.83927
961.16        72.73727
961.55        71.77348
961.94        71.34933
962.33        71.53062
962.72        72.23068
963.11        73.06535
963.49        73.37197
963.88        72.89539
964.27        71.86062
964.66        70.71424
965.04        70.20528
965.43        70.51995
965.82        71.44898
966.21        72.59554
966.60        73.30869
966.98        73.42561
967.37        73.12724
967.76        72.76469
968.15        72.87957
968.53        73.59875
968.92        74.61133
969.31        75.62953
969.69        76.19522
970.08        76.10793
970.47        75.58421
970.86        74.71291
971.24        73.59365
971.63        72.40031
972.02        71.15582
972.40        70.10435
972.79         69.6752
973.17        69.98586
973.56        70.81737
973.95        71.99388
974.33        73.14421
974.72        73.95102
975.11        74.49771
975.49        74.58176
975.88        73.91093
976.26        72.54947
976.65        70.66773
977.04        68.73974
977.42        67.60665
977.81        67.52895
978.19        68.26591
978.58         69.5804
978.96        71.05404
979.35         72.3656
979.74        73.68704
980.12        74.69111
980.51        74.57983
980.89        73.42388
981.28         71.4328
981.66        69.46387
982.05        68.73985
982.43          69.419
982.82        71.15796
983.20        73.33449
983.59        74.48125
983.97        74.23673
984.35        72.90031
984.74        71.18788
985.12        70.15373
985.51        70.08163
985.89        70.65247
986.28        71.37243
986.66        71.41644
987.04         70.4943
987.43        69.14505
987.81        67.67892
988.20         66.3632
988.58        65.18935
988.96        63.92204
989.35        62.87732
989.73        63.00166
990.12        64.50357
990.50        67.02703
990.88        69.40591
991.27         70.4291
991.65        70.15289
992.03        68.87413
992.42        67.34045
992.80        67.05849
993.18        68.46725
993.56         70.8806
993.95        73.45992
994.33        75.43283
994.71        76.41518
995.10         76.6845
995.48        76.37892
995.86        75.59753
996.24        74.45398
996.63        72.92392
997.01        71.07523
997.39        69.34488
997.77        68.12474
998.15        67.41948
998.54         67.3944
998.92        68.15607
999.30        69.73092
999.68        72.40271
1000.06        75.38847
1000.45        75.94744
1000.83        73.19524
1001.21        68.42687
1001.59        64.07985
1001.97        62.07346
1002.35        62.24754
1002.73        64.05497
1003.12        66.52647
1003.50        67.52362
1003.88        65.99853
1004.26         62.7599
1004.64        59.08846
1005.02        56.66574
1005.40        55.96073
1005.78        56.53371
1006.16        58.08921
1006.54        59.90951
1006.92        61.34607
1007.30        62.32513
1007.69        62.96146
1008.07        63.65477
1008.45        64.50594
1008.83        65.70408
1009.21          66.508
1009.59        64.57667
1009.97        58.66722
1010.35        49.72956
1010.73         42.3104
1011.11        41.43309
1011.49        46.84959
1011.86        56.60555
1012.24        65.92967
1012.62        69.86591
1013.00         67.9984
1013.38        62.18506
1013.76        55.02475
1014.14        51.04504
1014.52        51.64099
1014.90        55.39492
1015.28        60.21065
1015.66        62.63243
1016.04        61.44785
1016.41        57.56751
1016.79         52.1621
1017.17        48.41468
1017.55        47.85825
1017.93        49.14964
1018.31         51.0444
1018.69        52.46704
1019.06        53.16374
1019.44        53.36832
1019.82        52.94222
1020.20        51.43069
1020.58         48.8735
1020.95        45.56765
1021.33        41.70731
1021.71        36.56379
1022.09        28.99572
1022.46        15.73191
1022.84       -2.639019
1023.22       -6.043829
1023.60        14.24567
1023.97        35.79346
1024.35        47.94637
1024.73        52.61637
