SpectraSmart Spectrum 2.9.0.0
--------- Device Information -----------
Spectrum Name :  反射率_0
Saving Time :  2024/04/19 23:52:52
Spectro-Module Model Name : SE2030-DUVN
Spectro-Module Serial Number : OS361AC55029948
Wavelength Start : 200
Wavelength End : 1025
Wavelength Unit : Wavelength(nm)
Spectrum Unit : Reflectance(%)
-----------Spectrum Setting ------------
Integration Time : 30ms
Average : 10
Boxcar : 0
Background removal :  enabled
linearity correction :  enabled
SC :  disabled
Intensity correction :  disabled
DWT denoise :  enabled
savitzky-golay :  disabled
FFT :  disabled
Running average :  disabled
Kalman :  disabled
High pass :  disabled
---------------BEGIN--------------------
Wavelength(nm)             Reflectance(%)
200.29               0
200.75        55.74933
201.21        54.81822
201.67        55.33376
202.13        58.97084
202.58        66.45668
203.04        77.98929
203.50        90.05255
203.96        93.56651
204.42        87.71518
204.88        78.09824
205.34        69.50843
205.80        64.15429
206.26        61.18264
206.72        59.21328
207.18        58.29367
207.64        59.23185
208.10        62.14886
208.55        66.70621
209.01        69.97052
209.47        70.43404
209.93        68.58554
210.39        65.19968
210.85        61.41387
211.31        58.37317
211.77         56.0434
212.23        53.83568
212.69        51.87966
213.14        51.33056
213.60        52.20995
214.06        54.29765
214.52        56.34948
214.98        57.78158
215.44        58.70487
215.90        58.93328
216.36        59.16041
216.81        60.71204
217.27        63.54995
217.73        67.27208
218.19        69.43163
218.65        66.63022
219.11        58.33472
219.57         44.8822
220.02        29.66736
220.48        21.71475
220.94        24.34783
221.40        35.89633
221.86        50.20709
222.32        57.64421
222.77        55.96195
223.23        48.31323
223.69        39.69595
224.15        37.21563
224.61        41.07927
225.06        47.55812
225.52        53.13212
225.98          54.932
226.44        52.97038
226.90        48.61544
227.36        43.47784
227.81        40.34209
228.27        40.35456
228.73        42.22959
229.19        44.64208
229.65        46.08438
230.10         46.3272
230.56        46.00941
231.02        45.58828
231.48        45.58583
231.93        46.03148
232.39         46.6642
232.85        47.20794
233.31        47.31965
233.77        46.91942
234.22        46.15324
234.68        45.22208
235.14        44.35188
235.60        43.70169
236.05        43.28477
236.51        43.11541
236.97        43.18022
237.43        43.52529
237.88        44.35151
238.34        45.72858
238.80        47.81976
239.26        50.29992
239.71        52.66742
240.17        54.40942
240.63        55.58705
241.08        56.35659
241.54        56.74092
242.00        56.26898
242.46        53.88288
242.91        48.89514
243.37        40.10419
243.83        28.38506
244.28        21.98166
244.74         28.8409
245.20        47.15943
245.66        64.98177
246.11        72.54911
246.57        69.39397
247.03        56.16708
247.48        36.22124
247.94        29.14087
248.40        38.66553
248.85        51.55557
249.31        60.98206
249.77        65.23545
250.22        65.62303
250.68        63.74182
251.14        60.44156
251.59        57.49745
252.05         56.2622
252.51        56.34012
252.96        56.73917
253.42         56.0293
253.88        54.07781
254.33        51.83749
254.79        51.10455
255.25        53.23218
255.70        57.69695
256.16         63.1752
256.62        67.87498
257.07        69.87437
257.53        69.27232
257.99        66.81632
258.44        63.35949
258.90        60.77197
259.35        59.02641
259.81        58.15736
260.27        57.29606
260.72        55.67719
261.18        53.56141
261.63        50.88198
262.09        48.64822
262.55        47.75581
263.00        48.11038
263.46          49.324
263.91        50.26575
264.37           49.87
264.83        48.14243
265.28        45.53387
265.74        43.16869
266.19         42.1792
266.65        42.71563
267.11         44.1563
267.56        45.67103
268.02         46.0772
268.47        45.16602
268.93        43.35549
269.38        41.16425
269.84        39.65907
270.30        39.11697
270.75        39.21624
271.21        39.52593
271.66        39.40559
272.12        38.68078
272.57        37.56873
273.03        36.37301
273.48        35.46043
273.94        34.97321
274.39        34.73972
274.85        34.55809
275.31        34.11525
275.76        33.33949
276.22         32.3714
276.67        31.40748
277.13        30.83321
277.58        30.64591
278.04        30.73528
278.49        30.78972
278.95        30.43745
279.40        29.60283
279.86        28.51878
280.31        27.39688
280.77         26.6669
281.22        26.34114
281.68        26.29593
282.13        26.35056
282.59        26.27669
283.04        26.00764
283.50        25.66346
283.95        25.27011
284.41        24.89371
284.86        24.54576
285.32        24.21722
285.77        23.96118
286.22         23.9291
286.68        24.11519
287.13        24.44526
287.59        24.76626
288.04        24.83233
288.50        24.62329
288.95        24.18932
289.41         23.6981
289.86        23.33759
290.32        23.20799
290.77        23.23977
291.22        23.37454
291.68        23.48935
292.13        23.55948
292.59         23.6431
293.04        23.80388
293.50         24.1494
293.95        24.68195
294.40         25.3388
294.86         26.0367
295.31        26.66288
295.77        27.18554
296.22        27.64193
296.68        28.05564
297.13        28.44292
297.58        28.83403
298.04        29.23128
298.49        29.67715
298.95        30.27715
299.40        31.02223
299.85        31.87098
300.31        32.73244
300.76        33.46165
301.21        34.01891
301.67        34.46695
302.12        34.81505
302.58        35.14092
303.03        35.45033
303.48        35.74163
303.94        36.07127
304.39        36.48657
304.84        36.99446
305.30         37.5667
305.75        38.10221
306.20        38.46621
306.66        38.65015
307.11        38.68236
307.57        38.64588
308.02        38.59397
308.47        38.57724
308.93         38.5722
309.38         38.5924
309.83        38.70861
310.29        38.91079
310.74        39.17941
311.19        39.39857
311.65        39.38008
312.10        39.09219
312.55        38.59714
313.00        38.05299
313.46        37.70435
313.91        37.59198
314.36        37.65902
314.82        37.77647
315.27        37.75727
315.72        37.53839
316.18         37.1928
316.63        36.80236
317.08         36.4971
317.53        36.30796
317.99        36.18303
318.44        36.06888
318.89        35.87377
319.35        35.57621
319.80        35.21257
320.25         34.8341
320.70        34.51962
321.16        34.28385
321.61        34.10248
322.06        33.92941
322.51        33.69501
322.97        33.37411
323.42        32.99799
323.87        32.59085
324.32        32.19767
324.78        31.83122
325.23         31.4887
325.68        31.15944
326.13        30.83152
326.59        30.50471
327.04        30.21241
327.49        29.95702
327.94        29.74182
328.39        29.56335
328.85        29.39074
329.30        29.26657
329.75        29.22132
330.20        29.24652
330.66        29.30578
331.11        29.33101
331.56         29.1597
332.01        28.76191
332.46        28.18276
332.92        27.53895
333.37        27.04156
333.82        26.76394
334.27        26.67222
334.72        26.68614
335.17        26.65762
335.63        26.52602
336.08        26.33428
336.53        26.14659
336.98        26.07904
337.43        26.15221
337.88        26.32512
338.34        26.45328
338.79         26.3545
339.24        25.97741
339.69        25.37949
340.14        24.77035
340.59        24.49792
341.05        24.62649
341.50        25.05655
341.95        25.53983
342.40        25.69038
342.85        25.42454
343.30        24.87498
343.75        24.23999
344.20        23.84365
344.66        23.77345
345.11        23.89728
345.56        24.11396
346.01        24.26156
346.46        24.27457
346.91        24.22118
347.36        24.07461
347.81        23.77979
348.26        23.36247
348.72        22.87002
349.17        22.40159
349.62        22.20599
350.07        22.33466
350.52        22.69997
350.97        23.17721
351.42        23.57632
351.87        23.82423
352.32        23.95651
352.77        23.95831
353.22        23.81376
353.67        23.54315
354.13        23.17122
354.58         22.7511
355.03        22.40895
355.48        22.18594
355.93        22.06892
356.38        22.03721
356.83        22.04319
357.28          22.061
357.73        22.09387
358.18        22.12455
358.63        22.12509
359.08        22.08508
359.53        22.00537
359.98        21.88321
360.43        21.72132
360.88        21.52945
361.33         21.3127
361.78        21.10703
362.23        20.97043
362.68        20.91021
363.13        20.90255
363.58        20.90354
364.03        20.84258
364.48        20.69923
364.93          20.496
365.38        20.24447
365.83        19.96932
366.28        19.69255
366.73        19.41292
367.18        19.16544
367.63        19.00328
368.08        18.92838
368.53        18.92159
368.98        18.93357
369.43        18.88158
369.88        18.74895
370.33        18.56779
370.78        18.36018
371.23        18.16997
371.68        18.01683
372.13        17.87494
372.58        17.78411
373.03        17.81038
373.48        17.94735
373.93        18.17127
374.38        18.35927
374.83        18.32301
375.28        18.03449
375.72        17.54333
376.17        17.02054
376.62        16.70529
377.07        16.66428
377.52        16.82599
377.97        17.07021
378.42        17.20691
378.87        17.18276
379.32        17.05462
379.77        16.89694
380.22        16.81836
380.67        16.84234
381.11        16.92857
381.56        17.00189
382.01        16.96204
382.46        16.78443
382.91        16.50486
383.36        16.20595
383.81        16.00573
384.26        15.93295
384.71        15.96388
385.15        16.00955
385.60        15.93607
386.05        15.72098
386.50        15.40609
386.95        15.11484
387.40        15.03927
387.85        15.20317
388.29          15.527
388.74        15.85056
389.19        15.95128
389.64        15.78825
390.09        15.43095
390.54        15.01713
390.98        14.76124
391.43        14.73552
391.88        14.86324
392.33        15.02515
392.78        15.05087
393.23        14.91227
393.67         14.6605
394.12        14.42369
394.57        14.32445
395.02        14.38472
395.47        14.56092
395.91         14.7524
396.36        14.77067
396.81        14.58116
397.26        14.24578
397.71        13.90651
398.15        13.75681
398.60        13.84525
399.05        14.09252
399.50         14.3614
399.95        14.45675
400.39        14.33703
400.84        14.05834
401.29        13.74117
401.74        13.60443
402.18        13.71203
402.63        13.98215
403.08         14.2706
403.53        14.35205
403.97        14.18035
404.42        13.84508
404.87        13.47863
405.32        13.29487
405.76        13.34537
406.21        13.55032
406.66        13.80972
407.11        13.97049
407.55        13.98788
408.00        13.91629
408.45        13.78848
408.90        13.62496
409.34        13.46902
409.79        13.37558
410.24        13.33966
410.68        13.29847
411.13         13.2532
411.58        13.25563
412.03        13.28949
412.47        13.30399
412.92        13.28665
413.37        13.24049
413.81        13.20618
414.26        13.26134
414.71        13.40815
415.15        13.62807
415.60        13.81817
416.05        13.83568
416.49        13.64972
416.94        13.31563
417.39        12.94988
417.83        12.73939
418.28        12.73816
418.73        12.88413
419.17        13.08749
419.62        13.19384
420.07        13.16665
420.51        13.05464
420.96        12.91374
421.41        12.81279
421.85        12.76978
422.30        12.76783
422.74        12.78538
423.19        12.81829
423.64        12.85297
424.08        12.89965
424.53        12.93775
424.98        12.95304
425.42        12.94337
425.87        12.91396
426.31        12.86034
426.76        12.78637
427.21        12.68862
427.65        12.56251
428.10        12.45307
428.54        12.41461
428.99        12.46037
429.44        12.62749
429.88        12.81654
430.33        12.78451
430.77        12.56717
431.22        12.43203
431.66        12.42932
432.11        12.49428
432.56         12.6142
433.00        12.83634
433.45        13.02422
433.89        12.98122
434.34        12.78627
434.78        12.57441
435.23        12.33584
435.67         12.8881
436.12        12.43034
436.57        12.30972
437.01        12.06785
437.46         11.9724
437.90        12.04001
438.35        12.15367
438.79        12.26298
439.24        12.34331
439.68         12.3734
440.13        12.25714
440.57        12.07018
441.02         12.1294
441.46        12.32402
441.91        12.27452
442.35        11.71324
442.80        11.48521
443.24        11.46973
443.69        11.41261
444.13        11.29398
444.58        11.21213
445.02        11.16978
445.47        11.17207
445.91        11.19812
446.36        11.18879
446.80        11.13185
447.24        11.05605
447.69        10.98456
448.13        10.92687
448.58        10.89515
449.02        10.88416
449.47        10.88086
449.91        10.85917
450.36        10.81934
450.80        10.76772
451.25        10.73042
451.69        10.73458
452.13        10.78615
452.58        10.86242
453.02        10.94335
453.47        10.99493
453.91        11.00963
454.36         10.9996
454.80         10.9604
455.24        10.88755
455.69        10.79471
456.13         10.6753
456.58        10.57867
457.02        10.56954
457.46          10.653
457.91        10.78237
458.35        10.90902
458.79        10.98172
459.24        10.98372
459.68        10.92945
460.13        10.88965
460.57        10.86715
461.01        10.86673
461.46        11.16357
461.90        11.29067
462.34        11.19525
462.79        11.23984
463.23        11.06519
463.68        10.89273
464.12         10.7859
464.56         10.8566
465.01        10.99834
465.45        11.14767
465.89        11.22335
466.34        11.21251
466.78        11.10902
467.22        10.97209
467.67         10.9746
468.11        11.10345
468.55         11.1262
468.99        11.05188
469.44        11.07668
469.88        11.20366
470.32        11.31953
470.77        11.38928
471.21        11.41861
471.65        11.39998
472.10        11.33333
472.54        11.25271
472.98        11.24313
473.42        11.31837
473.87        11.42189
474.31        11.51888
474.75        11.62256
475.20        11.69739
475.64        11.63361
476.08        11.49546
476.52        11.48294
476.97        11.61224
477.41        11.79632
477.85        11.96826
478.29        12.05453
478.74        12.03439
479.18        11.91186
479.62        11.76751
480.06        11.72857
480.50        11.80445
480.95        11.90121
481.39        11.97239
481.83        12.00468
482.27        11.98697
482.72        11.92597
483.16        11.86053
483.60        11.85473
484.04        11.91452
484.48        12.08608
484.93        12.38435
485.37        12.53131
485.81        12.56665
486.25        13.14738
486.69         13.1733
487.14        12.88078
487.58        13.12443
488.02        13.73731
488.46        13.29223
488.90        13.30811
489.34         13.3356
489.79        13.46712
490.23        13.65751
490.67        13.84402
491.11        13.98217
491.55        13.97404
491.99        13.85369
492.43        13.79955
492.88        13.83975
493.32        13.85365
493.76        13.87296
494.20        14.00865
494.64        14.26572
495.08        14.60089
495.52         14.9492
495.96        15.22164
496.41        15.39274
496.85        15.45922
497.29        15.46454
497.73        15.55438
498.17        15.72798
498.61        15.80946
499.05        15.81393
499.49        15.92707
499.93        16.15779
500.37        16.36507
500.82        16.53499
501.26        16.78184
501.70        17.05633
502.14        17.13488
502.58        17.04523
503.02        17.02995
503.46        17.11078
503.90        17.16179
504.34        17.17618
504.78        17.20043
505.22        17.23624
505.66        17.27857
506.10        17.33178
506.54         17.3974
506.98        17.47646
507.42        17.57072
507.86        17.67552
508.30        17.78329
508.74        17.88772
509.18        17.98172
509.62        18.07154
510.06        18.16825
510.50        18.27395
510.94        18.39242
511.38        18.49231
511.82        18.52292
512.26         18.4795
512.70        18.37535
513.14        18.28168
513.58        18.30778
514.02        18.46474
514.46        18.71924
514.90         18.9767
515.34        19.02916
515.78        18.86754
516.22        18.62599
516.66        18.42549
517.10        18.10602
517.54        17.70564
517.98        18.36452
518.42        18.31286
518.86        18.59643
519.30        18.66664
519.74        18.71287
520.18         18.7331
520.62        18.69998
521.06        18.63828
521.50        18.53653
521.93        18.41557
522.37        18.32154
522.81        18.26522
523.25        18.24011
523.69         18.2362
524.13        18.23419
524.57        18.22396
525.01        18.20648
525.45        18.17946
525.89        18.13897
526.32        18.08443
526.76        18.02071
527.20        17.94139
527.64        17.84152
528.08        17.72379
528.52        17.58842
528.96        17.46593
529.40        17.40038
529.83        17.39673
530.27        17.44818
530.71        17.49828
531.15        17.45782
531.59        17.31431
532.03         17.0971
532.46         16.8812
532.90         16.8008
533.34        16.87194
533.78        17.04484
534.22        17.23724
534.66        17.32333
535.09        17.26849
535.53        17.12062
535.97        16.92615
536.41        16.75572
536.85        16.63876
537.28        16.56553
537.72        16.53831
538.16        16.50915
538.60        16.55325
539.04        16.60274
539.47        16.66825
539.91        16.76871
540.35        16.90944
540.79        16.93818
541.22        17.06499
541.66        17.15826
542.10        17.29567
542.54        17.19964
542.97        17.34245
543.41        17.43242
543.85        17.59755
544.29        17.78468
544.72        17.95053
545.16        18.08024
545.60         18.1632
546.04        18.15293
546.47        18.12821
546.91        18.33543
547.35        18.73793
547.79        19.05526
548.22        19.23559
548.66        19.37982
549.10        19.49393
549.53        19.61364
549.97        19.77529
550.41         19.7729
550.84        19.98804
551.28        20.14917
551.72        20.36954
552.15        20.61507
552.59        20.87732
553.03        21.15537
553.46        21.40602
553.90        21.58393
554.34        21.68002
554.77        21.70685
555.21        21.71426
555.65        21.76522
556.08        21.87235
556.52        22.03471
556.96        22.21346
557.39        22.33566
557.83        22.40071
558.27        22.45736
558.70        22.52174
559.14        22.58378
559.57        22.64345
560.01        22.74369
560.45        22.85384
560.88        22.87484
561.32        22.85083
561.75        22.86026
562.19        23.00529
562.63        23.11917
563.06        23.22323
563.50         23.3614
563.93        23.51213
564.37        23.69957
564.80        23.79897
565.24        23.88454
565.68        23.92255
566.11        23.97481
566.55        24.06697
566.98        24.11457
567.42        24.12128
567.85        24.43397
568.29        24.40952
568.72        24.72488
569.16        25.11537
569.60        25.38196
570.03        25.48878
570.47        25.57181
570.90        25.54413
571.34        25.88082
571.77         25.7509
572.21        26.14298
572.64        26.32811
573.08        26.51594
573.51        26.57837
573.95        27.17083
574.38        27.34136
574.82        27.59628
575.25        27.65667
575.69        27.55105
576.12        27.57968
576.56        27.52358
576.99         27.4835
577.42        27.71991
577.86        27.49613
578.29        27.58206
578.73        28.12802
579.16        27.73466
579.60        27.60174
580.03        27.48433
580.47        27.51666
580.90        27.26504
581.33        26.93034
581.77        27.04088
582.20        27.22994
582.64        27.04487
583.07        26.69066
583.51        26.76199
583.94         26.2968
584.37        26.31467
584.81        25.85118
585.24        25.77764
585.68        25.84638
586.11        25.61727
586.54        25.40035
586.98         25.3124
587.41        25.43321
587.85        25.43642
588.28        25.28948
588.71        25.10182
589.15        24.92896
589.58        24.76912
590.01        24.78042
590.45        25.15436
590.88        24.87447
591.31        24.84815
591.75         24.7358
592.18        24.90323
592.61         24.7786
593.05        25.01401
593.48        24.66553
593.91        25.52358
594.35        25.12743
594.78        25.27468
595.21        25.61843
595.65        25.95827
596.08        25.89461
596.51        25.93036
596.94        26.01461
597.38        26.10193
597.81        26.25136
598.24        26.55275
598.68        27.02004
599.11        27.31405
599.54        28.05974
599.97        27.93014
600.41        28.42782
600.84        28.96207
601.27        29.44061
601.70        29.76409
602.14        30.00174
602.57        30.36901
603.00         30.9289
603.43        31.52673
603.87        32.07177
604.30        32.61559
604.73         33.1329
605.16        33.60855
605.60        34.04821
606.03        34.55889
606.46        35.04532
606.89        35.72409
607.32        36.38846
607.76        36.54957
608.19        37.00749
608.62        37.47774
609.05        37.73975
609.48        38.01458
609.92        38.18285
610.35        38.73033
610.78        39.52425
611.21        40.16854
611.64        40.13452
612.07        40.53816
612.50        40.86066
612.94        40.87847
613.37        41.44295
613.80        41.78865
614.23        42.17657
614.66        42.66678
615.09         43.0564
615.52        43.47333
615.96        43.82792
616.39        44.17411
616.82        44.51311
617.25        44.72507
617.68        44.84423
618.11        45.22593
618.54        45.78873
618.97        45.88245
619.40        45.51595
619.84        45.91379
620.27        45.65399
620.70        46.13702
621.13        46.77974
621.56        47.08558
621.99        47.10315
622.42        47.11942
622.85        47.26174
623.28        47.37074
623.71        47.40336
624.14        47.79753
624.57        47.53338
625.00        47.43599
625.43        47.54061
625.86        47.08404
626.29        46.98376
626.72        46.73535
627.15        46.61539
627.58        46.54375
628.01        46.46093
628.44        46.32424
628.87        46.11731
629.30        45.60743
629.73        45.26988
630.16        44.91722
630.59        44.53034
631.02        44.18776
631.45        43.81117
631.88        43.49565
632.31        42.99839
632.74        42.51826
633.17        41.99966
633.60        41.46125
634.03        40.91095
634.46         40.3498
634.89        39.78238
635.32        39.20863
635.75        38.63614
636.18        38.07778
636.61        37.53622
637.04         37.0078
637.47        36.49116
637.89        35.98731
638.32        35.50486
638.75        35.08068
639.18        34.72202
639.61        34.42173
640.04        34.14367
640.47        33.82598
640.90        33.45784
641.33        33.06219
641.76        32.68273
642.18        32.39512
642.61        32.21407
643.04        32.11649
643.47        32.07896
643.90        32.06052
644.33        32.04805
644.76        32.06201
645.18        32.09349
645.61        32.13093
646.04        32.17615
646.47        32.22509
646.90        32.32649
647.33        32.56116
647.75        32.94256
648.18         33.4472
648.61        33.98889
649.04        34.43194
649.47        34.75277
649.89        34.97142
650.32        35.19932
650.75        35.66835
651.18        36.39861
651.61         37.1903
652.03        37.97263
652.46          38.824
652.89        39.66029
653.32        40.15355
653.74        40.41747
654.17        41.10668
654.60        41.39988
655.03        42.96124
655.46        43.23831
655.88        44.58405
656.31        45.47365
656.74         49.6908
657.16        49.45546
657.59        47.87334
658.02        47.84655
658.45        47.98752
658.87        49.04539
659.30        49.54177
659.73        50.31754
660.15        51.11078
660.58        51.23913
661.01         51.2933
661.44        51.23734
661.86         51.5924
662.29         52.3542
662.72         53.2533
663.14        54.07827
663.57        54.33055
664.00         54.1317
664.42        54.17702
664.85        54.57685
665.27        54.99784
665.70        55.36164
666.13        55.66623
666.55        55.89795
666.98        56.11491
667.41        56.33063
667.83        56.50749
668.26        56.64067
668.69        56.75419
669.11        56.87585
669.54        57.01311
669.96        57.16961
670.39        57.42826
670.82        57.75478
671.24        57.85381
671.67        57.81344
672.09        58.16963
672.52        58.80354
672.94        59.07477
673.37        58.91624
673.80        58.79529
674.22        58.77827
674.65        58.87251
675.07        58.92504
675.50        59.14949
675.92         59.4213
676.35        59.56902
676.77        59.56649
677.20        59.46674
677.62         59.3609
678.05         59.3885
678.47         59.5758
678.90        59.90521
679.32        60.28183
679.75        60.49566
680.17        60.52768
680.60        60.57153
681.02        60.68169
681.45        60.71788
681.87        60.73756
682.30        61.02798
682.72        61.47331
683.15        61.51163
683.57        61.21423
684.00        61.08329
684.42        61.28141
684.85        61.52909
685.27        61.51741
685.70        61.77429
686.12        62.11684
686.54        62.36266
686.97        62.48249
687.39        62.43767
687.82        62.31706
688.24        62.52697
688.66        62.97872
689.09        63.06615
689.51        62.81823
689.94        62.75518
690.36         62.9198
690.78        62.98267
691.21        62.93309
691.63        62.98202
692.06         63.2807
692.48        63.17571
692.90        63.30386
693.33        63.73553
693.75        63.55481
694.17        63.68414
694.60        63.77264
695.02        63.66893
695.44        63.41097
695.87        63.38791
696.29        63.57408
696.71        63.51819
697.14        63.42101
697.56        63.58506
697.98        64.39882
698.41        65.15267
698.83        65.06161
699.25        64.36977
699.68        64.60849
700.10        64.46817
700.52        64.49393
700.94        64.65197
701.37        64.86704
701.79        65.01554
702.21        65.02616
702.64        64.95744
703.06        64.87802
703.48        64.91713
703.90        65.09528
704.33         65.3364
704.75        65.57244
705.17         65.6724
705.59        65.60299
706.01        65.45003
706.44        65.30768
706.86        65.21557
707.28        65.26386
707.70        65.64944
708.12        66.21223
708.55        66.55597
708.97        66.63641
709.39        66.50804
709.81        66.19681
710.23        66.54382
710.66        66.23005
711.08        66.33325
711.50        66.43052
711.92        66.54967
712.34        66.67451
712.76        66.83152
713.19        66.98528
713.61        67.09064
714.03        67.11655
714.45        67.07785
714.87        67.03978
715.29        67.10899
715.71        67.30296
716.13        67.58612
716.56        67.87033
716.98        68.08237
717.40        68.16153
717.82        68.14015
718.24        68.06194
718.66        68.00031
719.08        67.98103
719.50        67.97986
719.92         67.9898
720.34         67.9985
720.76        68.00111
721.19        68.00826
721.61        68.02153
722.03        68.00266
722.45        67.96957
722.87        67.91545
723.29        67.88023
723.71        67.91879
724.13        68.04344
724.55         68.2459
724.97         68.4956
725.39        68.68561
725.81        68.78131
726.23        68.89683
726.65        69.09956
727.07        68.96327
727.49        69.35772
727.91        69.56768
728.33        69.78156
728.75        69.86675
729.17         69.8072
729.59         69.6376
730.01        69.43029
730.43        69.32259
730.85        69.34812
731.27        69.46424
731.69        69.61955
732.10        69.75279
732.52        69.84031
732.94        69.84292
733.36        69.74548
733.78        69.73211
734.20        69.87119
734.62        69.38298
735.04        69.56503
735.46        69.55419
735.88          69.433
736.30        69.34303
736.72        69.30436
737.13        69.59924
737.55        70.09747
737.97        70.60341
738.39        70.95294
738.81        70.81497
739.23        70.33679
739.65        70.27817
740.06        70.58782
740.48        70.68073
740.90        70.47192
741.32        70.12237
741.74        69.75682
742.16        69.76128
742.57         69.9438
742.99        70.30522
743.41         70.6586
743.83        70.88776
744.25        70.93616
744.67        70.82415
745.08        70.62533
745.50        70.43806
745.92        70.32289
746.34         70.2263
746.75        70.13798
747.17        70.10221
747.59        70.13737
748.01        70.03701
748.42        70.21037
748.84        70.28316
749.26        70.39559
749.68        70.40766
750.09        70.39651
750.51        70.77855
750.93        71.38631
751.35        71.48622
751.76        71.10059
752.18        70.86114
752.60        70.77899
753.01        70.70414
753.43         70.2892
753.85        70.21361
754.27        70.38543
754.68        70.79137
755.10        71.27511
755.52        71.31001
755.93        71.24198
756.35         70.9874
756.77        70.78975
757.18        70.67872
757.60        70.76172
758.02        71.10923
758.43        71.55344
758.85         71.7386
759.26        72.13783
759.68        71.39936
760.10        71.48513
760.51        71.24886
760.93        71.28852
761.34        70.86179
761.76        71.08653
762.18        70.78312
762.59        70.44966
763.01        70.39822
763.42        71.02942
763.84        71.55101
764.26        71.87576
764.67        71.88361
765.09        71.82386
765.50        71.53237
765.92        72.45963
766.33        72.68451
766.75          72.478
767.16        72.09516
767.58        71.62614
768.00        71.09851
768.41        70.76476
768.83        71.09981
769.24        71.91832
769.66        72.56936
770.07        72.82963
770.49        72.54428
770.90        71.96017
771.32        72.06324
771.73        72.76765
772.15        72.94138
772.56        72.57005
772.97         72.3579
773.39         72.3282
773.80        72.28405
774.22        72.15952
774.63        71.81139
775.05         71.3756
775.46        71.31583
775.88        71.65572
776.29        72.20454
776.70        72.73592
777.12        72.97004
777.53        72.83354
777.95        72.41143
778.36        71.91164
778.77        71.62406
779.19        71.68237
779.60        72.19513
780.02         72.8819
780.43        73.30977
780.84        73.38592
781.26        72.91804
781.67        72.25917
782.09        72.84343
782.50        74.27805
782.91        74.32145
783.33        73.10464
783.74        72.63486
784.15        73.05578
784.57        73.57726
784.98         73.9437
785.39        73.71445
785.81        72.97685
786.22        72.57207
786.63        72.58612
787.04        72.51318
787.46        72.37901
787.87        72.50083
788.28        72.85279
788.70        73.16965
789.11        73.39725
789.52        73.68469
789.93        73.95898
790.35        73.95248
790.76          73.735
791.17        73.60156
791.58        73.60788
792.00        73.64021
792.41        73.63154
792.82         73.5368
793.23         73.3092
793.65         72.8384
794.06        72.40544
794.47        72.50874
794.88        73.01067
795.29        74.09187
795.71        74.37624
796.12        74.07954
796.53         74.4895
796.94        73.92267
797.35        73.12203
797.76        72.93158
798.18        73.35967
798.59        73.55525
799.00          73.463
799.41        73.67339
799.82        74.10813
800.23        74.37081
800.64        74.41721
801.06        74.08488
801.47        73.95918
801.88        73.87537
802.29        74.00428
802.70        74.24838
803.11        74.48154
803.52        74.49652
803.93        74.26282
804.34        73.88772
804.75        73.47145
805.17        73.25504
805.58        73.31979
805.99        73.30295
806.40        73.29263
806.81        74.05876
807.22        75.14305
807.63         75.4515
808.04        73.91784
808.45        73.48353
808.86        73.99989
809.27        74.73914
809.68        75.44222
810.09        75.85831
810.50        75.86726
810.91        75.65974
811.32        75.37864
811.73        75.07849
812.14        74.80917
812.55        74.71993
812.96        74.73289
813.37        74.33333
813.78        73.68345
814.19         73.6823
814.60        74.21594
815.01        74.39745
815.42          74.177
815.83        74.01646
816.24        74.01649
816.65        74.13137
817.05        74.38518
817.46        74.72527
817.87        75.05565
818.28        75.19091
818.69        75.11874
819.10        74.90445
819.51        74.64576
819.92        74.64857
820.33        75.00272
820.74         75.2373
821.14        75.37907
821.55        76.31877
821.96        77.61477
822.37        77.28231
822.78        75.59295
823.19        74.80598
823.60        75.13149
824.00        75.34488
824.41        75.25172
824.82         75.2238
825.23        75.22375
825.64        75.18256
826.04        75.15723
826.45        75.18093
826.86        75.27073
827.27        75.40708
827.68         75.5628
828.08        75.71378
828.49        75.78735
828.90        75.82396
829.31        75.81128
829.72        75.72878
830.12        75.60249
830.53        75.41136
830.94        75.21228
831.35        75.05757
831.75        74.98805
832.16        74.96013
832.57        74.98043
832.97        75.02932
833.38         75.0724
833.79        75.10265
834.20        75.13539
834.60         75.1888
835.01        75.27766
835.42        75.40646
835.82        75.50323
836.23        75.39619
836.64        75.09042
837.04        74.63406
837.45        74.21767
837.86        74.19419
838.26        74.64188
838.67        75.42503
839.08        76.26873
839.48        76.64964
839.89        76.42746
840.29        75.80167
840.70        75.09867
841.11        74.72411
841.51        74.80585
841.92        75.15428
842.33        75.72227
842.73        76.43438
843.14        77.11009
843.54        77.82909
843.95        78.35634
844.35        78.38536
844.76         77.8959
845.17         77.0182
845.57         76.0555
845.98         75.5061
846.38        75.49091
846.79         75.8624
847.19        76.52688
847.60        77.15099
848.00        77.64352
848.41        78.02144
848.81        78.28028
849.22        78.32852
849.62        78.20878
850.03         77.8637
850.43        77.43691
850.84        77.10578
851.24        76.99364
851.65        77.01782
852.05        77.14281
852.46        77.16875
852.86        77.05746
853.27        76.89902
853.67         76.6963
854.07        76.58044
854.48        76.54844
854.88         76.5851
855.29        76.61484
855.69        76.67061
856.10         76.6601
856.50        76.67221
856.90        76.67768
857.31        76.65784
857.71         76.6913
858.12        76.71825
858.52        76.77528
858.92        76.81231
859.33        76.80234
859.73        76.78626
860.13        76.78798
860.54        76.86358
860.94        77.07186
861.34        77.33807
861.75        77.51257
862.15        77.46004
862.55        77.11546
862.96         76.5708
863.36        75.95821
863.76        75.46773
864.17        75.17594
864.57        75.05694
864.97        75.12203
865.38        75.36282
865.78        75.79245
866.18        76.33131
866.58        76.81834
866.99        76.97334
867.39        76.75895
867.79        76.21618
868.19        75.40258
868.60        74.40556
869.00        73.27374
869.40        72.06297
869.80        71.03371
870.21        70.59756
870.61        70.89612
871.01        71.76655
871.41        72.84123
871.81        73.51501
872.22        73.64272
872.62        73.39191
873.02        72.92731
873.42        72.73515
873.82        72.75206
874.22        72.36308
874.63         71.7998
875.03        71.65094
875.43         71.9931
875.83        73.59486
876.23        73.59536
876.63         73.0321
877.03        71.37124
877.44        68.71708
877.84        129.4787
878.24        68.21727
878.64        69.70914
879.04        73.86327
879.44        71.16521
879.84        69.59204
880.24        73.48231
880.64        73.32477
881.04         70.1945
881.44        68.35379
881.84        68.54932
882.24         70.0437
882.65        71.98585
883.05        72.81458
883.45        72.06155
883.85        70.51366
884.25        68.96999
884.65         68.3442
885.05        68.88113
885.45        70.26116
885.85        71.90498
886.25         72.8643
886.65        72.84837
887.05        72.15163
887.45        71.25419
887.85        70.86929
888.25        71.17611
888.65        71.94704
889.04        72.82175
889.44        73.12314
889.84        72.71017
890.24        71.81874
890.64        70.83699
891.04        70.31821
891.44        70.36317
891.84         70.7546
892.24        71.20132
892.64        71.21581
893.04        70.69669
893.44        69.90943
893.83        69.00418
894.23        68.20548
894.63        67.58608
895.03        67.04568
895.43        66.77007
895.83        67.08167
896.23        67.98367
896.63         69.3805
897.02        70.79546
897.42        71.34977
897.82        70.86012
898.22        69.59315
898.62        68.10606
899.01        67.26765
899.41        67.32404
899.81        67.98553
900.21         68.9417
900.61         69.7182
901.00        70.14943
901.40        70.35794
901.80        70.42837
902.20        70.47169
902.59        70.53548
902.99        70.55494
903.39        70.45518
903.79        70.13978
904.18        69.61429
904.58        68.99431
904.98        68.49051
905.38        68.40751
905.77        68.78912
906.17        69.54624
906.57         70.4035
906.96        70.95811
907.36        71.04948
907.76        70.74695
908.15        70.31184
908.55         70.1208
908.95        70.28282
909.34        70.73147
909.74        71.09484
910.14        70.73739
910.53        69.56367
910.93        67.88255
911.33        66.35857
911.72        66.02216
912.12        67.00928
912.52        68.88824
912.91        70.96777
913.31        72.11037
913.70        72.08149
914.10        71.19935
914.49         69.7925
914.89        68.62422
915.29        68.03656
915.68         67.8195
916.08        67.96188
916.47        68.43573
916.87        69.12434
917.26        70.02539
917.66        70.90337
918.05        71.38303
918.45        71.34369
918.84        70.93097
919.24        70.19537
919.64        69.26529
920.03         68.2711
920.42        67.22701
920.82        66.49709
921.21        66.58255
921.61        67.47781
922.00        69.06458
922.40        70.71964
922.79        71.64203
923.19        71.60191
923.58        70.61452
923.98        69.02724
924.37        68.19157
924.77        68.64021
925.16        66.72705
925.55         68.3845
925.95        68.49959
926.34        68.79973
926.74        69.15872
927.13        69.63605
927.52        70.11217
927.92        70.51976
928.31        70.94054
928.70        71.23273
929.10        71.21325
929.49        70.86592
929.89        70.23428
930.28        69.64536
930.67        69.61819
931.07        70.21306
931.46        71.32104
931.85        72.45753
932.24        72.89942
932.64        72.47221
933.03        71.28129
933.42        69.76617
933.82        68.85271
934.21        68.80457
934.60        69.37888
934.99        69.88419
935.39        69.63045
935.78        68.52865
936.17        66.25919
936.56        63.20491
936.96        64.06836
937.35        63.67262
937.74        65.94681
938.13        68.30325
938.53         69.9053
938.92        70.63851
939.31        70.80766
939.70         70.6308
940.09        70.36308
940.49        70.17218
940.88        69.99943
941.27        69.89565
941.66        69.98595
942.05        70.26551
942.44        70.68542
942.84        71.22701
943.23        71.84394
943.62        72.45418
944.01        73.09128
944.40        73.46626
944.79        73.13077
945.18        72.02323
945.57        70.21519
945.97        68.36005
946.36        67.61709
946.75        68.33102
947.14        70.10202
947.53        72.02769
947.92        72.85539
948.31        72.36749
948.70        70.95998
949.09        69.23689
949.48        68.25849
949.87        68.35657
950.26        69.17221
950.65         70.2962
951.04         71.0611
951.43         71.2272
951.82        71.03133
952.21        70.60103
952.60        70.11347
952.99          69.675
953.38        69.21631
953.77        68.81646
954.16        68.63269
954.55        68.68002
954.94        68.92809
955.33        69.27851
955.72        69.53511
956.11        69.64331
956.50        69.66922
956.89        69.60059
957.28        69.44599
957.66        69.25141
958.05        68.92896
958.44        68.66344
958.83        68.70313
959.22        69.05528
959.61        69.68282
960.00        70.22363
960.39        70.02418
960.78        68.96782
961.16        67.26194
961.55        65.55083
961.94        64.69322
962.33        64.87877
962.72        65.86673
963.11        67.13844
963.49        67.80148
963.88        67.50976
964.27         66.5728
964.66        65.44096
965.04        64.85805
965.43        65.02646
965.82        65.70578
966.21        66.58017
966.60        67.14975
966.98        67.27998
967.37        67.13031
967.76        66.92276
968.15        66.97668
968.53         67.3819
968.92        67.90705
969.31        68.43298
969.69        68.78101
970.08        68.82096
970.47        68.67112
970.86        68.27546
971.24        67.49529
971.63        66.43179
972.02        65.18156
972.40        64.03532
972.79        63.51497
973.17        63.77269
973.56         64.5473
973.95        65.69709
974.33        66.92611
974.72        67.91229
975.11        68.71019
975.49        69.00014
975.88        68.29944
976.26        66.63757
976.65         64.2486
977.04        61.71276
977.42        60.05808
977.81         59.6285
978.19        60.14679
978.58        61.35585
978.96         62.7683
979.35        64.05009
979.74        65.40186
980.12        66.50034
980.51        66.55279
980.89        65.60424
981.28        63.81438
981.66        62.02343
982.05        61.43804
982.43        62.21579
982.82        64.00597
983.20        66.16509
983.59        67.20155
983.97        66.75476
984.35         65.1703
984.74          63.204
985.12        61.94537
985.51        61.72573
985.89        62.23631
986.28        63.06433
986.66        63.45748
987.04        63.09837
987.43        62.37403
987.81        61.52914
988.20          60.817
988.58        60.23169
988.96        59.56152
989.35        58.90739
989.73         58.6408
990.12        58.89917
990.50         59.7273
990.88        60.52081
991.27        60.52404
991.65        59.81536
992.03        58.52738
992.42        57.39251
992.80        57.78688
993.18        59.99217
993.56        63.27642
993.95        66.52805
994.33         68.6387
994.71        69.21881
995.10        68.66535
995.48        67.42386
995.86        66.07508
996.24        64.86791
996.63        63.69118
997.01        62.51766
997.39        61.51719
997.77        60.87509
998.15        60.64915
998.54        60.93106
998.92        61.81726
999.30        63.34496
999.68        65.69002
1000.06        68.22108
1000.45         68.7357
1000.83        66.49912
1001.21        62.60547
1001.59        58.92795
1001.97        56.86103
1002.35        56.25165
1002.73        56.63514
1003.12        57.47247
1003.50         57.7029
1003.88        56.79679
1004.26        55.23021
1004.64        53.46734
1005.02        52.04493
1005.40         51.1338
1005.78        50.52228
1006.16        50.38208
1006.54        51.05756
1006.92        52.31863
1007.30        53.74837
1007.69        54.88141
1008.07        55.47986
1008.45        55.43129
1008.83        54.82704
1009.21        53.16384
1009.59        49.73495
1009.97        44.79632
1010.35        39.13118
1010.73         35.2882
1011.11        35.59227
1011.49         39.5977
1011.86          46.424
1012.24        52.75804
1012.62        55.42812
1013.00         54.2055
1013.38        50.21949
1013.76        45.35658
1014.14        42.95609
1014.52         43.9667
1014.90        47.33096
1015.28        51.31123
1015.66        53.01857
1016.04        51.46417
1016.41        47.36895
1016.79        41.83109
1017.17        37.83954
1017.55        36.98351
1017.93        38.16826
1018.31        40.29522
1018.69        42.45005
1019.06        44.39307
1019.44        46.27589
1019.82        47.95222
1020.20        48.64433
1020.58        47.96089
1020.95        46.04669
1021.33         42.9355
1021.71        37.87243
1022.09        29.57276
1022.46        14.02307
1022.84       -9.700132
1023.22       -19.95991
1023.60       -2.117382
1023.97        20.70022
1024.35        34.15032
1024.73        38.70057
