SpectraSmart Spectrum 2.9.0.0
--------- Device Information -----------
Spectrum Name :  反射率_0
Saving Time :  2024/04/19 23:52:31
Spectro-Module Model Name : SE2030-DUVN
Spectro-Module Serial Number : OS361AC55029948
Wavelength Start : 200
Wavelength End : 1025
Wavelength Unit : Wavelength(nm)
Spectrum Unit : Reflectance(%)
-----------Spectrum Setting ------------
Integration Time : 30ms
Average : 10
Boxcar : 0
Background removal :  enabled
linearity correction :  enabled
SC :  disabled
Intensity correction :  disabled
DWT denoise :  enabled
savitzky-golay :  disabled
FFT :  disabled
Running average :  disabled
Kalman :  disabled
High pass :  disabled
---------------BEGIN--------------------
Wavelength(nm)             Reflectance(%)
200.29               0
200.75        59.99358
201.21        61.16923
201.67        64.70806
202.13         70.9034
202.58         79.5164
203.04        90.70368
203.50        100.7029
203.96        101.0291
204.42        92.23232
204.88        80.37737
205.34         70.2543
205.80        63.67268
206.26        59.41214
206.72         55.8739
207.18        53.18015
207.64        53.36834
208.10        57.66851
208.55        65.03437
209.01        71.02122
209.47        73.00186
209.93        71.56853
210.39        67.87347
210.85        63.52202
211.31        60.18504
211.77        57.94106
212.23        56.12928
212.69        54.72399
213.14        54.29645
213.60        54.70799
214.06        56.17144
214.52        57.82325
214.98        59.27505
215.44        60.61064
215.90        61.61547
216.36        62.83274
216.81        65.12747
217.27        68.21567
217.73        71.81274
218.19        73.85709
218.65        71.51983
219.11        64.42918
219.57        52.85154
220.02        39.79154
220.48        33.32334
220.94        36.29826
221.40        47.11911
221.86        60.32328
222.32        67.37625
222.77        66.23988
223.23        59.77581
223.69        52.04175
224.15        48.90429
224.61        50.79239
225.06        54.75068
225.52        58.29787
225.98        59.42554
226.44        58.06933
226.90         55.2617
227.36        51.81387
227.81        49.08954
228.27        47.97211
228.73        47.79349
229.19        48.28849
229.65        49.16489
230.10        50.15548
230.56        51.31979
231.02        52.33056
231.48        52.77988
231.93        52.63782
232.39        52.05294
232.85        51.29405
233.31        50.84554
233.77        50.81311
234.22        51.04332
234.68        51.33858
235.14        51.24126
235.60        50.67751
236.05        49.88075
236.51        49.10628
236.97        48.68431
237.43        48.76985
237.88         49.4621
238.34         50.7559
238.80        52.72953
239.26        55.04544
239.71        57.36579
240.17        59.23616
240.63        60.74731
241.08        62.06031
241.54        63.10645
242.00        63.47932
242.46        62.31887
242.91        59.12883
243.37        53.03047
243.83        44.84584
244.28        41.02107
244.74        47.26203
245.20        61.77598
245.66        75.28799
246.11         80.4151
246.57        76.73029
247.03        64.70286
247.48        46.82034
247.94        39.55247
248.40        46.63137
248.85        56.91505
249.31          64.812
249.77        69.00574
250.22        70.49362
250.68        70.66998
251.14        69.70788
251.59        67.60577
252.05         64.8353
252.51        61.45448
252.96        57.99398
253.42        55.84474
253.88        55.44156
254.33        56.36126
254.79        58.90158
255.25        62.94134
255.70         67.8205
256.16        72.91183
256.62         76.7142
257.07        77.57244
257.53        75.82652
257.99        72.22462
258.44        67.89511
258.90        65.10228
259.35        63.65798
259.81        63.32867
260.27        62.99292
260.72        61.69967
261.18        59.74599
261.63        57.10913
262.09        54.82974
262.55        53.80864
263.00        53.97068
263.46        54.96615
263.91        55.68256
264.37        55.11092
264.83        53.25972
265.28        50.57613
265.74        48.18716
266.19        47.20246
266.65         47.7681
267.11        49.23441
267.56        50.78291
268.02        51.26276
268.47        50.45268
268.93        48.76999
269.38        46.64532
269.84        45.00215
270.30         44.1119
270.75        43.71694
271.21        43.56044
271.66        43.24718
272.12        42.64756
272.57        41.89838
273.03        41.14626
273.48        40.50202
273.94        40.04353
274.39        39.66685
274.85        39.28402
275.31        38.74028
275.76        37.98743
276.22        37.10079
276.67        36.19505
277.13        35.55247
277.58        35.15712
278.04        34.97496
278.49          34.744
278.95        34.16706
279.40        33.18742
279.86        32.01299
280.31        30.86595
280.77        30.20445
281.22        30.01954
281.68         30.1748
282.13        30.40663
282.59        30.37203
283.04        29.98462
283.50        29.40625
283.95        28.74787
284.41         28.2115
284.86        27.83113
285.32        27.55915
285.77        27.37626
286.22        27.32763
286.68        27.38916
287.13         27.5253
287.59        27.64497
288.04        27.57986
288.50        27.32559
288.95        26.89915
289.41        26.42532
289.86        26.02529
290.32        25.78787
290.77        25.67184
291.22        25.65516
291.68        25.66569
292.13        25.69081
292.59        25.77275
293.04        25.96058
293.50        26.34143
293.95        26.91029
294.40         27.6156
294.86        28.37151
295.31        29.06038
295.77        29.64821
296.22        30.16255
296.68        30.64095
297.13        31.12519
297.58        31.64418
298.04        32.19213
298.49        32.76403
298.95         33.3955
299.40        34.06707
299.85        34.75942
300.31        35.45392
300.76        36.11266
301.21        36.71764
301.67        37.30286
302.12        37.79757
302.58        38.16438
303.03        38.38878
303.48        38.51136
303.94        38.67299
304.39        39.04643
304.84        39.66146
305.30        40.44285
305.75        41.20358
306.20        41.68151
306.66        41.84086
307.11        41.75266
307.57        41.56976
308.02        41.44506
308.47        41.45451
308.93        41.54031
309.38         41.6685
309.83        41.84328
310.29        42.03786
310.74        42.25492
311.19        42.41137
311.65        42.36638
312.10        42.09879
312.55        41.65504
313.00        41.16386
313.46        40.82639
313.91        40.67501
314.36        40.66892
314.82        40.71157
315.27        40.66897
315.72        40.48822
316.18        40.22163
316.63        39.91563
317.08        39.65024
317.53        39.44249
317.99        39.25428
318.44        39.05186
318.89        38.77548
319.35        38.41601
319.80        38.00378
320.25        37.58111
320.70        37.21176
321.16        36.90967
321.61        36.66191
322.06        36.43705
322.51        36.18736
322.97        35.88907
323.42        35.55884
323.87         35.2065
324.32        34.85566
324.78        34.50809
325.23        34.16854
325.68        33.81204
326.13        33.40643
326.59        32.95394
327.04        32.49643
327.49        32.08022
327.94        31.77881
328.39        31.60635
328.85        31.51995
329.30        31.51394
329.75         31.5254
330.20        31.51888
330.66        31.47949
331.11        31.39611
331.56        31.19998
332.01         30.8809
332.46        30.45072
332.92        29.96413
333.37        29.53085
333.82        29.19588
334.27        28.96313
334.72        28.80289
335.17        28.65386
335.63        28.48718
336.08        28.31784
336.53        28.20083
336.98         28.2367
337.43        28.42857
337.88        28.74081
338.34        28.98631
338.79        28.91332
339.24        28.45933
339.69        27.69788
340.14        26.90085
340.59        26.52736
341.05        26.67214
341.50        27.20485
341.95        27.82232
342.40         28.0509
342.85        27.78386
343.30        27.18156
343.75        26.47315
344.20         26.0325
344.66         25.9609
345.11         26.1041
345.56        26.34299
346.01        26.49126
346.46        26.47543
346.91         26.3762
347.36        26.17255
347.81        25.81355
348.26        25.33137
348.72        24.77622
349.17        24.25509
349.62        24.03058
350.07        24.15616
350.52         24.5349
350.97        25.04287
351.42        25.49076
351.87        25.79897
352.32        26.00129
352.77         26.0531
353.22        25.89226
353.67        25.53646
354.13        25.02957
354.58        24.47358
355.03        24.07235
355.48        23.88396
355.93        23.87066
356.38        23.97045
356.83        24.06989
357.28        24.12157
357.73        24.14415
358.18        24.13783
358.63        24.10498
359.08        24.04487
359.53        23.94727
359.98        23.79792
360.43        23.58382
360.88        23.31408
361.33        23.00536
361.78        22.71175
362.23        22.51703
362.68        22.43626
363.13        22.43827
363.58        22.46342
364.03        22.41783
364.48        22.27133
364.93         22.0462
365.38        21.76484
365.83        21.47074
366.28        21.19047
366.73        20.92192
367.18        20.67483
367.63        20.46278
368.08        20.28897
368.53        20.15328
368.98        20.05905
369.43        20.00327
369.88        19.98069
370.33        19.99372
370.78        20.00765
371.23        19.96886
371.68        19.86558
372.13        19.69918
372.58        19.53671
373.03        19.49556
373.48        19.58987
373.93        19.77519
374.38        19.93823
374.83        19.90664
375.28        19.64963
375.72        19.21925
376.17        18.74809
376.62        18.40844
377.07        18.25893
377.52        18.25111
377.97        18.32348
378.42        18.37834
378.87         18.3797
379.32        18.35181
379.77        18.31701
380.22        18.30534
380.67        18.32043
381.11        18.34756
381.56        18.33916
382.01        18.24188
382.46         18.0477
382.91        17.77542
383.36        17.49674
383.81        17.31548
384.26        17.25318
384.71        17.29043
385.15        17.33753
385.60        17.25825
386.05        17.02928
386.50        16.69281
386.95        16.37013
387.40        16.25148
387.85        16.36543
388.29         16.6382
388.74        16.92157
389.19        17.00608
389.64        16.85237
390.09        16.52353
390.54        16.15052
390.98        15.93615
391.43        15.94524
391.88        16.09968
392.33        16.27485
392.78        16.29346
393.23           16.13
393.67        15.84172
394.12         15.5648
394.57         15.4291
395.02        15.45943
395.47        15.60877
395.91        15.78586
396.36        15.81654
396.81        15.66615
397.26        15.39071
397.71         15.1071
398.15        14.97132
398.60        15.03013
399.05        15.21805
399.50        15.42495
399.95        15.49537
400.39         15.3962
400.84        15.17086
401.29        14.92372
401.74        14.84322
402.18        14.98095
402.63        15.26385
403.08        15.55292
403.53        15.63149
403.97        15.45698
404.42        15.11379
404.87        14.73892
405.32        14.55497
405.76        14.61504
406.21        14.84107
406.66        15.12229
407.11        15.28681
407.55        15.28791
408.00        15.18545
408.45        15.03106
408.90        14.87541
409.34        14.76665
409.79        14.74992
410.24        14.79313
410.68        14.78816
411.13        14.72719
411.58        14.67908
412.03        14.63922
412.47        14.57627
412.92        14.49042
413.37        14.38328
413.81        14.30262
414.26        14.33613
414.71        14.48555
415.15           14.73
415.60        14.95725
416.05        15.00668
416.49         14.8409
416.94        14.51928
417.39        14.15571
417.83        13.93534
418.28        13.91424
418.73        14.02864
419.17        14.20459
419.62        14.31389
420.07        14.32217
420.51        14.27024
420.96        14.18815
421.41        14.10236
421.85        14.02442
422.30        13.95481
422.74        13.89985
423.19        13.89782
423.64        13.94491
424.08        14.03947
424.53        14.14343
424.98        14.21167
425.42        14.22958
425.87        14.20996
426.31        14.15661
426.76        14.08691
427.21        14.00031
427.65        13.88492
428.10        13.78033
428.54        13.73271
428.99        13.75568
429.44        13.89914
429.88        14.06394
430.33        13.99837
430.77        13.74448
431.22         13.5892
431.66         13.5848
432.11        13.65617
432.56        13.78807
433.00        14.03684
433.45        14.24741
433.89        14.19179
434.34        13.95792
434.78        13.69836
435.23        13.42136
435.67         14.0466
436.12        13.61314
436.57        13.57348
437.01        13.40158
437.46          13.351
437.90        13.42819
438.35         13.5185
438.79        13.57266
439.24          13.574
439.68         13.5118
440.13        13.28427
440.57        13.00482
441.02         13.0594
441.46        13.33397
441.91        13.40246
442.35        12.92362
442.80        12.76301
443.24        12.78211
443.69        12.71343
444.13         12.5546
444.58        12.44829
445.02        12.40844
445.47        12.42882
445.91        12.47919
446.36        12.48366
446.80        12.42487
447.24        12.34008
447.69        12.25652
448.13        12.18574
448.58        12.14133
449.02         12.1163
449.47        12.09511
449.91        12.04825
450.36         11.9771
450.80         11.8917
451.25        11.82412
451.69        11.80843
452.13         11.8538
452.58        11.93713
453.02        12.03517
453.47        12.11016
453.91        12.15125
454.36        12.16695
454.80        12.15486
455.24        12.11342
455.69        12.05401
456.13        11.96705
456.58        11.88698
457.02        11.85745
457.46          11.884
457.91         11.9266
458.35        11.96622
458.79        11.99931
459.24        12.01558
459.68        12.01432
460.13        12.03836
460.57        12.03559
461.01        11.99841
461.46        12.25017
461.90        12.30322
462.34          12.146
462.79        12.18297
463.23        12.01045
463.68        11.85467
464.12        11.76176
464.56        11.84552
465.01        12.00039
465.45        12.16101
465.89        12.24385
466.34        12.23676
466.78        12.12774
467.22        11.98565
467.67         12.0076
468.11        12.17939
468.55        12.24405
468.99        12.19581
469.44        12.22736
469.88        12.33833
470.32        12.41098
470.77          12.427
471.21        12.42353
471.65        12.40025
472.10        12.34813
472.54        12.28917
472.98        12.28987
473.42        12.35845
473.87        12.44235
474.31        12.51486
474.75        12.60745
475.20        12.68512
475.64        12.62195
476.08        12.48048
476.52        12.46734
476.97        12.59805
477.41         12.7835
477.85        12.95488
478.29         13.0377
478.74        13.01257
479.18        12.88216
479.62         12.7356
480.06        12.71489
480.50        12.82786
480.95        12.96685
481.39        13.07563
481.83        13.13209
482.27        13.12323
482.72        13.05963
483.16        12.97705
483.60        12.94628
484.04        12.97792
484.48        13.08762
484.93        13.33412
485.37        13.50386
485.81        13.60451
486.25        14.18445
486.69        14.37432
487.14         13.7437
487.58         14.1104
488.02         14.7947
488.46        14.29495
488.90        14.28826
489.34        14.23824
489.79        14.40933
490.23         14.7118
490.67        14.88662
491.11         14.9046
491.55        14.84498
491.99        14.75447
492.43         14.7115
492.88        14.74409
493.32        14.78814
493.76        14.86206
494.20         15.0275
494.64        15.28359
495.08        15.60267
495.52        15.92747
495.96        16.18329
496.41        16.34992
496.85        16.41329
497.29         16.4236
497.73        16.54378
498.17        16.76986
498.61         16.9116
499.05        16.96073
499.49        17.07575
499.93         17.2611
500.37        17.38276
500.82        17.45792
501.26        17.65578
501.70        17.93751
502.14        18.05265
502.58        18.01847
503.02        18.07156
503.46        18.22402
503.90        18.34562
504.34        18.41352
504.78        18.45257
505.22        18.46144
505.66        18.44079
506.10        18.41712
506.54        18.43061
506.98        18.49353
507.42        18.59842
507.86        18.73009
508.30        18.86057
508.74        18.97728
509.18        19.08281
509.62        19.18151
510.06        19.28067
510.50          19.383
510.94        19.48828
511.38        19.57978
511.82        19.63292
512.26        19.64448
512.70        19.61847
513.14         19.5949
513.58        19.63373
514.02        19.73645
514.46        19.88548
514.90        20.02169
515.34        19.99288
515.78        19.80979
516.22        19.59113
516.66        19.43059
517.10        19.12568
517.54        18.70321
517.98        19.30332
518.42        19.20666
518.86        19.49225
519.30        19.62484
519.74        19.77348
520.18        19.89848
520.62        19.91591
521.06        19.83758
521.50        19.67042
521.93        19.47005
522.37        19.33919
522.81        19.30298
523.25        19.33571
523.69          19.401
524.13        19.43841
524.57        19.42784
525.01        19.38708
525.45        19.32735
525.89         19.2652
526.32        19.20655
526.76        19.14509
527.20         19.0759
527.64        18.99807
528.08         18.9109
528.52        18.81466
528.96        18.72034
529.40        18.64091
529.83        18.57863
530.27        18.53792
530.71        18.49304
531.15        18.40444
531.59        18.27133
532.03        18.10879
532.46        17.96402
532.90        17.92639
533.34        18.00005
533.78        18.14911
534.22         18.3104
534.66        18.38783
535.09        18.35329
535.53        18.24243
535.97        18.08796
536.41        17.94042
536.85        17.82357
537.28         17.7364
537.72         17.6884
538.16        17.63861
538.60        17.67199
539.04        17.71247
539.47        17.77174
539.91        17.87164
540.35        18.01696
540.79        18.04521
541.22        18.17832
541.66        18.27191
542.10        18.40824
542.54        18.29515
542.97        18.43389
543.41        18.51219
543.85        18.66732
544.29        18.84239
544.72        19.00111
545.16        19.14201
545.60        19.25321
546.04        19.28094
546.47        19.29054
546.91        19.50695
547.35        19.88518
547.79        20.16261
548.22        20.30473
548.66        20.39707
549.10        20.47685
549.53        20.68236
549.97        21.01464
550.41        21.08762
550.84        21.28578
551.28        21.40595
551.72        21.58656
552.15        21.78896
552.59        22.01565
553.03        22.26361
553.46        22.49736
553.90         22.6853
554.34         22.8185
554.77        22.90786
555.21        22.97891
555.65        23.06016
556.08          23.158
556.52        23.26287
556.96        23.37139
557.39        23.50876
557.83        23.66402
558.27        23.77399
558.70        23.83944
559.14        23.90864
559.57        23.97615
560.01        24.04475
560.45        24.09969
560.88        24.08798
561.32        24.06183
561.75        24.08754
562.19        24.25673
562.63        24.36669
563.06         24.4355
563.50         24.5296
563.93        24.63834
564.37        24.78959
564.80        24.86466
565.24        24.96546
565.68        25.04823
566.11        25.13236
566.55        25.23817
566.98        25.31407
567.42        25.35101
567.85        25.65543
568.29        25.56727
568.72         25.8677
569.16        26.28703
569.60        26.58437
570.03        26.72882
570.47        26.85194
570.90        26.83169
571.34        27.22816
571.77        27.19559
572.21        27.37067
572.64        27.50664
573.08        27.81985
573.51        28.09967
573.95        28.37977
574.38         28.6177
574.82        28.80591
575.25        28.93991
575.69        28.86199
576.12        28.88027
576.56        28.84365
576.99        28.85248
577.42        28.95405
577.86        28.95138
578.29        28.84478
578.73        29.19358
579.16        28.98963
579.60        28.75093
580.03        28.71649
580.47        28.68902
580.90        28.56856
581.33        28.33345
581.77         28.4668
582.20        28.75302
582.64        28.10195
583.07        27.99014
583.51        27.98005
583.94        27.59941
584.37        27.45601
584.81         27.0064
585.24         26.9392
585.68        27.09166
586.11        26.97484
586.54        26.86887
586.98        26.76742
587.41        26.79402
587.85        26.78622
588.28        26.70363
588.71        26.50088
589.15        26.27454
589.58        25.91261
590.01        26.09234
590.45        26.51954
590.88        26.14918
591.31        26.04366
591.75        25.86634
592.18        26.04265
592.61        25.94039
593.05          26.317
593.48        26.09413
593.91        26.70058
594.35        26.46048
594.78        26.63252
595.21        27.03259
595.65         27.3332
596.08        27.13615
596.51        27.12749
596.94        27.23096
597.38        27.33418
597.81        27.53008
598.24        27.66198
598.68        28.34329
599.11        28.65426
599.54        29.48742
599.97        29.17529
600.41        29.72237
600.84        30.35203
601.27        30.65553
601.70        31.08321
602.14        31.37002
602.57         31.8191
603.00        32.39539
603.43        32.82692
603.87        33.15398
604.30         33.6538
604.73         34.3087
605.16         34.8519
605.60        35.35023
606.03        35.85386
606.46        36.29781
606.89         37.0546
607.32        37.56451
607.76        37.90234
608.19        38.34016
608.62        38.80246
609.05        39.11216
609.48        39.42706
609.92        39.70793
610.35        39.98819
610.78        40.84111
611.21        41.62218
611.64        41.37707
612.07        41.97986
612.50         42.3509
612.94        42.29473
613.37        43.01735
613.80         43.3697
614.23        43.74221
614.66        44.27314
615.09        44.53192
615.52        44.93847
615.96        45.28485
616.39        45.59913
616.82        45.94538
617.25        45.71457
617.68        46.25267
618.11        46.56745
618.54        46.97229
618.97        47.19871
619.40        47.21142
619.84        47.37304
620.27        46.92315
620.70        47.33095
621.13        48.19579
621.56        48.49451
621.99        48.33408
622.42        48.46236
622.85        48.90313
623.28        49.14055
623.71        49.18866
624.14        49.13231
624.57        49.02686
625.00        49.15242
625.43        48.96286
625.86        48.46305
626.29         48.2912
626.72        48.20665
627.15        48.00153
627.58        47.99559
628.01        47.98406
628.44        47.86301
628.87         47.5977
629.30        47.08943
629.73        46.67657
630.16        46.21646
630.59        46.12718
631.02        45.74876
631.45        45.19565
631.88        44.73042
632.31        44.35417
632.74        43.90085
633.17        43.35678
633.60        42.79295
634.03        42.21628
634.46        41.61511
634.89        41.00634
635.32        40.41605
635.75        39.85676
636.18        39.33344
636.61        38.84397
637.04        38.37537
637.47        37.91913
637.89        37.47779
638.32        37.04417
638.75        36.62954
639.18        36.23905
639.61        35.87607
640.04         35.5276
640.47        35.17001
640.90        34.80279
641.33        34.43644
641.76        34.10612
642.18        33.87178
642.61        33.73849
643.04         33.6875
643.47        33.68023
643.90        33.65201
644.33          33.587
644.76        33.51023
645.18        33.44259
645.61        33.42183
646.04        33.46428
646.47        33.55704
646.90        33.71639
647.33        33.97621
647.75        34.33681
648.18        34.76345
648.61        35.21283
649.04        35.66629
649.47        36.09207
649.89        36.38317
650.32        36.61538
650.75         37.0784
651.18        37.78727
651.61        38.44608
652.03        39.05011
652.46        39.94717
652.89        41.07341
653.32        41.73212
653.74        41.93654
654.17        42.87171
654.60        43.37492
655.03        44.26407
655.46        44.50117
655.88        45.84776
656.31        47.01796
656.74        51.60775
657.16        51.20163
657.59        49.30318
658.02        49.10659
658.45        49.33325
658.87        50.42188
659.30        51.09499
659.73        51.71352
660.15        52.44661
660.58        52.74429
661.01        52.81232
661.44        52.69442
661.86        53.00117
662.29        53.74846
662.72        54.69971
663.14        55.62325
663.57        55.86712
664.00        55.57758
664.42         55.6795
664.85        56.25286
665.27        56.70243
665.70        56.96637
666.13         57.2681
666.55        57.60117
666.98        57.89906
667.41        58.15856
667.83        58.36597
668.26        58.51538
668.69         58.6332
669.11        58.74039
669.54        58.86032
669.96        59.00909
670.39        59.18692
670.82        59.40986
671.24        59.66792
671.67        59.96068
672.09        60.33194
672.52        60.71222
672.94        60.93234
673.37        60.98052
673.80        60.90601
674.22        60.80271
674.65        60.80436
675.07        60.95842
675.50        61.20877
675.92        61.49166
676.35        61.67388
676.77        61.72792
677.20        61.69912
677.62         61.6354
678.05        61.61971
678.47        61.67286
678.90        61.77409
679.32        61.90649
679.75        62.04142
680.17        62.16307
680.60        62.30389
681.02        62.45472
681.45        62.53627
681.87        62.60172
682.30        62.77227
682.72         62.9765
683.15        63.26516
683.57          63.035
684.00        62.96246
684.42        63.05465
684.85        63.18588
685.27        63.40006
685.70        63.74933
686.12        64.12953
686.54         64.3697
686.97        64.43578
687.39        64.31295
687.82        64.10021
688.24         64.1675
688.66        64.47156
689.09        64.55042
689.51        64.42008
689.94        64.44913
690.36        64.66275
690.78        64.79883
691.21        64.82616
691.63        64.95905
692.06        65.22899
692.48        65.08804
692.90        65.16138
693.33        65.55189
693.75        65.32788
694.17        65.37388
694.60        65.37778
695.02        65.36033
695.44        65.30137
695.87        65.35778
696.29        65.60735
696.71         65.3466
697.14        64.85619
697.56        65.20395
697.98        66.17822
698.41        66.82851
698.83        66.47605
699.25        66.29454
699.68        66.23176
700.10        66.20586
700.52        66.26373
700.94        66.43295
701.37        66.64795
701.79        66.84456
702.21        66.96837
702.64        67.03795
703.06        67.07932
703.48         67.1457
703.90        67.24797
704.33        67.37296
704.75        67.48811
705.17        67.46808
705.59        67.29546
706.01        67.19448
706.44        66.94375
706.86        66.95692
707.28         67.1615
707.70        67.50707
708.12         67.8953
708.55        68.17237
708.97        68.29619
709.39        68.31488
709.81        68.26296
710.23        68.20603
710.66        68.17624
711.08        68.15839
711.50        68.15887
711.92        68.20569
712.34        68.30329
712.76        68.45686
713.19        68.61756
713.61        68.75669
714.03        68.83294
714.45         68.8554
714.87        68.87272
715.29        68.96441
715.71        69.14293
716.13        69.38362
716.56        69.60667
716.98        69.74712
717.40        69.73508
717.82        69.65964
718.24        69.60493
718.66        69.50295
719.08        69.33729
719.50        69.89931
719.92        69.71404
720.34        69.83267
720.76        69.81356
721.19        69.72582
721.61        69.61279
722.03        69.53567
722.45        69.54935
722.87        69.60112
723.29        69.69531
723.71        69.82771
724.13         69.9899
724.55        70.18736
724.97        70.38755
725.39        70.53565
725.81        70.61771
726.23        70.63745
726.65        70.64499
727.07        70.72691
727.49        70.89999
727.91        71.14104
728.33         71.3792
728.75          71.493
729.17        71.45609
729.59        71.31158
730.01        71.14223
730.43        71.07893
730.85        71.15416
731.27        71.32243
731.69        71.52568
732.10        71.68193
732.52        71.75095
732.94        71.76137
733.36        71.72449
733.78        71.66653
734.20         71.6222
734.62        71.55715
735.04        71.47066
735.46        71.49976
735.88        71.67056
736.30        71.42531
736.72        71.67266
737.13        71.80679
737.55        71.99846
737.97        72.16681
738.39        72.25632
738.81        72.08408
739.23        71.78979
739.65        71.84277
740.06        72.14536
740.48        72.45319
740.90        72.65659
741.32        71.99191
741.74        71.73804
742.16        71.50094
742.57        71.70417
742.99         71.9791
743.41         72.2442
743.83        72.46335
744.25        72.57677
744.67        72.59846
745.08        72.55116
745.50        72.44238
745.92        72.30491
746.34        72.12893
746.75        71.95717
747.17         71.8621
747.59        71.86652
748.01        71.97207
748.42        72.12949
748.84        72.26393
749.26        72.36813
749.68        72.29182
750.09        72.13055
750.51        72.40913
750.93        72.97014
751.35          72.941
751.76        72.38915
752.18        72.15559
752.60        72.28138
753.01        72.28455
753.43         72.1674
753.85        72.17285
754.27         72.3036
754.68         72.6018
755.10        72.94016
755.52        72.89458
755.93         72.5462
756.35        72.47898
756.77        72.72943
757.18        72.89634
757.60        73.02171
758.02        73.26518
758.43        73.50004
758.85        73.68299
759.26        74.11951
759.68        73.07408
760.10         73.2319
760.51        72.92826
760.93        73.14429
761.34        72.09665
761.76        73.05875
762.18         72.7662
762.59        72.39555
763.01        72.08153
763.42        73.16388
763.84        73.50182
764.26        73.39847
764.67        73.23533
765.09        73.19602
765.50         73.4597
765.92        73.95641
766.33        74.21828
766.75        74.09832
767.16        73.88869
767.58         73.5956
768.00        73.08022
768.41        72.59753
768.83          72.686
769.24        73.28897
769.66          73.965
770.07        74.45345
770.49        74.41273
770.90         73.9958
771.32        74.01104
771.73           74.43
772.15        74.54179
772.56        74.34068
772.97        74.04056
773.39        73.73316
773.80        73.90022
774.22        74.35042
774.63        74.07755
775.05        73.25082
775.46         73.0613
775.88        73.56598
776.29        74.16917
776.70        74.60661
777.12        74.75192
777.53        74.54171
777.95        73.99236
778.36        73.37666
778.77        73.15722
779.19        73.44167
779.60        74.14562
780.02        74.93226
780.43        75.42799
780.84        75.52109
781.26        74.94205
781.67        74.10667
782.09        74.63002
782.50         76.1512
782.91        76.30688
783.33        75.16872
783.74        74.82462
784.15        75.32713
784.57        75.52534
784.98        75.32845
785.39        74.98151
785.81        74.58243
786.22        74.44114
786.63        74.54597
787.04        74.55874
787.46        74.47618
787.87        74.50788
788.28        74.68448
788.70        74.89989
789.11        75.12249
789.52        75.42889
789.93        75.73043
790.35        75.74647
790.76        75.50996
791.17        75.34431
791.58         75.2921
792.00        75.07356
792.41        74.72993
792.82        74.67464
793.23        74.82831
793.65        74.53023
794.06        74.05129
794.47        74.35677
794.88        75.23686
795.29        76.23752
795.71        76.48801
796.12        75.84168
796.53         76.0985
796.94        75.48476
797.35        74.82016
797.76         74.6954
798.18        75.08096
798.59          75.283
799.00        75.22266
799.41        75.38435
799.82        75.71717
800.23        75.88834
800.64        75.85958
801.06        75.68625
801.47        75.49693
801.88        75.44206
802.29        75.55304
802.70        75.75253
803.11        75.94817
803.52          75.994
803.93        75.87344
804.34        75.66949
804.75        75.41492
805.17        75.25537
805.58        75.27165
805.99        75.07436
806.40        74.81657
806.81        75.58324
807.22        76.97303
807.63        77.07173
808.04        75.98477
808.45        75.66798
808.86        76.31382
809.27        77.18388
809.68        77.99232
810.09        78.38517
810.50        78.22424
810.91           77.77
811.32        77.20975
811.73        76.67078
812.14         76.2411
812.55         76.0154
812.96        75.95171
813.37        75.70778
813.78         75.3769
814.19        75.55298
814.60        76.10428
815.01        76.35755
815.42        76.25797
815.83        76.11866
816.24        76.03574
816.65        76.04845
817.05        76.20172
817.46        76.42949
817.87        76.65911
818.28        76.73273
818.69        76.63642
819.10        76.43472
819.51        76.21692
819.92        76.21958
820.33        76.51175
820.74        76.77213
821.14        77.00369
821.55        77.74436
821.96        78.70012
822.37        78.60286
822.78        77.61124
823.19        77.14744
823.60        77.34444
824.00        77.43653
824.41        77.30199
824.82        77.22943
825.23         77.2091
825.64         77.1842
826.04        77.19675
826.45        77.25739
826.86        77.37356
827.27        77.53841
827.68        77.69848
828.08        77.78525
828.49          77.723
828.90        77.56519
829.31        77.37269
829.72        77.25527
830.12        77.26894
830.53        77.34911
830.94        77.46427
831.35        77.53282
831.75        77.55553
832.16        77.51494
832.57         77.4612
832.97        77.45395
833.38        77.48382
833.79        77.52223
834.20        77.54799
834.60        77.52349
835.01        77.45931
835.42         77.3913
835.82        77.30587
836.23        77.12038
836.64        76.86129
837.04        76.54382
837.45        76.30419
837.86          76.409
838.26        76.90887
838.67        77.69187
839.08        78.49632
839.48        78.82481
839.89          78.554
840.29        77.87299
840.70        77.13272
841.11        76.77697
841.51        76.93347
841.92        77.39805
842.33        78.08459
842.73        78.84403
843.14        79.47137
843.54        80.07324
843.95        80.43284
844.35        80.28239
844.76        79.62408
845.17        78.57872
845.57        77.48356
845.98        76.88403
846.38        76.90472
846.79         77.3979
847.19        78.20485
847.60        78.86526
848.00        79.26572
848.41        79.46176
848.81        79.55569
849.22        79.62997
849.62        79.76128
850.03        79.82621
850.43        79.87474
850.84        79.90896
851.24        79.99158
851.65        80.08893
852.05        80.17542
852.46        80.12708
852.86        79.94688
853.27        79.55115
853.67        79.05125
854.07        79.09413
854.48         79.5284
854.88        79.52531
855.29        79.02454
855.69        78.81702
856.10        78.85788
856.50        78.76273
856.90        78.52699
857.31        78.43481
857.71        78.58766
858.12        78.83824
858.52        79.12146
858.92        79.22941
859.33        79.09917
859.73        78.82458
860.13        78.52864
860.54         78.4519
860.94         78.7187
861.34        79.19497
861.75        79.64584
862.15        79.79546
862.55        79.52661
862.96        78.97295
863.36        78.28288
863.76         77.6702
864.17        77.23737
864.57        76.95633
864.97        76.87161
865.38        77.02972
865.78        77.45663
866.18        78.06332
866.58        78.67407
866.99        78.96804
867.39         78.8866
867.79        78.47396
868.19        77.76047
868.60        76.79868
869.00        75.63022
869.40        74.30437
869.80        73.13213
870.21        72.61613
870.61        72.92596
871.01        73.89214
871.41         75.0659
871.81        75.70924
872.22        75.65651
872.62        75.11574
873.02        74.39036
873.42        74.17233
873.82        74.44248
874.22        74.55851
874.63        74.57236
875.03        74.69669
875.43        74.88711
875.83        75.94991
876.23        75.49426
876.63        74.73142
877.03        73.25791
877.44        71.13779
877.84         126.784
878.24        71.34623
878.64        72.61658
879.04        76.13383
879.44        73.37087
879.84        71.81437
880.24        75.54773
880.64        75.65829
881.04        73.05679
881.44        71.40344
881.84        71.29012
882.24        72.12638
882.65        73.33856
883.05        73.83564
883.45        73.26408
883.85        72.26086
884.25        71.34608
884.65        71.03779
885.05        71.47587
885.45        72.44553
885.85        73.55494
886.25        74.17118
886.65        74.10487
887.05        73.56956
887.45        72.86402
887.85        72.42876
888.25        72.39659
888.65        72.63439
889.04        73.02734
889.44        73.30433
889.84        73.40521
890.24        73.40615
890.64        73.37325
891.04        73.40057
891.44        73.48476
891.84        73.53366
892.24        73.48111
892.64        73.23712
893.04        72.80587
893.44        72.30384
893.83        71.70259
894.23        70.97773
894.63        70.15153
895.03        69.24199
895.43        68.52335
895.83        68.44769
896.23        69.07675
896.63        70.26674
897.02        71.57452
897.42        72.18037
897.82        71.89046
898.22         70.9548
898.62         69.8039
899.01        69.10497
899.41        69.07217
899.81        69.47466
900.21        70.12897
900.61        70.76611
901.00        71.26758
901.40        71.68789
901.80        72.03181
902.20         72.2748
902.59          72.421
902.99        72.45774
903.39        72.33035
903.79        71.97138
904.18        71.40784
904.58        70.73568
904.98        70.20367
905.38        70.18641
905.77        70.71964
906.17        71.67828
906.57        72.71445
906.96        73.30412
907.36         73.2697
907.76         72.7463
908.15        72.02856
908.55         71.5427
908.95        71.43504
909.34        71.62451
909.74        71.84548
910.14        71.63841
910.53         70.9155
910.93        69.91369
911.33        69.07166
911.72        69.07383
912.12         69.9873
912.52        71.47816
912.91        73.05366
913.31        73.88363
913.70        73.81421
914.10        73.08546
914.49        71.90508
914.89        70.79795
915.29        70.03947
915.68        69.52091
916.08        69.36613
916.47          69.714
916.87        70.48277
917.26        71.61069
917.66        72.77164
918.05        73.44958
918.45        73.47959
918.84        73.04363
919.24        72.26832
919.64        71.40639
920.03        70.60693
920.42        69.82657
920.82        69.33392
921.21        69.49149
921.61        70.26717
922.00        71.59531
922.40        72.93404
922.79        73.61345
923.19        73.44575
923.58        72.43137
923.98         70.8817
924.37        70.03776
924.77         70.3978
925.16        68.53046
925.55        70.06065
925.95        70.17398
926.34        70.50654
926.74        70.92364
927.13        71.44781
927.52        71.92131
927.92         72.2702
928.31         72.5791
928.70        72.75092
929.10        72.68282
929.49        72.37873
929.89        71.86073
930.28        71.38471
930.67        71.35188
931.07        71.80623
931.46        72.68851
931.85        73.60104
932.24        73.95123
932.64        73.59892
933.03        72.61298
933.42        71.38639
933.82        70.74084
934.21        70.88026
934.60        71.57581
934.99         72.1506
935.39        71.92583
935.78        70.81701
936.17        68.52816
936.56        65.45435
936.96        66.12116
937.35        65.70753
937.74        67.90733
938.13        70.21475
938.53        71.74902
938.92        72.39256
939.31        72.45139
939.70        72.20704
940.09        72.03937
940.49        72.12389
940.88        72.33736
941.27         72.5925
941.66        72.82172
942.05        72.98976
942.44        73.11561
942.84        73.27933
943.23        73.61292
943.62        74.10094
944.01        74.72795
944.40        75.19182
944.79        75.01614
945.18        74.12182
945.57        72.61166
945.97         71.0671
946.36        70.50388
946.75        71.22472
947.14        72.85096
947.53        74.61323
947.92        75.46413
948.31        75.20673
948.70        74.16313
949.09        72.80022
949.48        71.93383
949.87        71.83388
950.26        72.24529
950.65        72.86451
951.04        73.19708
951.43        73.08695
951.82        72.72715
952.21        72.28937
952.60        72.01685
952.99        71.97955
953.38        72.05525
953.77        72.16756
954.16        72.22438
954.55         72.1829
954.94        72.08914
955.33        71.93253
955.72        71.67339
956.11        71.33191
956.50        70.93956
956.89        70.57112
957.28        70.38577
957.66        70.43871
958.05        70.58585
958.44        70.82517
958.83        71.14282
959.22        71.50217
959.61        71.93791
960.00        72.18184
960.39        71.77209
960.78        70.66586
961.16        69.00164
961.55        67.41493
961.94        66.75275
962.33        67.18356
962.72        68.48703
963.11        70.05347
963.49        70.82191
963.88        70.40927
964.27        69.16377
964.66         67.6837
965.04        66.96545
965.43        67.27135
965.82        68.28948
966.21        69.55694
966.60        70.33035
966.98        70.40604
967.37        70.01326
967.76        69.48732
968.15        69.32802
968.53        69.67686
968.92         70.2478
969.31        70.83552
969.69        71.12257
970.08        70.94975
970.47         70.4957
970.86        69.79507
971.24        68.84954
971.63        67.78988
972.02        66.65128
972.40        65.65748
972.79        65.21724
973.17        65.44022
973.56        66.10706
973.95        67.07018
974.33        68.02328
974.72        68.68157
975.11        69.12809
975.49        69.15282
975.88        68.43817
976.26        67.03911
976.65        65.13418
977.04        63.20279
977.42        62.09262
977.81        62.06484
978.19        62.86354
978.58        64.23277
978.96        65.71446
979.35         66.9875
979.74        68.23762
980.12        69.16139
980.51        69.01388
980.89        67.88303
981.28         65.9583
981.66        64.09882
982.05        63.52102
982.43        64.37905
982.82        66.32169
983.20        68.69366
983.59        69.96783
983.97        69.75603
984.35        68.38107
984.74        66.58257
985.12        65.44991
985.51        65.29858
985.89        65.80426
986.28        66.51784
986.66        66.66399
987.04        65.95313
987.43        64.85824
987.81        63.65554
988.20        62.58559
988.58        61.63772
988.96        60.59803
989.35        59.69153
989.73        59.61324
990.12        60.55155
990.50        62.30801
990.88        64.00166
991.27        64.66839
991.65        64.38118
992.03         63.3706
992.42        62.27347
992.80        62.32827
993.18        63.85729
993.56        66.21696
993.95        68.66508
994.33        70.58555
994.71        71.62097
995.10         72.0077
995.48        71.77004
995.86        70.82993
996.24        69.26068
996.63        67.06615
997.01        64.50922
997.39        62.54372
997.77        61.72837
998.15        61.85924
998.54        62.66695
998.92         63.8045
999.30        65.20373
999.68        67.17741
1000.06        69.08602
1000.45        68.88969
1000.83        66.15818
1001.21        61.98809
1001.59        58.31185
1001.97        56.60163
1002.35        56.66652
1002.73        58.02442
1003.12        60.02854
1003.50        61.18232
1003.88        60.67434
1004.26        59.12279
1004.64        56.98857
1005.02        54.83582
1005.40        52.91651
1005.78        50.93308
1006.16        49.65695
1006.54        50.61039
1006.92        53.61639
1007.30        57.63493
1007.69        61.17545
1008.07        62.95613
1008.45         62.7934
1008.83        60.86045
1009.21        56.88376
1009.59        51.83836
1009.97        47.54177
1010.35        44.49631
1010.73        43.91155
1011.11        46.28691
1011.49        50.79217
1011.86        57.06722
1012.24        62.35089
1012.62         63.9943
1013.00         61.9764
1013.38        57.39421
1013.76        51.89028
1014.14        48.49228
1014.52        48.15796
1014.90        49.88863
1015.28        52.75773
1015.66        55.18848
1016.04        56.51871
1016.41        57.38999
1016.79        57.14958
1017.17        54.71741
1017.55        50.57115
1017.93        45.59055
1018.31        41.56224
1018.69        40.13161
1019.06        41.10471
1019.44        43.81426
1019.82         47.3381
1020.20        49.14366
1020.58        48.06204
1020.95        44.86556
1021.33        40.39017
1021.71        35.01467
1022.09        28.01054
1022.46        15.69017
1022.84       -1.919827
1023.22       -7.100505
1023.60        9.415794
1023.97        28.61107
1024.35        39.23138
1024.73        41.83526
