SpectraSmart Spectrum 2.9.0.0
--------- Device Information -----------
Spectrum Name :  反射率_0
Saving Time :  2024/04/20 00:58:56
Spectro-Module Model Name : SE2030-DUVN
Spectro-Module Serial Number : OS361AC55029948
Wavelength Start : 200
Wavelength End : 1025
Wavelength Unit : Wavelength(nm)
Spectrum Unit : Reflectance(%)
-----------Spectrum Setting ------------
Integration Time : 30ms
Average : 10
Boxcar : 0
Background removal :  enabled
linearity correction :  enabled
SC :  disabled
Intensity correction :  disabled
DWT denoise :  enabled
savitzky-golay :  disabled
FFT :  disabled
Running average :  disabled
Kalman :  disabled
High pass :  disabled
---------------BEGIN--------------------
Wavelength(nm)             Reflectance(%)
200.29               0
200.75         51.2291
201.21        51.49419
201.67        53.81342
202.13        58.48516
202.58        65.30725
203.04        74.60735
203.50        83.22968
203.96        83.70294
204.42        76.34644
204.88        66.37962
205.34        57.69943
205.80        51.67057
206.26         47.1629
206.72         42.5087
207.18        37.87671
207.64        36.63524
208.10        41.35657
208.55        50.59882
209.01        58.40661
209.47        60.76145
209.93        58.47054
210.39        53.42834
210.85        47.92013
211.31        44.34529
211.77        42.95306
212.23        42.93142
212.69        44.29034
213.14        46.53646
213.60        48.19731
214.06        49.69992
214.52        50.70489
214.98        51.16134
215.44        51.20957
215.90        50.52804
216.36        49.70801
216.81        50.15568
217.27        52.05272
217.73        54.96607
218.19        56.87387
218.65        54.91775
219.11        48.57629
219.57        38.17997
220.02        26.00831
220.48        18.68744
220.94        18.69308
221.40        25.02692
221.86        33.68305
222.32        38.25454
222.77        37.19909
223.23        32.57666
223.69        27.74763
224.15        27.43336
224.61        31.37918
225.06        36.79659
225.52        41.05409
225.98        42.14684
226.44        40.13102
226.90        36.12799
227.36        31.16042
227.81        27.09523
228.27        25.16754
228.73        24.75056
229.19        25.56737
229.65        27.27152
230.10         29.4367
230.56        31.81953
231.02        34.07512
231.48        35.76247
231.93        36.79116
232.39         37.3154
232.85        37.23046
233.31        36.40448
233.77        34.94203
234.22        32.92913
234.68        30.93125
235.14        29.84536
235.60        29.92081
236.05        30.93667
236.51        32.42712
236.97        33.62589
237.43        34.37744
237.88        35.06351
238.34        35.68328
238.80        36.38801
239.26        37.14602
239.71        37.49464
240.17        37.93658
240.63        39.87828
241.08        43.56432
241.54        48.70741
242.00        53.52248
242.46        54.64779
242.91        50.50906
243.37        39.86962
243.83        23.27613
244.28        10.93024
244.74        13.94142
245.20        31.18676
245.66        49.83104
246.11        58.10328
246.57        55.10658
247.03        42.48161
247.48        24.11435
247.94          19.395
248.40        30.84543
248.85        44.73542
249.31        54.79621
249.77        60.10586
250.22        62.11112
250.68        62.34568
251.14        61.48203
251.59        60.44886
252.05        59.92429
252.51        59.61369
252.96        58.48413
253.42        55.35443
253.88        50.59917
254.33        45.48268
254.79        42.41579
255.25        43.22148
255.70        47.27655
256.16        53.03614
256.62         58.1678
257.07        60.10812
257.53        58.93512
257.99        55.65095
258.44        51.66081
258.90        49.40193
259.35          48.626
259.81        48.76785
260.27        48.61252
260.72         47.1258
261.18        44.61823
261.63        41.28045
262.09        38.28281
262.55        36.79242
263.00        36.81803
263.46        37.85695
263.91        38.76958
264.37        38.39882
264.83        36.74342
265.28        34.27237
265.74        32.07114
266.19        31.27729
266.65         31.9967
267.11        33.60093
267.56        35.25195
268.02          35.734
268.47        34.85734
268.93        33.06476
269.38        30.87811
269.84        29.37035
270.30        28.83122
270.75        28.93332
271.21        29.32023
271.66        29.47254
272.12        29.21103
272.57        28.71741
273.03         28.1187
273.48        27.51484
273.94        26.99902
274.39        26.49904
274.85         26.0133
275.31        25.53863
275.76        25.05522
276.22        24.58428
276.67        24.15158
277.13        23.87002
277.58        23.69834
278.04        23.62862
278.49        23.48915
278.95        23.08054
279.40        22.37429
279.86        21.51704
280.31        20.66699
280.77        20.16388
281.22        20.00366
281.68        20.08817
282.13        20.24891
282.59        20.25414
283.04        20.04969
283.50        19.74583
283.95        19.39145
284.41        19.07735
284.86        18.82484
285.32        18.61217
285.77        18.47955
286.22        18.54766
286.68        18.79973
287.13        19.17586
287.59        19.52708
288.04        19.62642
288.50        19.45507
288.95        19.06201
289.41        18.60957
289.86        18.28376
290.32        18.17931
290.77        18.22729
291.22        18.37076
291.68        18.48803
292.13        18.55628
292.59        18.63035
293.04        18.76337
293.50        19.04142
293.95          19.468
294.40        19.98603
294.86        20.53305
295.31        21.03181
295.77        21.45249
296.22        21.81322
296.68        22.11418
297.13        22.33498
297.58        22.49541
298.04        22.61298
298.49        22.73773
298.95        22.97989
299.40        23.35152
299.85        23.82935
300.31        24.35038
300.76        24.81655
301.21         25.1965
301.67         25.5314
302.12        25.82978
302.58        26.14971
303.03        26.48319
303.48        26.81449
303.94        27.15653
304.39        27.50131
304.84        27.84812
305.30         28.1922
305.75        28.48358
306.20         28.6599
306.66          28.735
307.11        28.72615
307.57        28.70157
308.02        28.70236
308.47        28.76366
308.93        28.86213
309.38        28.99932
309.83        29.21543
310.29         29.4921
310.74        29.81652
311.19        30.08298
311.65        30.12578
312.10        29.92177
312.55        29.52377
313.00        29.08361
313.46        28.83825
313.91        28.82534
314.36        28.98885
314.82        29.19977
315.27        29.26465
315.72        29.12187
316.18        28.84743
316.63        28.52347
317.08        28.27659
317.53        28.14054
317.99        28.06307
318.44        28.01274
318.89        27.93376
319.35        27.80729
319.80        27.65818
320.25        27.48895
320.70        27.30035
321.16        27.09191
321.61        26.85732
322.06        26.61239
322.51        26.39007
322.97        26.19136
323.42        26.01755
323.87        25.82828
324.32        25.56058
324.78        25.20099
325.23        24.77524
325.68        24.33798
326.13        23.98451
326.59        23.74464
327.04        23.61613
327.49        23.54226
327.94        23.42906
328.39        23.24932
328.85        23.00936
329.30        22.79845
329.75        22.73753
330.20        22.84596
330.66        23.05619
331.11        23.26411
331.56        23.25701
332.01        22.98435
332.46        22.50615
332.92        21.94287
333.37        21.50222
333.82        21.26421
334.27        21.19348
334.72        21.21986
335.17        21.21663
335.63        21.13177
336.08        21.00046
336.53        20.88893
336.98        20.91054
337.43        21.07912
337.88        21.35151
338.34        21.56549
338.79        21.50812
339.24        21.12639
339.69        20.49191
340.14        19.83518
340.59        19.54132
341.05        19.68511
341.50        20.15041
341.95        20.69356
342.40        20.93428
342.85         20.7816
343.30        20.36864
343.75        19.84344
344.20        19.44972
344.66        19.26162
345.11        19.16535
345.56        19.14446
346.01        19.17445
346.46        19.21914
346.91        19.31203
347.36        19.32645
347.81        19.04979
348.26        18.48062
348.72        17.72102
349.17        16.97993
349.62        16.68947
350.07        16.94135
350.52        17.57571
350.97        18.36338
351.42        18.96134
351.87        19.25793
352.32        19.34203
352.77         19.2441
353.22        19.02002
353.67        18.71696
354.13        18.32984
354.58        17.91937
355.03        17.62467
355.48        17.48241
355.93        17.48289
356.38        17.56415
356.83        17.60905
357.28        17.57859
357.73        17.48919
358.18         17.3815
358.63         17.3271
359.08        17.33722
359.53         17.3835
359.98        17.39245
360.43        17.25794
360.88        16.97046
361.33        16.57383
361.78        16.17653
362.23        15.95229
362.68        15.93593
363.13        16.06264
363.58        16.22601
364.03        16.26227
364.48        16.12487
364.93        15.86413
365.38        15.53002
365.83        15.20864
366.28        14.94454
366.73         14.7223
367.18        14.54714
367.63        14.42827
368.08        14.35838
368.53        14.32925
368.98         14.3353
369.43         14.3602
369.88        14.39291
370.33        14.44056
370.78        14.45239
371.23        14.34992
371.68        14.12659
372.13         13.7995
372.58         13.4882
373.03        13.39557
373.48          13.554
373.93        13.88959
374.38        14.23943
374.83        14.35351
375.28        14.17764
375.72        13.78648
376.17        13.31963
376.62        12.96325
377.07         12.7865
377.52        12.73298
377.97        12.76727
378.42         12.8347
378.87        12.90365
379.32         12.9884
379.77        13.07074
380.22        13.11616
380.67        13.11778
381.11          13.081
381.56        13.00023
382.01        12.89102
382.46        12.76168
382.91        12.60382
383.36        12.45439
383.81        12.36617
384.26        12.34448
384.71        12.38561
385.15        12.41329
385.60        12.30684
386.05        12.05507
386.50        11.70085
386.95        11.36685
387.40         11.2465
387.85        11.37025
388.29        11.66485
388.74        11.98984
389.19        12.15656
389.64        12.12314
390.09        11.94425
390.54         11.7111
390.98        11.56492
391.43        11.55725
391.88        11.63263
392.33        11.71655
392.78        11.70462
393.23         11.5842
393.67        11.39189
394.12        11.21746
394.57        11.14018
395.02         11.1746
395.47        11.28979
395.91        11.42484
396.36        11.46141
396.81        11.37383
397.26         11.1954
397.71         11.0011
398.15        10.89079
398.60        10.89956
399.05        10.98883
399.50        11.08607
399.95        11.08764
400.39        10.97185
400.84        10.76758
401.29        10.55884
401.74         10.4976
402.18        10.62433
402.63         10.8807
403.08        11.14248
403.53         11.2149
403.97        11.06025
404.42        10.75049
404.87          10.415
405.32         10.2655
405.76        10.35063
406.21        10.59581
406.66        10.88742
407.11        11.04904
407.55        11.03444
408.00        10.90272
408.45        10.71787
408.90        10.56387
409.34        10.49039
409.79         10.5134
410.24         10.5912
410.68        10.61945
411.13        10.58519
411.58        10.54914
412.03        10.51532
412.47        10.47175
412.92        10.42225
413.37         10.3611
413.81         10.3221
414.26        10.37104
414.71        10.50737
415.15        10.71741
415.60        10.90874
416.05        10.95099
416.49        10.81292
416.94        10.54257
417.39        10.23553
417.83        10.04851
418.28        10.02882
418.73        10.12351
419.17        10.26546
419.62         10.3341
420.07        10.30363
420.51         10.2164
420.96        10.11055
421.41         10.0288
421.85        9.983911
422.30        9.964464
422.74        9.970154
423.19        10.02466
423.64        10.11975
424.08        10.25682
424.53        10.38775
424.98        10.44553
425.42        10.41477
425.87        10.31751
426.31        10.19014
426.76         10.1006
427.21        10.05994
427.65        10.04253
428.10        10.05613
428.54        10.09205
428.99        10.14427
429.44        10.26483
429.88         10.3838
430.33        10.31668
430.77        10.10278
431.22         9.95158
431.66        9.918689
432.11        9.980947
432.56        10.13247
433.00        10.40768
433.45        10.66506
433.89        10.68035
434.34        10.49939
434.78        10.25336
435.23        9.972937
435.67        10.36711
436.12        9.997442
436.57        9.932358
437.01        9.781975
437.46        9.728135
437.90        9.774446
438.35        9.839923
438.79        9.896813
439.24        9.945045
439.68        9.973162
440.13         9.89462
440.57        9.765053
441.02        9.833559
441.46        10.00728
441.91        9.980612
442.35        9.531638
442.80        9.345595
443.24         9.32299
443.69        9.257974
444.13        9.137872
444.58        9.050883
445.02        9.001174
445.47        8.993264
445.91        9.005514
446.36        8.982426
446.80        8.913338
447.24        8.824463
447.69        8.744094
448.13        8.692697
448.58         8.68203
449.02        8.702255
449.47        8.730538
449.91        8.726391
450.36        8.685521
450.80          8.6189
451.25        8.559435
451.69        8.546244
452.13        8.590119
452.58        8.668035
453.02        8.756517
453.47        8.814707
453.91        8.833387
454.36        8.823434
454.80        8.790778
455.24        8.748198
455.69        8.707133
456.13         8.65445
456.58        8.608961
457.02        8.592987
457.46        8.609025
457.91        8.632648
458.35        8.652102
458.79        8.663503
459.24        8.662633
459.68        8.647736
460.13        8.660509
460.57        8.677075
461.01        8.693514
461.46        8.935958
461.90        9.036554
462.34        8.958133
462.79        8.993897
463.23        8.852601
463.68        8.712631
464.12        8.625798
464.56        8.683546
465.01        8.801199
465.45        8.928215
465.89         8.99752
466.34        8.998572
466.78        8.926702
467.22        8.829498
467.67        8.847038
468.11         8.96751
468.55        9.000725
468.99        8.951295
469.44        8.974775
469.88        9.073136
470.32        9.156584
470.77        9.195112
471.21        9.191758
471.65        9.142272
472.10        9.051029
472.54        8.954549
472.98         8.93763
473.42        9.013945
473.87        9.130971
474.31        9.251084
474.75        9.368424
475.20        9.449258
475.64        9.408587
476.08        9.299132
476.52        9.284932
476.97        9.381703
477.41        9.520213
477.85        9.650597
478.29        9.720988
478.74         9.71619
479.18        9.635334
479.62        9.542551
480.06        9.540002
480.50        9.631783
480.95        9.739654
481.39        9.816144
481.83         9.83581
482.27        9.791553
482.72        9.697837
483.16        9.596436
483.60        9.567489
484.04         9.61937
484.48        9.750752
484.93        9.991611
485.37        10.15637
485.81        10.21423
486.25        10.69165
486.69        10.73245
487.14        10.22803
487.58        10.32921
488.02        10.96814
488.46        10.62978
488.90         10.7312
489.34        10.71802
489.79        10.85803
490.23        11.09212
490.67        11.24571
491.11        11.28833
491.55        11.19922
491.99        11.02915
492.43        10.93524
492.88        10.95254
493.32        10.98456
493.76        11.03786
494.20        11.16514
494.64        11.36206
495.08        11.60465
495.52         11.8582
495.96         12.0791
496.41        12.25237
496.85        12.36376
497.29        12.43013
497.73        12.54407
498.17        12.69778
498.61        12.75569
499.05        12.74117
499.49        12.82214
499.93        13.01218
500.37        13.19416
500.82        13.34696
501.26        13.54925
501.70        13.75839
502.14        13.79812
502.58        13.70625
503.02        13.70121
503.46        13.80231
503.90        13.89806
504.34        13.95987
504.78        13.98841
505.22        13.97795
505.66        13.93991
506.10        13.89791
506.54        13.88554
506.98        13.91573
507.42        13.98034
507.86        14.07668
508.30        14.19928
508.74        14.33731
509.18        14.48374
509.62        14.62342
510.06         14.7324
510.50        14.80625
510.94        14.85647
511.38        14.87919
511.82        14.87144
512.26        14.83993
512.70        14.78345
513.14         14.7461
513.58        14.79443
514.02        14.92768
514.46         15.1246
514.90        15.31084
515.34        15.31438
515.78        15.12632
516.22        14.88627
516.66        14.69757
517.10        14.36215
517.54        13.91266
517.98        14.55229
518.42        14.45381
518.86        14.74877
519.30        14.86896
519.74        14.99923
520.18        15.10553
520.62        15.11041
521.06        15.02913
521.50        14.86464
521.93        14.67091
522.37        14.54839
522.81        14.52093
523.25        14.56451
523.69        14.64031
524.13        14.68427
524.57        14.67564
525.01        14.63139
525.45        14.56967
525.89        14.51834
526.32        14.48527
526.76        14.46246
527.20        14.43171
527.64         14.3699
528.08        14.27412
528.52        14.15291
528.96        14.03803
529.40         13.9751
529.83        13.97089
530.27        14.01358
530.71        14.05683
531.15        14.02793
531.59        13.91529
532.03        13.74464
532.46         13.5687
532.90        13.48439
533.34        13.50432
533.78        13.59331
534.22        13.70151
534.66        13.75285
535.09        13.72376
535.53        13.64496
535.97        13.53636
536.41        13.42647
536.85        13.33163
537.28        13.25191
537.72        13.20297
538.16        13.16841
538.60        13.21363
539.04        13.27631
539.47        13.35434
539.91         13.4472
540.35        13.55515
540.79        13.56168
541.22         13.6428
541.66        13.70329
542.10        13.80901
542.54        13.73621
542.97        13.85625
543.41        13.92777
543.85        14.05167
544.29        14.18905
544.72        14.31376
545.16        14.42606
545.60        14.51791
546.04          14.546
546.47        14.56208
546.91         14.7428
547.35        15.05329
547.79        15.28852
548.22        15.41364
548.66        15.48739
549.10        15.53431
549.53        15.64762
549.97        15.84367
550.41        15.87273
550.84        16.03233
551.28        16.15147
551.72         16.3293
552.15        16.53368
552.59        16.75911
553.03        17.00248
553.46        17.22569
553.90         17.3867
554.34         17.4777
554.77        17.51069
555.21        17.52186
555.65        17.55964
556.08        17.63515
556.52        17.73526
556.96        17.84271
557.39        17.95315
557.83        18.05383
558.27        18.10616
558.70        18.12404
559.14        18.16275
559.57        18.22272
560.01        18.29757
560.45        18.36843
560.88        18.38361
561.32        18.37907
561.75        18.40849
562.19        18.54007
562.63        18.61492
563.06        18.64828
563.50         18.6931
563.93        18.74953
564.37        18.85068
564.80        18.91016
565.24        19.00372
565.68         19.0901
566.11        19.17072
566.55        19.25747
566.98        19.31182
567.42        19.33544
567.85        19.57576
568.29        19.52792
568.72        19.78056
569.16        20.11423
569.60        20.32183
570.03        20.37422
570.47        20.41008
570.90        20.35867
571.34        20.58552
571.77        20.43085
572.21        20.67981
572.64        20.77333
573.08        20.89744
573.51        21.24435
573.95         21.7057
574.38        21.78232
574.82        21.91977
575.25        21.94826
575.69        21.79572
576.12        21.60538
576.56        21.55753
576.99        21.72086
577.42         21.9211
577.86        21.81628
578.29        21.97435
578.73        22.30056
579.16         21.6743
579.60        21.60261
580.03        21.77681
580.47        21.73565
580.90        21.39312
581.33        21.46518
581.77        21.38081
582.20        21.56641
582.64        21.21062
583.07        20.72024
583.51        20.98677
583.94        20.68826
584.37        20.68569
584.81         20.3306
585.24         20.2035
585.68        20.23039
586.11        20.20842
586.54         20.1538
586.98        20.10024
587.41        20.20057
587.85        20.18461
588.28        20.07013
588.71        19.90589
589.15         19.7692
589.58        19.49446
590.01        19.58524
590.45        19.93402
590.88        19.79783
591.31        19.71073
591.75        19.45457
592.18        19.63062
592.61        19.74849
593.05        19.93739
593.48        19.73118
593.91        20.16285
594.35        19.82302
594.78        20.06662
595.21        20.19474
595.65        20.47832
596.08        20.43458
596.51        20.49618
596.94         20.5874
597.38        20.63128
597.81        20.71293
598.24        20.80239
598.68        21.26986
599.11        21.54244
599.54        22.03905
599.97        21.92617
600.41        22.19594
600.84        22.61465
601.27        22.99565
601.70        23.32362
602.14        23.49548
602.57        23.85198
603.00        24.33498
603.43         24.8714
603.87         24.8959
604.30        25.20717
604.73        25.67063
605.16        25.87315
605.60        26.15051
606.03         26.5669
606.46        27.17078
606.89        27.39688
607.32        27.69716
607.76        28.10301
608.19        28.15399
608.62        28.36265
609.05        28.45263
609.48        28.59358
609.92        28.76399
610.35        29.02926
610.78        29.69761
611.21        30.08982
611.64        30.16487
612.07        30.43522
612.50        30.69259
612.94        30.73855
613.37        31.13495
613.80        31.37422
614.23        31.60838
614.66        31.95482
615.09        32.08353
615.52        32.34354
615.96        32.60137
616.39        32.76033
616.82        32.83953
617.25        32.93393
617.68        33.06957
618.11        33.31936
618.54        33.61792
618.97        33.73026
619.40         33.4834
619.84        33.72194
620.27        33.47081
620.70        33.75373
621.13        34.18851
621.56         34.3969
621.99        34.41845
622.42        34.39518
622.85        34.41427
623.28        34.47223
623.71        34.74908
624.14        34.72635
624.57        34.49023
625.00        34.58173
625.43        34.64016
625.86        34.13757
626.29        34.24883
626.72        34.09433
627.15        34.07142
627.58        34.05415
628.01        33.99026
628.44        34.08659
628.87        33.80713
629.30         33.5606
629.73         33.2807
630.16         33.0439
630.59        32.83632
631.02        32.63279
631.45        32.40895
631.88         32.1607
632.31        31.87877
632.74        31.55706
633.17        31.20493
633.60        30.84578
634.03        30.48746
634.46         30.1236
634.89        29.75785
635.32        29.39547
635.75          29.041
636.18        28.70352
636.61        28.37518
637.04        28.03831
637.47        27.68918
637.89        27.33069
638.32         26.9865
638.75        26.71013
639.18        26.51325
639.61         26.3857
640.04        26.27572
640.47        26.09784
640.90        25.83641
641.33        25.51764
641.76        25.20998
642.18         25.0285
642.61        24.99418
643.04        25.07031
643.47         25.1896
643.90         25.2405
644.33        25.19573
644.76        25.09799
645.18        24.99127
645.61        24.95118
646.04        25.00141
646.47        25.11244
646.90        25.28585
647.33        25.52679
647.75        25.82465
648.18        26.17472
648.61        26.52864
649.04        26.81084
649.47        27.01763
649.89        27.15361
650.32        27.28366
650.75        27.59345
651.18        28.08865
651.61        28.51404
652.03        28.87998
652.46        29.52969
652.89        30.36951
653.32        30.74067
653.74        30.69547
654.17        31.06534
654.60        31.51292
655.03        32.12364
655.46        32.16725
655.88        33.67886
656.31        34.18624
656.74        38.81382
657.16        36.26426
657.59        33.27139
658.02        34.15303
658.45        34.81955
658.87        35.61364
659.30        36.01209
659.73        36.61079
660.15        37.14705
660.58        37.12253
661.01        37.04191
661.44        36.86704
661.86        37.04406
662.29        37.54028
662.72        38.03403
663.14        38.40711
663.57        38.48814
664.00        38.37603
664.42        38.46505
664.85        38.79946
665.27        39.10785
665.70        39.32986
666.13        39.52826
666.55         39.6917
666.98        39.80115
667.41        39.87733
667.83        39.95183
668.26        40.02945
668.69        40.10845
669.11        40.19177
669.54        40.25697
669.96         40.3052
670.39        40.40535
670.82        40.54639
671.24           40.57
671.67        40.53967
672.09        40.73511
672.52        41.08864
672.94        41.29971
673.37        41.31021
673.80        41.13354
674.22        40.88245
674.65        40.81532
675.07        40.98318
675.50        41.23935
675.92        41.50238
676.35        41.66891
676.77        41.70514
677.20        41.64531
677.62         41.5394
678.05        41.47673
678.47        41.48172
678.90        41.52956
679.32        41.60917
679.75        41.70972
680.17        41.82018
680.60         41.9441
681.02        42.06639
681.45         42.1472
681.87        42.18962
682.30        42.19182
682.72        42.17204
683.15        42.18015
683.57        42.24727
684.00        42.24632
684.42        42.34694
684.85        42.52389
685.27        42.54056
685.70        42.63861
686.12        42.72041
686.54        42.77704
686.97         42.8089
687.39        42.79676
687.82        42.74372
688.24        42.77689
688.66        42.91289
689.09        42.73381
689.51        42.87426
689.94        42.88825
690.36        42.96667
690.78        43.00589
691.21        43.00258
691.63        43.08896
692.06        43.28082
692.48        43.20854
692.90        43.27983
693.33        43.56076
693.75         43.4302
694.17        43.47934
694.60         43.4916
695.02        43.46537
695.44        43.38926
695.87        43.38886
696.29        43.44766
696.71        43.30793
697.14         43.1265
697.56        43.30917
697.98        43.99133
698.41        44.44588
698.83        44.12338
699.25        43.90706
699.68        43.74641
700.10        43.66907
700.52        43.71982
700.94        43.89865
701.37        44.12802
701.79        44.30879
702.21        44.38659
702.64        44.39206
703.06        44.36753
703.48        44.38621
703.90         44.4679
704.33        44.58171
704.75        44.68492
705.17        44.69589
705.59        44.60147
706.01        44.43458
706.44        44.27155
706.86        44.23187
707.28        44.33554
707.70        44.53959
708.12        44.77207
708.55        44.91665
708.97        44.94133
709.39        44.88548
709.81        44.78425
710.23        44.70157
710.66        44.66519
711.08        44.66034
711.50        44.67707
711.92        44.71146
712.34        44.75988
712.76        44.82971
713.19         44.9038
713.61        44.98676
714.03        45.05789
714.45         45.1162
714.87         45.1709
715.29        45.24118
715.71        45.32892
716.13        45.42335
716.56        45.50065
716.98        45.57733
717.40        45.63194
717.82        45.65941
718.24        45.65731
718.66        45.64426
719.08        45.61391
719.50        45.52038
719.92        45.39683
720.34        45.33755
720.76        45.35506
721.19        45.40889
721.61        45.47465
722.03        45.50074
722.45        45.48741
722.87        45.44074
723.29        45.39552
723.71        45.40211
724.13         45.4739
724.55        45.59233
724.97        45.73516
725.39        45.86655
725.81         45.9701
726.23        46.05186
726.65        46.11427
727.07        46.16327
727.49        46.20144
727.91        46.22409
728.33        46.23103
728.75        46.22428
729.17        46.20784
729.59        46.18842
730.01           46.17
730.43        46.15724
730.85        46.15256
731.27         46.1492
731.69        46.15469
732.10        46.19658
732.52        46.26374
732.94        46.32752
733.36         46.3691
733.78        46.37991
734.20        46.36032
734.62        46.31357
735.04        46.26301
735.46        46.26039
735.88        46.31459
736.30        46.37922
736.72        46.45728
737.13        46.61714
737.55        46.78723
737.97        46.87442
738.39        46.86401
738.81        46.77422
739.23        46.66641
739.65        46.68009
740.06        46.77277
740.48        46.85332
740.90        46.87282
741.32        46.67906
741.74        46.56067
742.16        46.52951
742.57         46.6864
742.99        46.88616
743.41        47.06675
743.83        47.18164
744.25        47.20538
744.67        47.05141
745.08        46.94835
745.50        46.80671
745.92        46.71894
746.34        46.66935
746.75        46.65158
747.17         46.6487
747.59        46.65414
748.01        46.67806
748.42        46.73603
748.84        46.83007
749.26         46.9599
749.68        47.10832
750.09        47.24475
750.51        47.31953
750.93        47.29132
751.35        47.24068
751.76        47.19706
752.18         47.0382
752.60        47.08624
753.01        47.09056
753.43        47.13591
753.85        47.16191
754.27        47.15174
754.68         47.2428
755.10         47.4455
755.52         47.1972
755.93        47.38511
756.35        47.42804
756.77         47.5551
757.18        47.64998
757.60        47.72651
758.02        47.72377
758.43        47.60643
758.85        47.82416
759.26        47.74443
759.68        47.56863
760.10        47.64206
760.51        47.49572
760.93        47.11621
761.34        47.03616
761.76        47.17724
762.18        47.16363
762.59        47.08038
763.01        46.93636
763.42        47.39668
763.84        47.72839
764.26        48.00978
764.67         48.0362
765.09        47.91322
765.50        47.81515
765.92        47.96644
766.33        48.16925
766.75        48.34675
767.16        48.27636
767.58        47.93789
768.00        47.67444
768.41        47.60258
768.83        47.53142
769.24         47.4659
769.66        47.98337
770.07        48.25231
770.49        48.36783
770.90        48.17214
771.32        48.18794
771.73        48.40873
772.15        48.41419
772.56         48.2183
772.97        48.07127
773.39         47.9661
773.80        47.79201
774.22        47.54926
774.63        47.28997
775.05        47.09453
775.46        47.09352
775.88        47.29149
776.29        47.67288
776.70        48.07959
777.12        48.26338
777.53        48.17171
777.95        47.85623
778.36        47.47906
778.77        47.32589
779.19        47.46724
779.60        47.84864
780.02        48.27657
780.43        48.55237
780.84        48.60962
781.26        48.28288
781.67         47.8195
782.09        48.15914
782.50        49.09318
782.91        49.25641
783.33        48.65409
783.74        48.45913
784.15        48.69899
784.57        48.64701
784.98        48.32265
785.39        48.17019
785.81         48.1824
786.22        48.08762
786.63        47.90454
787.04        47.85031
787.46        47.93449
787.87        48.01048
788.28           48.06
788.70        48.30083
789.11         48.3576
789.52        48.50698
789.93        48.63042
790.35        48.69929
790.76        48.71859
791.17        48.72443
791.58        48.70357
792.00        48.60502
792.41        48.43209
792.82        48.18287
793.23        47.90959
793.65        47.74434
794.06        47.76479
794.47        47.91393
794.88        48.07469
795.29        48.61926
795.71        48.54169
796.12        48.43178
796.53        48.45947
796.94        48.31613
797.35         48.1984
797.76        48.20713
798.18        48.32916
798.59        48.48903
799.00         48.6258
799.41        48.58093
799.82         48.5559
800.23        48.54457
800.64        48.61385
801.06        48.63163
801.47        48.64108
801.88        48.71411
802.29        48.84515
802.70        49.00022
803.11        49.11778
803.52        49.10052
803.93        48.93899
804.34        48.67808
804.75         48.3829
805.17        48.20013
805.58        48.19254
805.99         48.1673
806.40        48.13761
806.81        48.52752
807.22        49.13044
807.63        49.00923
808.04        48.33969
808.45        48.24302
808.86        48.80413
809.27        49.40462
809.68        49.85293
810.09        50.10015
810.50        50.06144
810.91        49.75286
811.32        49.30438
811.73        48.92525
812.14        48.68489
812.55        48.54862
812.96        48.47984
813.37        48.37772
813.78        48.23804
814.19        48.17318
814.60        48.17025
815.01         48.1451
815.42        48.09295
815.83        48.02932
816.24        48.01199
816.65        48.14072
817.05        48.42939
817.46        48.80107
817.87        49.14766
818.28        49.27659
818.69        49.15815
819.10        48.85623
819.51        48.48597
819.92        48.28989
820.33         48.3519
820.74        48.51546
821.14        48.75258
821.55         49.1793
821.96        49.66806
822.37        49.79704
822.78        49.59113
823.19         49.4964
823.60        49.55281
824.00        49.49545
824.41        49.33731
824.82        49.30603
825.23        49.42014
825.64        49.61168
826.04        49.82376
826.45        49.92443
826.86        49.88747
827.27        49.75822
827.68        49.54692
828.08        49.28128
828.49        48.96336
828.90         48.6176
829.31        48.32494
829.72        48.22527
830.12        48.36222
830.53        48.65651
830.94        49.02187
831.35        49.29964
831.75        49.45567
832.16        49.49246
832.57        49.43246
832.97        49.30054
833.38        49.11575
833.79        48.86985
834.20        48.63162
834.60        48.50308
835.01        48.51762
835.42        48.66099
835.82        48.84706
836.23        48.88212
836.64        48.73666
837.04        48.45921
837.45        48.16721
837.86        48.08573
838.26        48.26969
838.67        48.63263
839.08        49.02589
839.48        49.17178
839.89        49.00185
840.29        48.62887
840.70        48.23422
841.11        48.03733
841.51        48.10776
841.92        48.33287
842.33        48.67918
842.73        49.09318
843.14        49.45963
843.54        49.82848
843.95          50.074
844.35        50.04571
844.76        49.73825
845.17        49.22894
845.57        48.68043
845.98        48.35213
846.38        48.31507
846.79        48.49585
847.19        48.86945
847.60        49.29345
848.00         49.7255
848.41        50.13697
848.81         50.4991
849.22        50.69767
849.62        50.74284
850.03        50.61716
850.43        50.38903
850.84        50.16365
851.24        50.01609
851.65         49.8993
852.05        49.84003
852.46        49.77881
852.86        49.71188
853.27        49.67688
853.67        49.63284
854.07        49.60467
854.48        49.57981
854.88        49.57802
855.29         49.5603
855.69        49.56826
856.10         49.5502
856.50        49.53514
856.90        49.55099
857.31        49.66109
857.71        49.92114
858.12        50.25686
858.52        50.56491
858.92        50.58033
859.33        50.25389
859.73        49.65752
860.13        49.00155
860.54        48.69941
860.94        48.89917
861.34        49.47775
861.75        50.12267
862.15        50.39558
862.55        50.15305
862.96        49.57824
863.36        48.90478
863.76        48.52499
864.17        48.54712
864.57        48.83522
864.97        49.30474
865.38        49.82617
865.78        50.36632
866.18         50.9046
866.58         51.2711
866.99        51.17355
867.39        50.58763
867.79        49.59666
868.19         48.4059
868.60        47.34167
869.00        46.48597
869.40        45.83549
869.80        45.49079
870.21        45.56913
870.61        46.09884
871.01        47.00539
871.41        48.00162
871.81        48.62531
872.22         48.8075
872.62        48.64483
873.02        48.28292
873.42        48.34994
873.82        48.62217
874.22        48.08519
874.63        47.16152
875.03        46.80225
875.43        47.17944
875.83        49.75137
876.23        49.32321
876.63        48.21243
877.03        45.52853
877.44        41.57356
877.84        153.9632
878.24        42.35416
878.64        44.81961
879.04        51.66726
879.44        45.89003
879.84        43.05642
880.24        51.34299
880.64        52.61297
881.04        48.64374
881.44        46.03672
881.84        45.66663
882.24         46.5135
882.65          48.008
883.05         48.6895
883.45        48.13749
883.85         47.3612
884.25        46.75854
884.65        46.43693
885.05        46.50009
885.45        46.83822
885.85        47.27744
886.25        47.57724
886.65        47.65529
887.05        47.60023
887.45        47.49802
887.85        47.47262
888.25        47.56321
888.65        47.70848
889.04        47.90963
889.44         48.1283
889.84         48.3466
890.24        48.55698
890.64        48.68509
891.04         48.6221
891.44        48.34642
891.84         47.8754
892.24        47.30557
892.64        46.81388
893.04        46.47998
893.44        46.30465
893.83        46.18246
894.23        45.95125
894.63        45.57702
895.03        45.08522
895.43        44.65662
895.83        44.58847
896.23        44.92339
896.63         45.5739
897.02        46.21286
897.42         46.2684
897.82        45.64471
898.22        44.56217
898.62         43.4567
899.01        42.98946
899.41        43.30728
899.81        44.15163
900.21        45.23639
900.61        46.13319
901.00        46.68513
901.40        46.99429
901.80        47.08876
902.20        46.99863
902.59        46.77424
902.99        46.41325
903.39        45.98874
903.79        45.64177
904.18        45.42965
904.58        45.38079
904.98        45.53416
905.38         45.9361
905.77        46.55463
906.17         47.3379
906.57        48.10736
906.96        48.61414
907.36        48.73388
907.76        48.50488
908.15        48.09304
908.55         47.7276
908.95        47.50675
909.34        47.42233
909.74        47.30114
910.14        46.80272
910.53        45.89113
910.93        44.75009
911.33        43.83004
911.72        43.84146
912.12        44.81973
912.52        46.44682
912.91        48.12685
913.31        48.83968
913.70         48.4058
914.10        47.13282
914.49        45.38075
914.89        44.06726
915.29         43.5432
915.68        43.55649
916.08        44.00729
916.47        44.77096
916.87        45.67191
917.26        46.75278
917.66        47.70161
918.05         48.0192
918.45        47.60388
918.84        46.64772
919.24        45.42222
919.64         44.4135
920.03        43.81169
920.42        43.48972
920.82        43.57053
921.21        44.20374
921.61        45.27399
922.00        46.75769
922.40        48.09208
922.79        48.59554
923.19        48.17726
923.58        46.64161
923.98        44.36519
924.37        43.37551
924.77        44.39758
925.16        41.11147
925.55        44.04765
925.95        44.19917
926.34         44.6278
926.74        45.08474
927.13        45.65215
927.52        46.13712
927.92         46.4427
928.31        46.70036
928.70        46.76355
929.10         46.4706
929.49         45.8184
929.89        44.86968
930.28        44.05118
930.67        44.04303
931.07        44.91211
931.46        46.50002
931.85         48.1201
932.24        48.73641
932.64        48.11876
933.03        46.40937
933.42        44.26042
933.82        43.00906
934.21        43.04925
934.60         44.0175
934.99        44.92607
935.39        44.93216
935.78        43.93602
936.17        41.23267
936.56        37.23973
936.96        39.31646
937.35        38.42413
937.74        41.48868
938.13         44.4417
938.53        46.20186
938.92        46.63522
939.31        46.17842
939.70        45.30504
940.09        44.65496
940.49        44.54934
940.88        44.78912
941.27        45.25151
941.66        45.80936
942.05        46.36316
942.44        46.91696
942.84        47.47078
943.23         47.9789
943.62        48.38581
944.01        48.73024
944.40        48.71421
944.79        47.87917
945.18        46.19101
945.57         43.7574
945.97         41.4159
946.36        40.57018
946.75        41.63958
947.14        44.09303
947.53        46.77199
947.92        48.09412
948.31        47.75707
948.70        46.22118
949.09        44.17639
949.48        42.84583
949.87        42.63591
950.26        43.17234
950.65        44.00858
951.04        44.40965
951.43        44.15849
951.82        43.56327
952.21        42.89952
952.60        42.55843
952.99        42.63612
953.38        42.91043
953.77         43.2702
954.16        43.58052
954.55        43.77123
954.94        43.93501
955.33        43.94012
955.72        43.54726
956.11        42.75145
956.50        41.60109
956.89        40.50427
957.28        40.23622
957.66         40.9984
958.05         42.4355
958.44         43.9854
958.83        44.88515
959.22        44.98044
959.61        44.49078
960.00        43.64743
960.39         42.9009
960.78        42.44106
961.16        42.10016
961.55        41.88834
961.94         41.7241
962.33        41.57375
962.72        41.51901
963.11        41.46933
963.49        41.25037
963.88        40.79051
964.27        40.15084
964.66        39.55666
965.04        39.38987
965.43        39.72861
965.82        40.47635
966.21        41.33931
966.60        41.82929
966.98        41.83452
967.37        41.46213
967.76        41.03747
968.15        41.07706
968.53        41.69741
968.92        42.64291
969.31        43.58548
969.69        43.99236
970.08        43.66336
970.47        42.79522
970.86        41.61365
971.24        40.43729
971.63        39.48573
972.02        38.73259
972.40        38.12709
972.79        37.63799
973.17        37.25983
973.56        36.95658
973.95        36.96469
974.33        37.64989
974.72        38.89729
975.11        40.51733
975.49        41.89001
975.88        42.08168
976.26        40.94887
976.65        38.83444
977.04        36.35575
977.42        34.59441
977.81        33.96802
978.19        34.18021
978.58        35.01171
978.96        35.99484
979.35        36.89012
979.74         37.9376
980.12        39.00281
980.51        39.60522
980.89        39.75726
981.28        39.39723
981.66        39.04404
982.05        39.47346
982.43        40.78484
982.82        42.70494
983.20         44.6877
983.59        45.46351
983.97        44.75177
984.35        42.90176
984.74        40.60953
985.12         38.8422
985.51        37.92654
985.89        37.50605
986.28        37.47813
986.66        37.55167
987.04        37.56354
987.43        37.68013
987.81        37.56572
988.20        36.63907
988.58        34.70467
988.96        31.55113
989.35        27.88941
989.73        25.80265
990.12        26.48552
990.50        29.31378
990.88        32.50246
991.27        33.92597
991.65        33.56139
992.03        31.97784
992.42        30.22359
992.80        30.17703
993.18        32.39503
993.56        35.81687
993.95        39.43383
994.33        42.42755
994.71        44.32054
995.10        45.46774
995.48        45.72976
995.86        44.72258
996.24         42.4631
996.63        38.94813
997.01        34.78482
997.39        32.08702
997.77        31.81688
998.15        33.40717
998.54        35.59647
998.92        36.92495
999.30        37.02852
999.68        36.24475
1000.06        34.45686
1000.45        32.07023
1000.83        29.94487
1001.21         28.2042
1001.59        27.16196
1001.97         26.9484
1002.35         27.3454
1002.73        28.34282
1003.12        29.56759
1003.50        29.88845
1003.88        28.90074
1004.26        27.05235
1004.64        24.83876
1005.02        22.91615
1005.40        21.49797
1005.78        20.30132
1006.16        19.91553
1006.54        21.36132
1006.92        24.25561
1007.30        27.70166
1007.69         30.3132
1008.07        30.93995
1008.45         29.1726
1008.83        24.80755
1009.21        17.25728
1009.59        8.010038
1009.97       0.2476766
1010.35       -4.511832
1010.73       -5.016084
1011.11       -1.825905
1011.49          3.7316
1011.86        11.43505
1012.24        18.40944
1012.62        22.23275
1013.00        22.73535
1013.38         20.7255
1013.76        17.43509
1014.14        15.12373
1014.52        14.55618
1014.90        15.11669
1015.28        16.17148
1015.66        16.58559
1016.04         15.9905
1016.41         14.8739
1016.79        13.69983
1017.17        13.04482
1017.55        13.23388
1017.93        13.75727
1018.31        14.54011
1018.69        15.80241
1019.06        17.38327
1019.44        18.94429
1019.82         19.8713
1020.20        18.61516
1020.58        14.68328
1020.95        8.917237
1021.33        1.669781
1021.71       -8.305032
1022.09       -23.29098
1022.46       -50.19402
1022.84       -89.50365
1023.22       -103.3934
1023.60       -69.36263
1023.97        -28.5248
1024.35       -4.611412
1024.73        4.417799
