SpectraSmart Spectrum 2.9.0.0
--------- Device Information -----------
Spectrum Name :  反射率_0
Saving Time :  2024/04/20 00:45:01
Spectro-Module Model Name : SE2030-DUVN
Spectro-Module Serial Number : OS361AC55029948
Wavelength Start : 200
Wavelength End : 1025
Wavelength Unit : Wavelength(nm)
Spectrum Unit : Reflectance(%)
-----------Spectrum Setting ------------
Integration Time : 30ms
Average : 10
Boxcar : 0
Background removal :  enabled
linearity correction :  enabled
SC :  disabled
Intensity correction :  disabled
DWT denoise :  enabled
savitzky-golay :  disabled
FFT :  disabled
Running average :  disabled
Kalman :  disabled
High pass :  disabled
---------------BEGIN--------------------
Wavelength(nm)             Reflectance(%)
200.29               0
200.75        55.87944
201.21        58.77827
201.67        64.18906
202.13        71.70406
202.58        80.65121
203.04        91.20155
203.50        99.90025
203.96        99.42072
204.42        90.69648
204.88        79.17313
205.34        69.50843
205.80        63.52154
206.26        60.07056
206.72        57.96381
207.18        56.93913
207.64        56.79398
208.10        57.51109
208.55        59.44179
209.01        61.37779
209.47        63.19061
209.93        64.75432
210.39        65.85568
210.85        66.15469
211.31        65.35076
211.77        63.27886
212.23        59.63594
212.69        54.90947
213.14        52.29796
213.60        53.07938
214.06        56.09767
214.52        58.97301
214.98        60.28379
215.44        60.20103
215.90        58.90726
216.36        57.47513
216.81        58.22953
217.27        61.59436
217.73        66.63602
218.19        70.58504
218.65        69.77672
219.11        63.58387
219.57        52.52203
220.02        39.42029
220.48        32.00481
220.94        33.18262
221.40         41.5793
221.86        52.39897
222.32        58.09449
222.77        56.84314
223.23        51.14255
223.69        44.91804
224.15        43.66197
224.61        47.38671
225.06        53.10434
225.52        57.89088
225.98        59.36948
226.44        57.60798
226.90         53.7595
227.36        49.34433
227.81        46.96019
228.27        47.63544
228.73        50.15203
229.19        53.13215
229.65        55.01138
230.10        55.56765
230.56        55.45216
231.02        55.22188
231.48        55.57954
231.93        56.51298
232.39         57.6621
232.85        58.58463
233.31        58.67377
233.77        57.81069
234.22        56.30427
234.68        54.37677
235.14        52.32964
235.60        50.45244
236.05        48.76527
236.51        47.59266
236.97        47.35786
237.43        48.20364
237.88        50.43997
238.34        53.72305
238.80        56.74206
239.26        58.28774
239.71        58.15482
240.17        56.96368
240.63         56.5667
241.08        57.53929
241.54        59.40127
242.00        61.16595
242.46        60.91962
242.91        57.71079
243.37        50.83519
243.83        41.00423
244.28        35.14395
244.74        39.93169
245.20        53.67175
245.66        66.94966
246.11        71.90877
246.57        67.83222
247.03        55.25323
247.48        36.66314
247.94         28.8755
248.40        35.86781
248.85        46.36311
249.31        54.35207
249.77        58.39883
250.22        59.59264
250.68        59.44341
251.14        58.47057
251.59        57.42112
252.05        57.06314
252.51        57.07292
252.96        57.48378
253.42        58.67589
253.88         60.5136
254.33        62.74577
254.79        65.42138
255.25        68.30624
255.70        71.14541
256.16         73.6198
256.62        75.47548
257.07        76.45592
257.53        76.66164
257.99        76.08663
258.44        74.29954
258.90         71.7486
259.35        68.69016
259.81        66.17432
260.27        64.12827
260.72        62.42723
261.18        61.16338
261.63        59.78461
262.09        58.80325
262.55        58.40431
263.00        58.42199
263.46        58.87385
263.91        58.93665
264.37        57.93702
264.83        55.91912
265.28        53.18306
265.74        50.78413
266.19        49.74115
266.65        50.18353
267.11         51.5097
267.56        52.90383
268.02        53.20512
268.47        52.19755
268.93        50.30328
269.38        47.98246
269.84        46.21946
270.30        45.30234
270.75        44.95008
271.21        44.88851
271.66        44.69296
272.12        44.21491
272.57        43.59257
273.03        42.93764
273.48        42.30558
273.94        41.77664
274.39        41.27191
274.85        40.76242
275.31        40.17614
275.76        39.47917
276.22        38.71623
276.67        37.96609
277.13        37.46229
277.58        37.16209
278.04        37.03832
278.49        36.82235
278.95        36.21363
279.40        35.15938
279.86        33.88274
280.31        32.60756
280.77        31.80096
281.22        31.46334
281.68        31.46423
282.13        31.57641
282.59        31.51111
283.04        31.18268
283.50        30.73396
283.95        30.21355
284.41        29.73525
284.86        29.31675
285.32        28.93858
285.77        28.63825
286.22        28.55165
286.68        28.67177
287.13        28.92832
287.59        29.17915
288.04        29.18069
288.50        28.91604
288.95        28.42825
289.41        27.88228
289.86         27.4592
290.32        27.26177
290.77        27.22411
291.22        27.29357
291.68        27.35417
292.13        27.38272
292.59        27.44107
293.04        27.59557
293.50        27.96001
293.95        28.53734
294.40        29.26643
294.86        30.05874
295.31        30.79282
295.77        31.43175
296.22        32.00544
296.68        32.54205
297.13        33.06854
297.58        33.60811
298.04        34.15316
298.49          34.714
298.95        35.35184
299.40        36.05406
299.85         36.8036
300.31        37.55502
300.76        38.22594
301.21        38.79844
301.67        39.32391
302.12        39.78863
302.58        40.24273
303.03        40.67761
303.48         41.1009
303.94        41.57645
304.39        42.15675
304.84        42.84826
305.30        43.61487
305.75        44.33506
306.20        44.85283
306.66        45.15569
307.11        45.27184
307.57        45.30902
308.02        45.34879
308.47        45.45037
308.93        45.58581
309.38        45.73815
309.83        45.93822
310.29         46.1731
310.74        46.43613
311.19         46.6505
311.65        46.68759
312.10        46.52069
312.55        46.18617
313.00        45.80232
313.46        45.55292
313.91        45.46287
314.36        45.49949
314.82        45.54862
315.27        45.45105
315.72        45.15979
316.18          44.744
316.63        44.30222
317.08        43.99608
317.53         43.8545
317.99        43.81047
318.44        43.77787
318.89          43.606
319.35         43.2579
319.80        42.79332
320.25        42.27699
320.70        41.81131
321.16        41.42905
321.61        41.10604
322.06         40.8287
322.51        40.58065
322.97        40.33886
323.42        40.11355
323.87        39.87643
324.32        39.58559
324.78        39.22291
325.23        38.80888
325.68        38.34463
326.13        37.84858
326.59        37.34006
327.04        36.84899
327.49        36.40697
327.94         36.0648
328.39        35.82873
328.85        35.66341
329.30        35.57802
329.75        35.52404
330.20        35.47428
330.66        35.41398
331.11        35.32021
331.56        35.10192
332.01        34.74596
332.46        34.26806
332.92        33.74958
333.37        33.35229
333.82        33.12373
334.27        33.04296
334.72         33.0296
335.17        32.93729
335.63        32.71143
336.08        32.39899
336.53        32.08358
336.98        31.91861
337.43        31.93645
337.88        32.09236
338.34        32.22699
338.79        32.13053
339.24         31.7407
339.69         31.1208
340.14        30.48415
340.59        30.18681
341.05        30.29577
341.50        30.70566
341.95        31.16554
342.40        31.28669
342.85        30.98704
343.30        30.40513
343.75        29.74122
344.20        29.32252
344.66        29.23685
345.11        29.34532
345.56        29.55572
346.01        29.72026
346.46        29.77124
346.91        29.77348
347.36        29.66587
347.81        29.34044
348.26        28.81793
348.72         28.1623
349.17        27.52891
349.62        27.25987
350.07        27.42529
350.52        27.90329
350.97        28.51208
351.42        28.97378
351.87        29.19606
352.32        29.24912
352.77        29.14541
353.22        28.91273
353.67        28.58997
354.13        28.18455
354.58        27.76176
355.03        27.47142
355.48        27.34882
355.93        27.37124
356.38        27.46954
356.83        27.51915
357.28        27.47686
357.73        27.36339
358.18           27.21
358.63        27.07382
359.08          26.971
359.53        26.88388
359.98        26.77023
360.43        26.56883
360.88         26.2772
361.33         25.9247
361.78        25.59026
362.23         25.3983
362.68        25.36935
363.13        25.45293
363.58        25.55831
364.03        25.54627
364.48        25.37775
364.93        25.09244
365.38          24.736
365.83        24.39169
366.28         24.0984
366.73        23.83781
367.18        23.61495
367.63         23.4351
368.08        23.29496
368.53         23.2014
368.98        23.13507
369.43        23.05707
369.88        22.95863
370.33        22.84769
370.78         22.7368
371.23        22.65364
371.68        22.60517
372.13        22.57411
372.58        22.55942
373.03        22.56291
373.48        22.57259
373.93        22.58007
374.38        22.55365
374.83        22.44352
375.28        22.24562
375.72        21.97552
376.17        21.68968
376.62        21.43835
377.07        21.24903
377.52        21.10909
377.97        21.03196
378.42        21.03516
378.87        21.10294
379.32        21.21646
379.77        21.32104
380.22        21.33244
380.67        21.23548
381.11        21.06238
381.56        20.83458
382.01        20.61452
382.46        20.42709
382.91        20.24636
383.36        20.10522
383.81        20.04878
384.26        20.07342
384.71        20.17991
385.15        20.25962
385.60        20.14722
386.05        19.82429
386.50        19.34298
386.95         18.8781
387.40        18.70923
387.85        18.87819
388.29        19.27534
388.74        19.70218
389.19        19.87048
389.64        19.72268
390.09        19.34872
390.54        18.89627
390.98        18.59542
391.43        18.52907
391.88        18.61098
392.33         18.7325
392.78         18.7405
393.23        18.60754
393.67        18.38017
394.12         18.1715
394.57        18.07006
395.02        18.09386
395.47        18.20654
395.91        18.33481
396.36        18.33619
396.81        18.18707
397.26        17.93005
397.71        17.67068
398.15        17.54824
398.60        17.60549
399.05        17.78021
399.50        17.96175
399.95        17.99143
400.39        17.83765
400.84        17.54601
401.29        17.22383
401.74         17.0685
402.18        17.13899
402.63        17.36227
403.08        17.61044
403.53        17.67964
403.97        17.52601
404.42        17.23065
404.87        16.90622
405.32        16.73621
405.76        16.76567
406.21        16.92653
406.66         17.1362
407.11        17.26877
407.55         17.2864
408.00        17.23352
408.45        17.13447
408.90        16.98611
409.34        16.82683
409.79        16.73546
410.24        16.69564
410.68         16.6117
411.13        16.48569
411.58        16.38326
412.03        16.31153
412.47        16.25791
412.92        16.22118
413.37        16.19595
413.81        16.19884
414.26        16.26917
414.71         16.3982
415.15        16.57758
415.60        16.72059
416.05        16.71429
416.49        16.53552
416.94        16.22788
417.39        15.89009
417.83        15.68216
418.28         15.6517
418.73        15.74603
419.17        15.89268
419.62        15.96382
420.07        15.93006
420.51        15.83398
420.96        15.71624
421.41        15.62073
421.85        15.55859
422.30        15.51903
422.74        15.50057
423.19        15.53215
423.64        15.60326
424.08        15.71687
424.53        15.81465
424.98        15.82001
425.42        15.72014
425.87        15.54406
426.31        15.34197
426.76        15.19927
427.21        15.12936
427.65        15.10143
428.10        15.11891
428.54        15.16078
428.99        15.21671
429.44        15.36018
429.88        15.50276
430.33        15.40055
430.77        15.10949
431.22        14.93376
431.66        14.92304
432.11        14.98478
432.56        15.09991
433.00        15.33482
433.45        15.53025
433.89        15.45446
434.34         15.2067
434.78        14.94489
435.23        14.66293
435.67        15.34588
436.12        14.84771
436.57        14.76482
437.01        14.53215
437.46        14.44008
437.90        14.50281
438.35        14.59219
438.79        14.66163
439.24        14.70237
439.68         14.7006
440.13        14.53986
440.57        14.32145
441.02        14.43871
441.46        14.75942
441.91        14.81846
442.35        14.25874
442.80        14.06478
443.24        14.08933
443.69        14.02877
444.13        13.86924
444.58        13.74899
445.02         13.6796
445.47         13.6621
445.91        13.67431
446.36        13.64857
446.80        13.57182
447.24        13.48251
447.69        13.40196
448.13        13.33061
448.58        13.28035
449.02        13.24607
449.47        13.22264
449.91        13.19674
450.36        13.17012
450.80        13.14406
451.25        13.13109
451.69         13.1355
452.13        13.16078
452.58        13.19347
453.02        13.22919
453.47        13.26003
453.91        13.28379
454.36        13.30318
454.80        13.30321
455.24        13.26017
455.69        13.18123
456.13         13.0638
456.58        12.95893
457.02        12.93346
457.46        12.99372
457.91        13.08499
458.35        13.16916
458.79        13.21902
459.24        13.21951
459.68        13.18232
460.13        13.16349
460.57        13.12168
461.01        13.05547
461.46        13.31181
461.90        13.36755
462.34        13.22273
462.79        13.31632
463.23        13.20568
463.68        13.11238
464.12         13.0438
464.56        13.11634
465.01        13.22728
465.45         13.3353
465.89        13.39296
466.34        13.39454
466.78        13.31273
467.22        13.20129
467.67        13.24169
468.11        13.40889
468.55        13.43252
468.99        13.32421
469.44        13.32114
469.88        13.42972
470.32        13.51281
470.77        13.54274
471.21        13.54747
471.65        13.52288
472.10        13.46417
472.54        13.39659
472.98        13.39247
473.42        13.46197
473.87        13.54705
474.31        13.62326
474.75        13.73337
475.20        13.84054
475.64        13.80574
476.08        13.68821
476.52        13.70083
476.97        13.85851
477.41        14.06594
477.85         14.2577
478.29        14.36902
478.74        14.38039
479.18        14.28771
479.62        14.17454
480.06        14.17452
480.50        14.29417
480.95        14.42765
481.39        14.52436
481.83        14.57341
482.27        14.56387
482.72        14.50553
483.16        14.43941
483.60        14.41886
484.04        14.44615
484.48        14.59951
484.93        14.89688
485.37        14.96399
485.81        14.96763
486.25        15.61756
486.69        16.13194
487.14        15.81667
487.58        15.47708
488.02         16.1083
488.46        15.72402
488.90        15.95161
489.34        16.04554
489.79        16.15051
490.23        16.24415
490.67        16.43342
491.11        16.67605
491.55        16.67463
491.99        16.47558
492.43        16.41089
492.88          16.518
493.32         16.6092
493.76        16.68867
494.20        16.84514
494.64        17.07682
495.08        17.35383
495.52        17.63855
495.96        17.88481
496.41         18.0791
496.85         18.1996
497.29        18.27542
497.73        18.44272
498.17        18.68635
498.61        18.80547
499.05        18.81766
499.49         18.9437
499.93        19.19686
500.37         19.4099
500.82        19.57038
501.26        19.82021
501.70        20.10617
502.14        20.16621
502.58        20.04431
503.02        20.04063
503.46        20.17948
503.90        20.30387
504.34        20.38631
504.78        20.45017
505.22        20.48878
505.66        20.50659
506.10         20.5163
506.54        20.53372
506.98        20.56913
507.42        20.62191
507.86        20.70195
508.30        20.82435
508.74        20.98369
509.18        21.16477
509.62        21.34711
510.06        21.49819
510.50        21.60788
510.94        21.68942
511.38        21.73014
511.82        21.71263
512.26        21.64372
512.70        21.52933
513.14        21.43021
513.58        21.43838
514.02        21.56119
514.46        21.77321
514.90        21.99337
515.34        22.02941
515.78        21.88383
516.22        21.67399
516.66        21.50352
517.10        21.19396
517.54        20.77823
517.98        21.36288
518.42        21.26418
518.86        21.52243
519.30        21.61526
519.74        21.71213
520.18          21.793
520.62        21.80351
521.06        21.75814
521.50        21.65416
521.93        21.51612
522.37        21.39613
522.81        21.31032
523.25        21.25175
523.69        21.21726
524.13        21.19836
524.57        21.18781
525.01         21.1856
525.45        21.18479
525.89        21.17218
526.32        21.14311
526.76        21.10242
527.20        21.04354
527.64        20.96275
528.08        20.86096
528.52        20.73464
528.96        20.61112
529.40        20.53063
529.83        20.49848
530.27        20.51319
530.71        20.52028
531.15        20.43386
531.59        20.24511
532.03          19.984
532.46        19.73451
532.90        19.64478
533.34        19.73147
533.78        19.94092
534.22        20.17459
534.66        20.28091
535.09        20.22033
535.53        20.04937
535.97        19.83092
536.41        19.66263
536.85        19.57923
537.28        19.56114
537.72        19.59759
538.16        19.61103
538.60        19.68449
539.04        19.74391
539.47        19.80572
539.91        19.89965
540.35        20.03692
540.79         20.0364
541.22        20.15581
541.66        20.25361
542.10        20.42323
542.54        20.33385
542.97        20.53079
543.41        20.64677
543.85        20.82839
544.29        21.01903
544.72        21.17875
545.16        21.30731
545.60        21.39526
546.04         21.3827
546.47        21.35581
546.91        21.58599
547.35        22.02652
547.79        22.37717
548.22        22.57995
548.66        22.70539
549.10        22.78601
549.53        22.97385
549.97        23.28288
550.41        23.31971
550.84        23.51749
551.28         23.6355
551.72        23.82089
552.15        24.02391
552.59        24.24566
553.03        24.49104
553.46         24.7164
553.90        24.87889
554.34        24.96981
554.77        25.00201
555.21        25.02464
555.65        25.10437
556.08        25.25059
556.52        25.43792
556.96        25.62727
557.39          25.791
557.83        25.90714
558.27        25.92773
558.70        25.88441
559.14        25.87868
559.57         25.9197
560.01        25.99469
560.45         26.0798
560.88        26.10513
561.32        26.11774
561.75        26.19213
562.19        26.41547
562.63         26.5472
563.06        26.60317
563.50         26.6591
563.93        26.71907
564.37        26.84064
564.80        26.90477
565.24        27.01777
565.68         27.1195
566.11        27.21716
566.55        27.32979
566.98        27.38533
567.42        27.39266
567.85        27.76052
568.29        27.75271
568.72        28.09669
569.16        28.50386
569.60        28.80602
570.03        28.96166
570.47        29.07852
570.90         29.0519
571.34        29.43492
571.77        29.28748
572.21        29.67262
572.64         29.9007
573.08        29.99495
573.51        30.26136
573.95        30.72818
574.38        30.91503
574.82        31.18356
575.25        31.30872
575.69        31.20545
576.12        31.02194
576.56        30.91921
576.99        30.96242
577.42        31.29004
577.86        31.30987
578.29         31.2452
578.73        31.92063
579.16        31.43871
579.60        31.15375
580.03        30.96674
580.47        30.91509
580.90        30.68874
581.33        30.51403
581.77        30.69992
582.20        31.33045
582.64        30.92975
583.07        30.24146
583.51        30.44483
583.94        29.75873
584.37        29.63817
584.81        29.31424
585.24        29.24903
585.68          29.263
586.11        29.44542
586.54        29.15912
586.98         29.0192
587.41        28.92643
587.85        28.90282
588.28        28.91811
588.71        28.73808
589.15        28.42692
589.58        28.17793
590.01        28.23506
590.45        28.58724
590.88        28.53394
591.31        28.49663
591.75        28.06153
592.18        28.15169
592.61        28.08821
593.05        28.51211
593.48        28.32969
593.91        29.14622
594.35        28.78997
594.78        28.76192
595.21        28.99808
595.65        29.36014
596.08        29.42978
596.51        29.49965
596.94        29.49837
597.38        29.59313
597.81        29.85002
598.24        29.89089
598.68        30.66514
599.11        30.52551
599.54        31.69611
599.97        31.56837
600.41        31.91336
600.84        32.35607
601.27        32.96707
601.70        33.27898
602.14        33.40668
602.57         33.7603
603.00        34.38464
603.43        34.92752
603.87        35.29391
604.30        35.71222
604.73        36.19478
605.16        36.39398
605.60        36.94888
606.03        37.40517
606.46        37.78434
606.89        38.63494
607.32        38.96949
607.76         39.0278
608.19        39.58149
608.62        40.04374
609.05        40.17842
609.48        40.40321
609.92        40.64731
610.35        40.71297
610.78        41.62462
611.21        42.15192
611.64        42.18501
612.07        42.32255
612.50        42.85152
612.94        42.82035
613.37        43.34089
613.80        43.59386
614.23        43.86078
614.66        44.32877
615.09        44.56879
615.52        44.98003
615.96        45.32738
616.39        45.62178
616.82         45.9254
617.25         45.5554
617.68        45.88567
618.11        46.25556
618.54        46.90612
618.97        47.02744
619.40        46.62754
619.84        46.75205
620.27        46.49047
620.70        46.86065
621.13        47.43703
621.56        47.75071
621.99        47.83224
622.42         47.7993
622.85        47.79609
623.28        47.92671
623.71        48.15395
624.14        48.41331
624.57        48.19035
625.00        47.97086
625.43        48.31901
625.86        47.51349
626.29        47.57357
626.72         47.3086
627.15        47.30397
627.58        47.10599
628.01        47.24102
628.44         47.1279
628.87        46.89671
629.30        46.54605
629.73        46.14914
630.16        45.86872
630.59        45.51662
631.02        45.24282
631.45        44.96233
631.88        44.64888
632.31        44.28698
632.74        43.89093
633.17        43.46009
633.60        42.98521
634.03        42.47271
634.46        41.92928
634.89        41.37678
635.32        40.84975
635.75        40.36318
636.18        39.91896
636.61         39.5045
637.04         39.0925
637.47        38.67259
637.89        38.25069
638.32        37.83805
638.75        37.47694
639.18        37.17684
639.61        36.92974
640.04        36.69474
640.47        36.40465
640.90         36.0493
641.33        35.65271
641.76        35.27579
642.18        35.01989
642.61        34.90129
643.04        34.89066
643.47        34.93324
643.90        34.92395
644.33        34.85767
644.76        34.75898
645.18        34.66348
645.61        34.60777
646.04        34.61085
646.47        34.70467
646.90        34.82639
647.33        35.07381
647.75          35.418
648.18         35.8433
648.61        36.29935
649.04        36.69594
649.47        37.01657
649.89        37.30384
650.32        37.59649
650.75        37.93431
651.18         38.3724
651.61        38.90826
652.03        39.51926
652.46        40.31602
652.89        41.20599
653.32        41.57442
653.74        41.53825
654.17          42.273
654.60        42.93596
655.03        43.87032
655.46        43.50746
655.88        45.36425
656.31        46.31301
656.74        53.77505
657.16        50.97091
657.59        47.35806
658.02        47.08007
658.45        47.45329
658.87        48.18606
659.30        48.59034
659.73        49.22176
660.15        50.09478
660.58        49.76924
661.01        49.67702
661.44        49.53044
661.86        49.88387
662.29        50.65266
662.72         51.3208
663.14        51.73947
663.57        51.84146
664.00        51.77874
664.42        51.75773
664.85        52.24438
665.27        52.60617
665.70        52.88774
666.13        53.14303
666.55        53.35973
666.98        53.50881
667.41        53.61988
667.83        53.75101
668.26        53.90705
668.69        54.07813
669.11        54.24595
669.54        54.36891
669.96        54.44611
670.39        54.52312
670.82        54.61037
671.24        54.68856
671.67        54.81653
672.09        55.04689
672.52         55.2915
672.94         55.7809
673.37        55.72144
673.80        55.60814
674.22        55.34797
674.65        55.28848
675.07        55.47916
675.50        55.75981
675.92        56.05382
676.35         56.2043
676.77        56.17154
677.20        56.18624
677.62        55.99283
678.05        55.95576
678.47        56.00757
678.90        56.12523
679.32        56.29118
679.75        56.47573
680.17         56.6571
680.60        56.87517
681.02        57.08829
681.45        57.13913
681.87        57.08968
682.30        57.14877
682.72        57.25665
683.15        57.50951
683.57        57.10286
684.00        57.08794
684.42         57.3633
684.85        57.54881
685.27        57.66625
685.70          57.879
686.12        58.12869
686.54         58.2954
686.97        58.36563
687.39        58.28046
687.82        58.05365
688.24        58.27098
688.66        58.10875
689.09        58.21818
689.51        58.32525
689.94        58.39256
690.36         58.4197
690.78        58.40583
691.21        58.37038
691.63        58.45263
692.06        58.68692
692.48        58.59842
692.90        58.73496
693.33        59.10756
693.75        58.87014
694.17        58.98178
694.60        59.11704
695.02        58.94867
695.44        58.53113
695.87        58.59325
696.29        59.04707
696.71        58.83353
697.14        58.21055
697.56        58.57341
697.98        59.67249
698.41        60.50998
698.83        60.06666
699.25        59.76351
699.68        59.68738
700.10        59.58299
700.52        59.57154
700.94        59.68106
701.37        59.84402
701.79        59.97793
702.21        60.02923
702.64        60.02271
703.06        60.00631
703.48        60.06732
703.90        60.22216
704.33        60.43146
704.75          60.619
705.17        60.63898
705.59        60.46905
706.01        60.16436
706.44        59.86079
706.86        59.77357
707.28        59.94443
707.70        60.29826
708.12        60.71403
708.55        61.00785
708.97        61.12741
709.39        61.11391
709.81        61.00972
710.23        61.00783
710.66        60.96235
711.08         60.9899
711.50        61.02869
711.92        61.09129
712.34        61.17427
712.76        61.29099
713.19        61.39982
713.61        61.47234
714.03         61.4779
714.45        61.42905
714.87        61.38168
715.29        61.42445
715.71        61.57188
716.13        61.79636
716.56        62.01633
716.98        62.16468
717.40        62.18883
717.82         62.1168
718.24        62.00549
718.66        61.94858
719.08        61.97169
719.50         62.0453
719.92        62.12889
720.34        62.15641
720.76        62.11325
721.19         62.0255
721.61        61.93523
722.03        61.87574
722.45        61.88014
722.87        61.92067
723.29        61.99631
723.71        62.09698
724.13        62.21719
724.55        62.36305
724.97        62.51889
725.39        62.65864
725.81        62.77182
726.23        62.85141
726.65        62.92363
727.07        63.03491
727.49        63.19089
727.91        63.38834
728.33        63.57263
728.75        63.63053
729.17        63.54288
729.59        63.42653
730.01        63.22699
730.43        63.20288
730.85        63.34202
731.27        63.58558
731.69        63.84721
732.10        64.06337
732.52        64.08858
732.94        64.03394
733.36        63.90602
733.78        63.77877
734.20        63.70827
734.62        63.64647
735.04        63.56575
735.46        63.60474
735.88        63.79161
736.30        63.39133
736.72        63.62287
737.13        63.81883
737.55        64.21564
737.97        64.53101
738.39        64.65512
738.81         64.4978
739.23        64.17581
739.65         64.0038
740.06        63.99714
740.48        64.25359
740.90         64.6464
741.32        64.17606
741.74         63.8376
742.16        63.80325
742.57        64.04541
742.99        64.37354
743.41        64.59045
743.83        64.73218
744.25        64.74978
744.67        64.64005
745.08         64.4622
745.50        64.28468
745.92        64.15327
746.34        64.04796
746.75        63.97432
747.17         63.9379
747.59        63.94718
748.01        64.02297
748.42        64.13755
748.84        64.26686
749.26        64.41302
749.68        64.38187
750.09        64.27683
750.51        64.63242
750.93        65.22808
751.35        65.19646
751.76         64.6789
752.18        63.99193
752.60        64.32784
753.01        64.43291
753.43        64.21244
753.85        64.24326
754.27        64.40985
754.68        64.64404
755.10        64.85706
755.52        64.94985
755.93        64.90172
756.35        64.77457
756.77        64.65432
757.18        64.60326
757.60        64.67317
758.02        64.94426
758.43        65.32638
758.85        65.39307
759.26        65.55011
759.68        65.44183
760.10        65.27707
760.51        65.08101
760.93        65.02259
761.34        64.41418
761.76        65.00825
762.18        64.73901
762.59        64.28012
763.01        64.29199
763.42        64.82789
763.84        65.27815
764.26        65.51903
764.67        65.49564
765.09        65.37495
765.50        65.61432
765.92        66.13382
766.33        66.38869
766.75        66.22475
767.16         65.7202
767.58        65.01675
768.00        64.61699
768.41        64.65052
768.83        64.79788
769.24        65.00758
769.66          65.444
770.07         65.9378
770.49        66.07795
770.90        65.91397
771.32        65.90942
771.73        66.08639
772.15        66.07375
772.56        65.89487
772.97        65.81395
773.39        65.78869
773.80        65.65246
774.22        65.38479
774.63        65.06039
775.05        64.79442
775.46        64.77674
775.88        65.01853
776.29        65.49729
776.70        65.99417
777.12        66.16422
777.53        65.94419
777.95          65.419
778.36        64.83083
778.77        64.59143
779.19        64.79687
779.60        65.35834
780.02        66.00785
780.43        66.44042
780.84        66.55629
781.26        66.20215
781.67        65.66975
782.09        66.04006
782.50        67.07712
782.91        67.21321
783.33        66.49529
783.74        66.28159
784.15        66.59399
784.57        66.76192
784.98        66.67702
785.39        66.25345
785.81        65.62923
786.22        65.39851
786.63         65.5716
787.04        65.64407
787.46        65.61216
787.87        65.78965
788.28        66.13305
788.70        66.38455
789.11        66.49943
789.52        66.55441
789.93        66.56582
790.35        66.53926
790.76        66.48917
791.17        66.42259
791.58        66.35112
792.00         66.1798
792.41         65.9323
792.82          65.908
793.23        66.00858
793.65        65.64655
794.06        65.12537
794.47        65.40054
794.88        66.20293
795.29        67.63293
795.71        67.05689
796.12        66.96509
796.53          66.774
796.94        66.12161
797.35        65.31681
797.76        65.36687
798.18        66.15308
798.59        66.51021
799.00         66.3346
799.41         66.3199
799.82        66.49339
800.23        66.55918
800.64        66.51216
801.06         66.3946
801.47        66.28972
801.88        66.27914
802.29        66.37701
802.70        66.53864
803.11        66.68653
803.52        66.69894
803.93        66.56387
804.34        66.33708
804.75        66.08205
805.17        65.97725
805.58        66.09629
805.99         66.1176
806.40        66.08327
806.81        66.72868
807.22        67.72804
807.63        67.54863
808.04        66.43027
808.45        66.12602
808.86        66.77147
809.27        67.38882
809.68         67.7803
810.09        68.06248
810.50        68.14355
810.91        67.99211
811.32        67.67947
811.73        67.29824
812.14        66.89487
812.55        66.53439
812.96        66.24058
813.37        65.87612
813.78        65.54646
814.19        65.64999
814.60        66.07107
815.01        66.29559
815.42        66.26921
815.83        66.22307
816.24        66.22283
816.65        66.29057
817.05        66.45071
817.46        66.63424
817.87        66.79469
818.28        66.82726
818.69        66.73498
819.10        66.57674
819.51         66.4073
819.92        66.41804
820.33        66.67009
820.74        66.80527
821.14          66.896
821.55        67.71667
821.96        68.92952
822.37         68.9435
822.78        67.89003
823.19        67.41085
823.60        67.63681
824.00        67.64544
824.41        67.35172
824.82        67.17999
825.23        67.14371
825.64        67.14603
826.04        67.19856
826.45        67.26458
826.86        67.33749
827.27         67.4333
827.68        67.51432
828.08        67.52984
828.49          67.423
828.90        67.23293
829.31        67.02581
829.72        66.92148
830.12        66.97204
830.53          67.113
830.94        67.28531
831.35        67.36601
831.75        67.34872
832.16        67.23298
832.57        67.09759
832.97        67.05393
833.38        67.11204
833.79        67.22207
834.20        67.34544
834.60        67.41773
835.01        67.43606
835.42        67.44218
835.82        67.40804
836.23         67.2347
836.64         66.9439
837.04        66.55291
837.45        66.22418
837.86        66.26219
838.26        66.72803
838.67        67.51427
839.08        68.33571
839.48        68.65742
839.89        68.34598
840.29        67.59068
840.70        66.77087
841.11        66.38247
841.51         66.5574
841.92        67.09189
842.33        67.82269
842.73        68.46584
843.14        68.80946
843.54        68.99788
843.95        68.97655
844.35        68.73096
844.76        68.30629
845.17         67.7278
845.57        67.14954
845.98        66.83691
846.38        66.84873
846.79        67.12202
847.19        67.59357
847.60        68.00553
848.00        68.31216
848.41        68.50768
848.81        68.66114
849.22        68.80839
849.62        69.00114
850.03        69.16423
850.43        69.30134
850.84        69.34856
851.24        69.34621
851.65        69.26907
852.05        69.18931
852.46        69.16219
852.86        69.21467
853.27        69.19762
853.67        69.07049
854.07          69.243
854.48        69.52493
854.88        69.15107
855.29        68.22112
855.69        67.79172
856.10        67.91328
856.50         68.1123
856.90        68.26118
857.31        68.41255
857.71        68.57848
858.12        68.68587
858.52        68.75459
858.92        68.70611
859.33        68.52283
859.73        68.24355
860.13        67.95927
860.54        67.85977
860.94        68.04194
861.34        68.42152
861.75        68.79458
862.15        68.91405
862.55        68.68068
862.96        68.21381
863.36        67.65839
863.76        67.24092
864.17        67.03794
864.57        66.98679
864.97        67.08974
865.38        67.33611
865.78        67.73344
866.18        68.21964
866.58        68.60442
866.99        68.55455
867.39        68.03955
867.79        67.14741
868.19        66.04426
868.60        64.98581
869.00        64.04794
869.40        63.22735
869.80        62.68818
870.21        62.66779
870.61        63.22805
871.01        64.24849
871.41        65.35498
871.81        65.94563
872.22        65.90942
872.62        65.41061
873.02        64.69891
873.42         64.4517
873.82        64.58798
874.22        64.33353
874.63        63.91526
875.03        63.88765
875.43        64.29594
875.83        66.15431
876.23        65.95515
876.63        65.25714
877.03        63.45557
877.44        60.70471
877.84        136.4328
878.24        60.95218
878.64        62.54029
879.04        67.15913
879.44        63.17048
879.84        61.01562
880.24         66.3606
880.64        66.83372
881.04        63.66278
881.44        61.66192
881.84        61.54221
882.24        62.53226
882.65        64.02634
883.05        64.74713
883.45        64.29131
883.85        63.42426
884.25        62.62351
884.65        62.26929
885.05        62.50393
885.45        63.17118
885.85        63.94971
886.25        64.33874
886.65        64.19796
887.05         63.6912
887.45        63.13225
887.85        62.98198
888.25        63.34804
888.65        64.09095
889.04        64.93365
889.44        65.33688
889.84        65.17671
890.24         64.5975
890.64        63.90774
891.04        63.56707
891.44        63.65448
891.84        64.00407
892.24        64.32873
892.64        64.14748
893.04        63.39388
893.44        62.34085
893.83        61.24038
894.23        60.45044
894.63        60.04925
895.03        59.88304
895.43        59.99059
895.83        60.44759
896.23        61.19019
896.63        62.19041
897.02        63.08737
897.42        63.22347
897.82        62.50005
898.22        61.13884
898.62        59.65463
899.01        58.84385
899.41        58.92121
899.81        59.62869
900.21        60.66486
900.61         61.5617
901.00        62.14676
901.40         62.5178
901.80        62.73605
902.20        62.88429
902.59         62.9976
902.99        63.02287
903.39        62.88811
903.79        62.50754
904.18        61.90014
904.58        61.18251
904.98        60.58778
905.38        60.45444
905.77        60.82428
906.17        61.58257
906.57        62.43216
906.96        62.92949
907.36        62.90681
907.76        62.47091
908.15        61.86808
908.55         61.4468
908.95        61.33216
909.34        61.46563
909.74        61.60299
910.14        61.31112
910.53          60.516
910.93        59.43382
911.33        58.53213
911.72        58.54523
912.12        59.53248
912.52         61.1559
912.91        62.84809
913.31        63.64932
913.70        63.39087
914.10        62.36525
914.49        60.88158
914.89        59.69746
915.29        59.13807
915.68        58.99591
916.08        59.27663
916.47        59.98656
916.87         60.9812
917.26        62.23111
917.66        63.37711
918.05        63.84435
918.45        63.49304
918.84         62.5581
919.24        61.25953
919.64        60.00508
920.03        59.00328
920.42        58.16677
920.82        57.79069
921.21        58.27239
921.61        59.54183
922.00        61.51126
922.40        63.44089
922.79        64.33615
923.19        63.96839
923.58        62.34218
923.98        60.00079
924.37        58.88529
924.77        59.69434
925.16         57.7066
925.55        60.32895
925.95        60.78749
926.34        61.18335
926.74        61.44654
927.13        61.73392
927.52        62.03306
927.92        62.30305
928.31        62.58109
928.70        62.71802
929.10        62.54127
929.49        62.03504
929.89        61.27853
930.28         60.5829
930.67        60.42564
931.07        60.86946
931.46        61.82828
931.85        62.86372
932.24        63.32394
932.64        63.05359
933.03        62.11896
933.42        60.92318
933.82        60.29881
934.21        60.44925
934.60        61.13957
934.99        61.66292
935.39        61.40021
935.78        60.29014
936.17        57.84175
936.56        54.41452
936.96        55.56669
937.35          54.805
937.74        57.14364
938.13        59.52232
938.53        61.03999
938.92        61.57588
939.31        61.47567
939.70        61.04408
940.09         60.6638
940.49        60.55249
940.88        60.59776
941.27        60.79343
941.66        61.18791
942.05        61.73835
942.44        62.39983
942.84        63.13013
943.23        63.83516
943.62        64.42664
944.01         64.9522
944.40        65.14286
944.79        64.58675
945.18        63.24711
945.57        61.20021
945.97        59.16387
946.36        58.37936
946.75        59.21825
947.14        61.24643
947.53        63.46336
947.92        64.48607
948.31        64.06584
948.70        62.61867
949.09        60.80009
949.48        59.76517
949.87        59.87399
950.26        60.74737
950.65        61.91166
951.04        62.59322
951.43        62.54018
951.82        62.03532
952.21        61.31882
952.60        60.74258
952.99        60.43515
953.38        60.24819
953.77        60.14444
954.16        60.09571
954.55        60.07299
954.94        60.12767
955.33        60.19377
955.72        60.12868
956.11        59.91639
956.50        59.58648
956.89        59.26612
957.28         59.2155
957.66        59.50278
958.05        59.93605
958.44        60.38949
958.83        60.69056
959.22        60.79216
959.61        60.77805
960.00        60.55035
960.39        59.95688
960.78         59.0343
961.16        57.82333
961.55        56.74654
961.94        56.32567
962.33        56.65718
962.72        57.63076
963.11        58.77916
963.49        59.28909
963.88         58.8715
964.27        57.77153
964.66        56.53902
965.04        56.09792
965.43        56.65833
965.82        57.92771
966.21        59.35522
966.60        60.04562
966.98        59.78944
967.37        58.88146
967.76         57.8008
968.15        57.28685
968.53        57.55107
968.92        58.24301
969.31        59.10405
969.69        59.71709
970.08        59.85963
970.47        59.71486
970.86        59.24088
971.24        58.31746
971.63        57.05812
972.02        55.52069
972.40        54.01309
972.79        53.12003
973.17        53.01984
973.56        53.50377
973.95        54.40908
974.33        55.39003
974.72        56.13902
975.11         56.7184
975.49        56.93466
975.88        56.49344
976.26         55.4237
976.65         53.8824
977.04        52.18954
977.42        50.93843
977.81        50.36143
978.19        50.27668
978.58        50.70931
978.96        51.64242
979.35         52.9158
979.74        54.62944
980.12        56.25371
980.51        56.62111
980.89        55.66567
981.28        53.68383
981.66        51.72433
982.05        51.24759
982.43        52.45521
982.82        54.87402
983.20        57.70319
983.59        59.17313
983.97        58.81858
984.35         57.1073
984.74         54.8657
985.12        53.29525
985.51        52.77775
985.89        52.87761
986.28        53.35469
986.66        53.75766
987.04        53.80756
987.43        53.78197
987.81        53.44954
988.20         52.3767
988.58        50.41637
988.96        47.36547
989.35        43.84973
989.73        41.90506
990.12        42.62305
990.50        45.41404
990.88         48.6082
991.27        50.27805
991.65        50.36864
992.03        49.38488
992.42        48.14757
992.80         48.1579
993.18        49.85496
993.56        52.40489
993.95        55.00917
994.33        57.06875
994.71        58.20653
995.10        58.71085
995.48        58.55845
995.86        57.54768
996.24        55.73227
996.63        53.14403
997.01        50.15416
997.39        48.10114
997.77        47.65837
998.15        48.46358
998.54        49.91954
998.92        51.37792
999.30        52.69637
999.68        54.20596
1000.06         55.3834
1000.45        54.71061
1000.83        52.00356
1001.21        48.19548
1001.59        44.87825
1001.97        43.18753
1002.35        42.91943
1002.73        43.72577
1003.12        45.09333
1003.50        45.75996
1003.88        45.14791
1004.26        43.77725
1004.64        42.11199
1005.02        40.75564
1005.40        39.91583
1005.78         39.2766
1006.16        39.25288
1006.54        40.60798
1006.92        42.99031
1007.30        45.69912
1007.69        47.71302
1008.07        48.18716
1008.45        46.83165
1008.83        43.53442
1009.21        37.72541
1009.59        30.20819
1009.97         23.2707
1010.35        18.19653
1010.73        16.71607
1011.11        19.24739
1011.49        24.69541
1011.86        32.55479
1012.24        39.64751
1012.62        43.06154
1013.00        42.63367
1013.38        39.40057
1013.76        35.00616
1014.14        32.41698
1014.52        32.56932
1014.90         34.5774
1015.28        37.31133
1015.66        38.87534
1016.04        38.55125
1016.41        36.84452
1016.79        34.21215
1017.17        31.78022
1017.55         30.4106
1017.93        29.85002
1018.31        29.70482
1018.69        29.59089
1019.06        29.28106
1019.44        28.49104
1019.82         27.5097
1020.20        26.90647
1020.58        26.84515
1020.95        27.34581
1021.33        26.94403
1021.71        22.48227
1022.09        11.60699
1022.46        -11.4244
1022.84       -48.42265
1023.22       -65.24683
1023.60       -37.88167
1023.97       -2.696063
1024.35        18.49038
1024.73         26.6455
