SpectraSmart Spectrum 2.9.0.0
--------- Device Information -----------
Spectrum Name :  反射率_0
Saving Time :  2024/04/20 00:16:03
Spectro-Module Model Name : SE2030-DUVN
Spectro-Module Serial Number : OS361AC55029948
Wavelength Start : 200
Wavelength End : 1025
Wavelength Unit : Wavelength(nm)
Spectrum Unit : Reflectance(%)
-----------Spectrum Setting ------------
Integration Time : 30ms
Average : 10
Boxcar : 0
Background removal :  enabled
linearity correction :  enabled
SC :  disabled
Intensity correction :  disabled
DWT denoise :  enabled
savitzky-golay :  disabled
FFT :  disabled
Running average :  disabled
Kalman :  disabled
High pass :  disabled
---------------BEGIN--------------------
Wavelength(nm)             Reflectance(%)
200.29               0
200.75        60.17645
201.21        62.21059
201.67        66.77455
202.13         72.7914
202.58         79.2626
203.04        86.25362
203.50        91.57852
203.96        90.63528
204.42        84.35894
204.88        76.52055
205.34         69.5756
205.80        63.98693
206.26        58.66692
206.72         52.0026
207.18        44.36887
207.64        41.45999
208.10        47.97503
208.55        61.23012
209.01        72.92629
209.47        77.17824
209.93        74.90399
210.39         68.7224
210.85        61.63655
211.31        56.68656
211.77         54.1754
212.23        53.05878
212.69        53.06481
213.14        53.67059
213.60         54.0545
214.06        55.01329
214.52        56.27806
214.98        57.83319
215.44        59.77164
215.90         61.7949
216.36        64.16151
216.81        67.03524
217.27        69.79667
217.73        72.31445
218.19        73.19621
218.65        70.50683
219.11        64.00567
219.57          53.821
220.02        42.10092
220.48        35.11988
220.94         35.2268
221.40        41.54472
221.86        50.36562
222.32        55.64557
222.77        55.84378
223.23        52.90022
223.69        49.50828
224.15        49.47341
224.61        52.72223
225.06        57.00386
225.52        60.55799
225.98        62.13145
226.44        61.74471
226.90        60.10549
227.36        57.70182
227.81         55.3065
228.27         53.6981
228.73         52.6431
229.19        52.08636
229.65        51.92498
230.10        52.00932
230.56        52.33278
231.02        52.82974
231.48        53.44588
231.93        54.06499
232.39        54.66015
232.85        54.98189
233.31        54.69529
233.77         53.7742
234.22        52.35006
234.68        50.74351
235.14        49.44341
235.60        48.68544
236.05         48.4189
236.51         48.5691
236.97        48.97802
237.43         49.6309
237.88        50.78158
238.34        52.37362
238.80          54.312
239.26        56.17176
239.71        57.58765
240.17         58.2748
240.63        58.60686
241.08        58.83538
241.54        58.90603
242.00        58.53304
242.46        56.99095
242.91        53.80841
243.37        48.21329
243.83        40.96708
244.28        37.83076
244.74         43.8609
245.20        57.34341
245.66         69.6115
246.11        73.81758
246.57        69.45257
247.03        56.63854
247.48        38.12702
247.94        31.25023
248.40        39.41925
248.85        50.87964
249.31        59.37783
249.77        63.35008
250.22        63.91778
250.68        62.46933
251.14        59.63674
251.59        56.69278
252.05         54.8091
252.51        53.87124
252.96        53.23201
253.42        52.06413
253.88        50.40182
254.33        48.81633
254.79        49.11447
255.25        52.75245
255.70        58.97184
256.16        66.24423
256.62         72.1472
257.07        74.02948
257.53        72.18412
257.99        67.88659
258.44        62.71513
258.90        59.42735
259.35        57.92294
259.81        57.69108
260.27        57.50264
260.72        56.32648
261.18        54.44059
261.63        51.90719
262.09        49.76601
262.55         48.9306
263.00         49.3132
263.46        50.50115
263.91        51.40851
264.37        51.04057
264.83        49.39523
265.28         46.9042
265.74        44.61483
266.19        43.54623
266.65        43.85405
267.11        44.96373
267.56        46.15359
268.02        46.38673
268.47        45.47599
268.93        43.80515
269.38        41.78598
269.84        40.30245
270.30        39.59771
270.75        39.41536
271.21        39.47001
271.66         39.3355
272.12        38.86604
272.57        38.18941
273.03         37.4596
273.48        36.81193
273.94         36.3347
274.39        35.94096
274.85         35.5294
275.31         34.9274
275.76        34.10256
276.22        33.14678
276.67        32.23428
277.13        31.72219
277.58        31.59212
278.04        31.75117
278.49         31.8661
278.95        31.53203
279.40        30.66853
279.86        29.51361
280.31        28.31256
280.77        27.54911
281.22        27.24112
281.68        27.25223
282.13        27.35472
282.59        27.25319
283.04        26.87159
283.50        26.35372
283.95        25.78788
284.41        25.33018
284.86        25.00477
285.32         24.7759
285.77        24.62172
286.22        24.58131
286.68        24.63315
287.13        24.74285
287.59        24.84546
288.04         24.8195
288.50        24.66252
288.95         24.3802
289.41        24.05226
289.86           23.73
290.32        23.48599
290.77        23.30002
291.22        23.19763
291.68        23.17884
292.13        23.24623
292.59        23.41671
293.04        23.69234
293.50        24.08658
293.95        24.58005
294.40        25.14471
294.86        25.74508
295.31        26.33979
295.77        26.91552
296.22        27.48464
296.68        28.03525
297.13        28.52788
297.58        28.97668
298.04        29.40202
298.49        29.87179
298.95        30.53113
299.40          31.378
299.85        32.35089
300.31        33.33826
300.76        34.16562
301.21        34.78643
301.67        35.27917
302.12        35.66064
302.58        36.01845
303.03        36.36774
303.48        36.70964
303.94        37.11338
304.39        37.64529
304.84         38.3113
305.30        39.06956
305.75        39.80454
306.20        40.35957
306.66        40.71512
307.11        40.90253
307.57        40.99006
308.02         41.0083
308.47        41.01218
308.93        40.98796
309.38        40.98801
309.83        41.14583
310.29        41.46209
310.74        41.89723
311.19        42.29305
311.65        42.39188
312.10        42.14421
312.55        41.63488
313.00        41.05511
313.46        40.70136
313.91        40.62902
314.36        40.76548
314.82        40.96227
315.27        41.00171
315.72        40.81074
316.18        40.47457
316.63        40.08691
317.08        39.79749
317.53        39.64035
317.99        39.55234
318.44        39.47121
318.89        39.29027
319.35        38.98554
319.80        38.60596
320.25        38.20109
320.70        37.84689
321.16        37.56079
321.61        37.31487
322.06         37.0921
322.51        36.87154
322.97        36.63005
323.42        36.38291
323.87        36.09064
324.32        35.69411
324.78        35.18452
325.23        34.59436
325.68         33.9841
326.13        33.46556
326.59        33.07813
327.04        32.82342
327.49        32.65994
327.94        32.51634
328.39        32.36221
328.85        32.18905
329.30        32.05173
329.75        31.99444
330.20        32.01719
330.66        32.07288
331.11        32.09753
331.56         31.9406
332.01        31.57232
332.46        31.03218
332.92        30.43256
333.37        29.97797
333.82        29.73527
334.27        29.67489
334.72        29.69841
335.17        29.62801
335.63        29.40175
336.08        29.07475
336.53        28.75578
336.98        28.63699
337.43         28.7541
337.88        29.04102
338.34         29.3033
338.79         29.2761
339.24         28.8843
339.69        28.21282
340.14        27.49445
340.59        27.11907
341.05        27.17226
341.50        27.54126
341.95        27.99366
342.40        28.16751
342.85        27.97854
343.30        27.55662
343.75         27.0586
344.20        26.73814
344.66        26.66479
345.11        26.71835
345.56        26.84639
346.01        26.96894
346.46        27.03671
346.91        27.09258
347.36        27.04992
347.81        26.76271
348.26        26.23958
348.72        25.55707
349.17        24.88183
349.62        24.57295
350.07        24.70868
350.52         25.1654
350.97        25.75078
351.42        26.17231
351.87        26.33637
352.32        26.31665
352.77        26.15148
353.22        25.90863
353.67         25.6304
354.13        25.30964
354.58        24.96751
355.03         24.6831
355.48        24.48109
355.93        24.36524
356.38        24.31645
356.83         24.2889
357.28        24.25882
357.73         24.2201
358.18        24.17138
358.63         24.1156
359.08        24.04669
359.53        23.96062
359.98        23.82129
360.43        23.57598
360.88        23.22975
361.33        22.81188
361.78         22.4058
362.23        22.14674
362.68        22.06075
363.13         22.0957
363.58        22.17277
364.03        22.16757
364.48        22.03963
364.93        21.82513
365.38        21.53572
365.83        21.19788
366.28        20.83994
366.73        20.45935
367.18        20.10876
367.63        19.87117
368.08        19.75589
368.53        19.73931
368.98        19.75712
369.43        19.70038
369.88        19.54444
370.33        19.32687
370.78        19.07981
371.23        18.86385
371.68        18.70455
372.13        18.57295
372.58        18.49452
373.03          18.514
373.48        18.61876
373.93        18.78558
374.38        18.91811
374.83        18.86785
375.28        18.61043
375.72        18.18537
376.17        17.71231
376.62        17.34845
377.07        17.15035
377.52         17.0772
377.97        17.08753
378.42        17.11166
378.87         17.1189
379.32        17.12642
379.77        17.13227
380.22        17.12916
380.67         17.1148
381.11        17.08612
381.56        17.02426
382.01        16.92365
382.46        16.78532
382.91        16.60804
383.36        16.43258
383.81        16.31665
384.26         16.2701
384.71        16.28956
385.15        16.30117
385.60        16.19223
386.05        15.94959
386.50        15.60897
386.95        15.29363
387.40        15.19706
387.85        15.34565
388.29        15.66463
388.74        15.99654
389.19        16.12052
389.64        15.99372
390.09        15.67971
390.54         15.3115
390.98        15.09718
391.43        15.10222
391.88        15.24754
392.33        15.40727
392.78        15.40174
393.23        15.20862
393.67         14.8922
394.12        14.59094
394.57        14.43923
395.02        14.46271
395.47        14.61093
395.91         14.7977
396.36        14.85776
396.81        14.75314
397.26        14.53405
397.71        14.29667
398.15         14.1685
398.60        14.19361
399.05         14.3187
399.50        14.45772
399.95        14.48957
400.39        14.38899
400.84        14.19115
401.29        13.98547
401.74        13.93265
402.18        14.07466
402.63         14.3459
403.08        14.62073
403.53        14.70291
403.97        14.55369
404.42        14.24963
404.87        13.91216
405.32        13.74005
405.76        13.78253
406.21         13.9705
406.66        14.21152
407.11        14.36219
407.55        14.38109
408.00        14.31677
408.45        14.20642
408.90        14.07627
409.34        13.96641
409.79        13.93147
410.24        13.94447
410.68        13.90734
411.13        13.81827
411.58        13.74049
412.03        13.68903
412.47        13.66733
412.92        13.67655
413.37        13.70314
413.81        13.75634
414.26         13.8641
414.71        14.01696
415.15         14.2142
415.60        14.37198
416.05        14.37987
416.49        14.21735
416.94        13.92539
417.39        13.61538
417.83        13.46816
418.28        13.53035
418.73        13.74035
419.17        13.99472
419.62        14.11706
420.07        14.07087
420.51        13.91658
420.96         13.7276
421.41        13.60069
421.85        13.56133
422.30        13.58137
422.74        13.63996
423.19        13.73551
423.64        13.84944
424.08        13.99303
424.53        14.11652
424.98        14.15405
425.42        14.09383
425.87        13.95772
426.31          13.788
426.76        13.66078
427.21        13.59095
427.65        13.55655
428.10        13.56906
428.54        13.62056
428.99        13.70382
429.44        13.87859
429.88        14.06399
430.33        14.03667
430.77        13.84114
431.22        13.75216
431.66        13.80503
432.11         13.8956
432.56        14.00254
433.00        14.19435
433.45        14.33449
433.89        14.23409
434.34        13.99594
434.78        13.75856
435.23        13.51713
435.67        14.18177
436.12        13.76822
436.57        13.75108
437.01        13.59047
437.46        13.52882
437.90         13.5736
438.35        13.61198
438.79        13.62101
439.24        13.62721
439.68        13.62646
440.13        13.50105
440.57        13.33017
441.02        13.45591
441.46        13.75041
441.91         13.7916
442.35        13.25659
442.80        13.07353
443.24        13.10786
443.69        13.07165
444.13         12.9527
444.58        12.88266
445.02        12.86927
445.47        12.91185
445.91        12.97616
446.36        12.97748
446.80        12.89855
447.24        12.77958
447.69        12.65819
448.13        12.56171
448.58        12.50865
449.02        12.49016
449.47        12.48272
449.91        12.44299
450.36        12.36847
450.80        12.27113
451.25        12.19331
451.69        12.18472
452.13        12.25575
452.58        12.37734
453.02        12.50741
453.47         12.5804
453.91        12.58111
454.36        12.52724
454.80        12.44104
455.24         12.3621
455.69        12.31239
456.13        12.26917
456.58        12.24255
457.02        12.24018
457.46        12.25947
457.91        12.27096
458.35        12.27292
458.79         12.2886
459.24        12.31312
459.68        12.33649
460.13        12.38854
460.57        12.39442
461.01        12.34249
461.46        12.57498
461.90        12.60408
462.34        12.43901
462.79        12.49884
463.23        12.36244
463.68        12.25184
464.12        12.19761
464.56        12.30922
465.01        12.48026
465.45        12.64586
465.89        12.72452
466.34        12.70559
466.78        12.57526
467.22         12.4035
467.67        12.39275
468.11        12.52876
468.55        12.54911
468.99         12.4564
469.44        12.45777
469.88        12.55446
470.32         12.6255
470.77        12.64395
471.21        12.63286
471.65        12.58954
472.10        12.50975
472.54        12.42577
472.98        12.42155
473.42        12.50743
473.87        12.62092
474.31        12.72654
474.75        12.84458
475.20         12.9358
475.64        12.87754
476.08        12.72918
476.52        12.69483
476.97        12.79206
477.41        12.93133
477.85        13.06211
478.29        13.14103
478.74        13.15254
479.18        13.08822
479.62        13.01019
480.06        13.01839
480.50        13.11369
480.95        13.20558
481.39        13.25826
481.83        13.27874
482.27        13.26296
482.72        13.21508
483.16        13.16766
483.60        13.17276
484.04        13.24558
484.48        13.41083
484.93        13.67653
485.37         13.8308
485.81        14.02044
486.25        14.35021
486.69        14.92803
487.14        14.51828
487.58        14.44841
488.02         14.8354
488.46         14.5457
488.90        14.56651
489.34        14.47729
489.79        14.59341
490.23        14.85425
490.67        15.07992
491.11        15.20707
491.55        15.14256
491.99        14.93907
492.43        14.83606
492.88        14.87515
493.32        14.90605
493.76        14.94723
494.20         15.0994
494.64        15.36222
495.08        15.69702
495.52        16.04641
495.96        16.33272
496.41        16.53227
496.85         16.6335
497.29        16.67161
497.73        16.78665
498.17        16.97237
498.61        17.04328
499.05        17.02264
499.49        17.12173
499.93         17.3547
500.37        17.56894
500.82        17.74529
501.26        17.99879
501.70        18.27601
502.14        18.34048
502.58        18.23185
503.02        18.22434
503.46        18.34143
503.90           18.44
504.34        18.49791
504.78        18.54159
505.22        18.56712
505.66        18.57847
506.10        18.58713
506.54        18.60659
506.98        18.64465
507.42        18.69948
507.86        18.77828
508.30        18.89165
508.74        19.03415
509.18        19.19441
509.62        19.35214
510.06         19.4753
510.50         19.5565
510.94        19.60934
511.38        19.63324
511.82        19.62986
512.26        19.60706
512.70        19.56282
513.14        19.53586
513.58        19.58357
514.02        19.70524
514.46        19.88524
514.90        20.06045
515.34        20.07085
515.78         19.9235
516.22        19.73447
516.66        19.59782
517.10        19.31471
517.54        18.91199
517.98        19.52535
518.42        19.43556
518.86        19.71239
519.30        19.82262
519.74        19.93904
520.18        20.03123
520.62        20.02921
521.06         19.9478
521.50        19.78959
521.93        19.60319
522.37        19.47919
522.81        19.43914
523.25        19.46169
523.69        19.51173
524.13        19.53131
524.57        19.50154
525.01        19.43766
525.45        19.35698
525.89         19.2857
526.32        19.23203
526.76        19.19082
527.20        19.14387
527.64        19.06801
528.08        18.96006
528.52        18.82619
528.96        18.70231
529.40        18.64049
529.83        18.64669
530.27        18.70883
530.71        18.76611
531.15        18.72418
531.59        18.56886
532.03        18.33249
532.46        18.09021
532.90        17.97638
533.34        18.00935
533.78        18.14147
534.22        18.29688
534.66        18.35896
535.09        18.29495
535.53         18.1511
535.97        17.96814
536.41        17.80685
536.85        17.69366
537.28         17.6212
537.72        17.59533
538.16        17.57123
538.60         17.6298
539.04        17.69491
539.47        17.77418
539.91        17.88339
540.35        18.02748
540.79        18.04697
541.22        18.16845
541.66        18.25546
542.10        18.39247
542.54        18.28415
542.97        18.43341
543.41         18.5306
543.85        18.71153
544.29        18.91944
544.72        19.10622
545.16        19.25242
545.60        19.34475
546.04        19.33479
546.47        19.30728
546.91        19.51872
547.35        19.92927
547.79        20.26353
548.22        20.46562
548.66        20.59025
549.10        20.66883
549.53         20.8534
549.97        21.15316
550.41        21.19396
550.84        21.36971
551.28        21.47012
551.72        21.64318
552.15         21.8644
552.59         22.1356
553.03        22.45018
553.46        22.74783
553.90        22.95913
554.34        23.06934
554.77        23.09974
555.21        23.10581
555.65          23.165
556.08        23.29369
556.52        23.46621
556.96        23.64862
557.39        23.81886
557.83        23.95608
558.27         24.0141
558.70        24.01884
559.14        24.05772
559.57        24.13501
560.01        24.23825
560.45        24.33916
560.88        24.36438
561.32        24.35903
561.75        24.39731
562.19        24.57095
562.63        24.67253
563.06         24.7219
563.50        24.78553
563.93        24.86347
564.37        25.00197
564.80        25.08712
565.24        25.21968
565.68        25.34101
566.11        25.45582
566.55        25.58192
566.98        25.64572
567.42        25.66008
567.85        26.02888
568.29        26.05663
568.72        26.39467
569.16        26.77458
569.60        27.06972
570.03        27.24546
570.47        27.36968
570.90        27.34192
571.34        27.72372
571.77        27.64047
572.21        27.90671
572.64        28.26275
573.08        28.26225
573.51        28.46646
573.95        28.87814
574.38        29.29377
574.82        29.53994
575.25        29.52928
575.69        29.44702
576.12        29.52254
576.56        29.44079
576.99        29.34595
577.42        29.40725
577.86        29.65284
578.29        29.63085
578.73        30.38108
579.16        29.88182
579.60        29.71454
580.03         29.4335
580.47        29.34723
580.90        28.93083
581.33        28.95605
581.77        28.93279
582.20        29.29203
582.64         29.1114
583.07         28.8048
583.51        28.72614
583.94        28.26797
584.37        27.92193
584.81        27.52503
585.24        27.45808
585.68        27.62123
586.11        27.58621
586.54        27.59566
586.98        27.28691
587.41        27.11433
587.85        27.06103
588.28          27.193
588.71        27.07031
589.15        26.72372
589.58        26.54107
590.01          26.494
590.45         26.8147
590.88        26.80595
591.31        26.73562
591.75        26.42859
592.18         26.4205
592.61        26.16428
593.05        26.60176
593.48        26.59787
593.91        27.26553
594.35        27.09129
594.78        27.17224
595.21        27.43439
595.65        27.69404
596.08        27.60838
596.51        27.58014
596.94        27.55838
597.38        27.66976
597.81        27.99838
598.24        28.12428
598.68        28.85243
599.11        29.17169
599.54         30.1165
599.97         29.9863
600.41        30.09164
600.84         30.8784
601.27        31.22825
601.70        31.81544
602.14         32.1838
602.57        32.57621
603.00        33.01261
603.43        33.60813
603.87        34.15508
604.30        34.69079
604.73        35.17522
605.16        35.40268
605.60        35.81148
606.03        36.38505
606.46        37.06653
606.89        37.84639
607.32        38.29117
607.76        38.44756
608.19        39.00409
608.62        39.69719
609.05        39.76046
609.48        40.04193
609.92        40.69644
610.35          40.446
610.78        41.43826
611.21        42.35346
611.64        42.13479
612.07        42.29908
612.50        42.88563
612.94        42.88877
613.37        43.45852
613.80        43.85147
614.23        44.34681
614.66        44.75747
615.09        45.06992
615.52        45.55016
615.96        46.04987
616.39        46.48631
616.82        46.94484
617.25        46.34966
617.68        46.91833
618.11        47.28905
618.54        47.69281
618.97         47.7421
619.40        47.39288
619.84        47.54642
620.27        47.28461
620.70        47.80524
621.13        48.62712
621.56        48.89131
621.99        48.71503
622.42        48.81853
622.85        49.27027
623.28        49.50525
623.71        49.49355
624.14        49.53572
624.57        49.60851
625.00        49.15452
625.43        49.49939
625.86        48.87837
626.29        48.87654
626.72        48.60804
627.15         48.4458
627.58        48.32088
628.01        48.17131
628.44        47.95193
628.87        47.64175
629.30        47.18277
629.73        46.62754
630.16        46.42132
630.59        46.15628
631.02        45.82951
631.45        45.32697
631.88        44.89148
632.31        44.51857
632.74        44.06471
633.17        43.52953
633.60        42.97374
634.03        42.40687
634.46        41.82461
634.89        41.22915
635.32        40.61587
635.75        39.99563
636.18        39.39003
636.61        38.81609
637.04        38.28821
637.47        37.80648
637.89        37.36451
638.32        36.95119
638.75        36.56965
639.18        36.21825
639.61        35.90241
640.04        35.59367
640.47        35.24463
640.90        34.85118
641.33        34.42787
641.76        34.03504
642.18        33.77532
642.61        33.66441
643.04        33.67389
643.47         33.7361
643.90        33.73855
644.33        33.65279
644.76        33.51487
645.18        33.38038
645.61        33.34331
646.04        33.43457
646.47        33.62634
646.90        33.88885
647.33        34.19621
647.75        34.53826
648.18        34.85714
648.61        35.16943
649.04        35.66102
649.47        36.25972
649.89        36.57968
650.32        36.70871
650.75        37.14022
651.18        37.90098
651.61        38.66245
652.03        39.38508
652.46        40.20018
652.89        41.03059
653.32         41.6169
653.74        42.00594
654.17        42.48752
654.60        43.25064
655.03        44.44165
655.46        44.13235
655.88         45.8195
656.31        47.13081
656.74        55.01833
657.16        54.01438
657.59        51.12069
658.02        50.27184
658.45        49.47478
658.87        50.18956
659.30        50.55549
659.73        51.58268
660.15         52.3532
660.58        52.28185
661.01        52.22811
661.44        52.18196
661.86        52.58886
662.29        53.39258
662.72        54.22717
663.14        54.90207
663.57        55.06795
664.00        54.88526
664.42          55.037
664.85        55.59639
665.27        56.10793
665.70        56.48486
666.13        56.84201
666.55        57.16195
666.98        57.40762
667.41        57.60011
667.83        57.77242
668.26        57.92613
668.69        58.06001
669.11        58.19412
669.54        58.33244
669.96        58.48605
670.39        58.73168
670.82        59.03478
671.24        59.17706
671.67        59.24524
672.09        59.52286
672.52        60.09251
672.94        60.52797
673.37        60.76301
673.80         60.6459
674.22        60.32959
674.65        60.28808
675.07        60.59104
675.50        60.96828
675.92        61.30141
676.35        61.47663
676.77        61.46023
677.20        61.30127
677.62        61.10939
678.05        61.06792
678.47        61.21443
678.90        61.48859
679.32        61.83233
679.75        62.13731
680.17        62.35874
680.60        62.58961
681.02        62.80692
681.45        62.80726
681.87        62.67852
682.30        62.76044
682.72        63.04589
683.15        63.21077
683.57        63.25425
684.00        63.30015
684.42        63.49411
684.85        63.68122
685.27        63.89177
685.70        64.14189
686.12        64.36422
686.54        64.50762
686.97        64.57799
687.39        64.46909
687.82        64.24155
688.24        64.39853
688.66        64.93093
689.09        64.59399
689.51        64.78259
689.94         64.7646
690.36        64.96721
690.78        65.04189
691.21        65.00237
691.63         65.1515
692.06        65.51144
692.48        65.51674
692.90        65.75253
693.33          66.202
693.75        65.93721
694.17        66.04466
694.60        66.18053
695.02        66.14156
695.44        65.95428
695.87        65.97795
696.29        66.17359
696.71        66.14371
697.14        66.08498
697.56        66.11162
697.98        67.05499
698.41        67.73487
698.83        67.32658
699.25        67.09816
699.68        66.96306
700.10        66.85947
700.52        66.85979
700.94        66.98318
701.37        67.17347
701.79        67.36729
702.21        67.50941
702.64        67.61872
703.06         67.7159
703.48        67.84364
703.90        68.01229
704.33        68.20151
704.75        68.36036
705.17        68.36906
705.59        68.21207
706.01        67.96106
706.44         67.7534
706.86        67.71169
707.28        67.89862
707.70        68.46163
708.12         69.1927
708.55        69.48386
708.97        69.32066
709.39        69.20141
709.81        69.19424
710.23        69.10016
710.66        68.96268
711.08        68.93129
711.50        69.00884
711.92        69.13428
712.34        69.29944
712.76         69.5323
713.19        69.75813
713.61        69.91109
714.03        69.95456
714.45        69.87017
714.87         69.7288
715.29         69.7756
715.71        70.06631
716.13        70.06425
716.56        70.48601
716.98        70.69894
717.40         70.6878
717.82        70.63009
718.24        70.54424
718.66        70.54362
719.08        70.64608
719.50        70.82017
719.92        71.00558
720.34        71.10263
720.76        71.08922
721.19        71.00175
721.61        70.89365
722.03        70.81175
722.45         70.7991
722.87        70.82357
723.29        70.89268
723.71        71.00067
724.13        71.14128
724.55        71.34244
724.97        71.57391
725.39        71.72658
725.81        71.80896
726.23        71.94598
726.65        72.13992
727.07        72.29011
727.49        72.39393
727.91         72.5193
728.33        72.63498
728.75        72.65283
729.17        72.57033
729.59        72.42402
730.01        72.27845
730.43        72.24519
730.85         72.3504
731.27        72.52349
731.69        72.71241
732.10        72.94931
732.52        73.09872
732.94        73.08095
733.36        72.91972
733.78        72.82762
734.20        72.85635
734.62         72.8999
735.04        72.90227
735.46        72.92516
735.88        72.96925
736.30         72.5967
736.72        72.56733
737.13        72.70628
737.55        73.11575
737.97        73.60131
738.39         74.0585
738.81        73.75193
739.23        72.94076
739.65        72.69068
740.06        73.02111
740.48        73.45119
740.90        73.81476
741.32        73.31905
741.74        73.12627
742.16        72.97507
742.57        73.24222
742.99        73.42432
743.41        73.48956
743.83         73.5849
744.25        73.68182
744.67        73.73556
745.08         73.7302
745.50        73.61488
745.92        73.40516
746.34        73.12176
746.75         72.8485
747.17        72.69344
747.59        72.68787
748.01        72.87804
748.42         73.1785
748.84        73.30376
749.26        73.29917
749.68        73.37102
750.09        73.55554
750.51        73.95828
750.93        74.36832
751.35        74.21049
751.76        73.64444
752.18        73.24006
752.60         73.1668
753.01        73.80271
753.43        73.42582
753.85        73.59581
754.27        73.77856
754.68         74.0349
755.10        74.26771
755.52        74.23505
755.93        74.00719
756.35        73.92094
756.77        74.02609
757.18        74.12347
757.60        74.25212
758.02         74.4811
758.43        74.70173
758.85         74.8791
759.26        75.25907
759.68        74.56721
760.10          74.631
760.51        74.53371
760.93        74.08431
761.34        73.61815
761.76        74.29639
762.18        74.05489
762.59        73.46089
763.01        73.30022
763.42           73.68
763.84        74.15081
764.26        74.57319
764.67        74.47456
765.09        74.10855
765.50        74.55737
765.92        75.62791
766.33         75.9831
766.75        75.46854
767.16        74.89798
767.58        74.43158
768.00        73.91599
768.41        73.60995
768.83        74.02209
769.24        74.92738
769.66        75.58601
770.07        75.78097
770.49        75.44557
770.90        74.83424
771.32        74.88923
771.73           75.54
772.15        75.67812
772.56        75.28967
772.97        75.11254
773.39        75.13517
773.80        75.02097
774.22        74.72556
774.63        74.29723
775.05         73.8755
775.46        73.77718
775.88        74.02705
776.29        74.53279
776.70        75.06787
777.12        75.30544
777.53        75.16487
777.95        74.73593
778.36        74.24715
778.77        74.00674
779.19        74.16474
779.60        74.86321
780.02        75.73193
780.43        76.21635
780.84        76.21836
781.26        75.42673
781.67        74.33555
782.09        75.10724
782.50        77.22038
782.91        77.24268
783.33        75.30134
783.74        75.21308
784.15        75.69354
784.57         76.2612
784.98        76.27437
785.39        75.92776
785.81        75.31718
786.22        74.96981
786.63        74.99197
787.04        75.01135
787.46         75.0519
787.87        75.38468
788.28         75.9108
788.70        76.28492
789.11        76.43894
789.52        76.47353
789.93        76.43584
790.35        76.41325
790.76        76.42603
791.17        76.35796
791.58        76.22306
792.00        76.09169
792.41        75.94634
792.82        75.81411
793.23        75.61687
793.65        75.11293
794.06         74.6554
794.47        74.84853
794.88          75.484
795.29        77.38642
795.71        77.39406
796.12        77.37879
796.53        77.25886
796.94        76.27533
797.35        75.09132
797.76        75.04152
798.18        76.01012
798.59        76.38999
799.00        76.06087
799.41        76.05997
799.82        76.40866
800.23         76.5952
800.64          76.591
801.06        76.50304
801.47        76.41545
801.88        76.40061
802.29        76.46947
802.70         76.5576
803.11        76.61237
803.52        76.54356
803.93        76.34924
804.34        76.15762
804.75        75.97923
805.17        75.72365
805.58        75.52663
805.99        75.45784
806.40        75.62814
806.81        76.28135
807.22        77.75374
807.63         77.6022
808.04          76.338
808.45        76.06647
808.86        76.95284
809.27        77.79713
809.68        78.29848
810.09        78.53904
810.50        78.40066
810.91        77.86121
811.32        77.17133
811.73        76.66592
812.14        76.43964
812.55        76.63046
812.96        77.02459
813.37        76.73233
813.78        75.91694
814.19        75.81719
814.60        76.37215
815.01        76.62547
815.42        76.48709
815.83        76.27153
816.24        76.10159
816.65        76.16032
817.05        76.49195
817.46        76.89964
817.87         77.2393
818.28        77.32442
818.69        77.13468
819.10        76.73067
819.51        76.28299
819.92        76.23781
820.33        76.71974
820.74        77.20313
821.14        77.62328
821.55        78.75957
821.96        80.11555
822.37        79.66745
822.78        77.77406
823.19        76.91507
823.60        77.34617
824.00        77.75269
824.41        77.87148
824.82        77.98579
825.23        78.02118
825.64         77.9364
826.04        77.83418
826.45        77.82458
826.86        77.94947
827.27        78.14412
827.68        78.34916
828.08        78.55705
828.49        78.64941
828.90        78.52931
829.31         78.2658
829.72        78.12249
830.12        78.16477
830.53        78.23792
830.94        78.28428
831.35        78.22693
831.75        78.06929
832.16        77.79859
832.57         77.5319
832.97        77.44023
833.38        77.54103
833.79        77.77663
834.20        78.03851
834.60        78.15141
835.01        78.08779
835.42        77.90981
835.82        77.67657
836.23        77.43104
836.64        77.23026
837.04        77.05284
837.45        76.94377
837.86        77.02463
838.26        77.31804
838.67        77.76244
839.08         78.2148
839.48        78.38213
839.89        78.19448
840.29        77.76794
840.70        77.33551
841.11        77.17107
841.51        77.35857
841.92        77.74572
842.33        78.29919
842.73        78.96168
843.14        79.56815
843.54        80.19871
843.95        80.62196
844.35        80.55084
844.76        79.97374
845.17         79.0125
845.57        78.01117
845.98        77.52315
846.38        77.66988
846.79        78.29867
847.19        79.20235
847.60        79.84081
848.00        80.08486
848.41        80.01061
848.81        79.81436
849.22        79.71735
849.62        79.83586
850.03        80.03996
850.43        80.27407
850.84        80.34283
851.24        80.26106
851.65        80.04405
852.05        79.86016
852.46        79.87493
852.86          80.127
853.27        80.47829
853.67        80.76025
854.07         81.0584
854.48        81.21729
854.88        80.88601
855.29        80.15294
855.69        79.73135
856.10        79.65058
856.50        79.68245
856.90        79.70631
857.31        79.67796
857.71        79.63958
858.12        79.56478
858.52        79.53858
858.92        79.57066
859.33        79.64598
859.73        79.77446
860.13        79.95575
860.54        80.20588
860.94        80.56023
861.34        80.94781
861.75         81.1958
862.15        81.13662
862.55        80.70751
862.96        80.01334
863.36        79.23978
863.76        78.66467
864.17        78.38982
864.57        78.36653
864.97         78.5703
865.38        78.93157
865.78        79.44352
866.18        80.04387
866.58        80.57208
866.99        80.74625
867.39        80.53865
867.79        79.98737
868.19        79.16505
868.60        78.18736
869.00        77.11046
869.40        75.97665
869.80        75.03931
870.21        74.69723
870.61        75.07316
871.01        75.98926
871.41        77.04702
871.81        77.59641
872.22         77.4887
872.62        76.92751
873.02         76.1142
873.42        75.56585
873.82        75.27303
874.22         74.6665
874.63        73.99509
875.03        73.88554
875.43        74.41654
875.83        76.23946
876.23        76.67683
876.63         76.5653
877.03        75.40659
877.44        73.29896
877.84        125.0982
878.24        72.97578
878.64        74.25993
879.04        77.75893
879.44        75.35356
879.84        73.77859
880.24        76.85899
880.64        76.43816
881.04        73.37295
881.44        71.42052
881.84        71.28877
882.24        72.32271
882.65        73.85577
883.05        74.64371
883.45        74.26659
883.85        73.38765
884.25        72.50095
884.65        72.10361
885.05        72.35072
885.45        73.02735
885.85        73.82825
886.25        74.28397
886.65        74.24198
887.05        73.86795
887.45        73.37559
887.85        73.06173
888.25        73.02724
888.65        73.19975
889.04        73.47991
889.44        73.63154
889.84        73.61479
890.24        73.46272
890.64         73.3288
891.04        73.44456
891.44        73.81027
891.84        74.31498
892.24        74.67007
892.64        74.39798
893.04        73.46301
893.44        72.14912
893.83        70.77541
894.23         69.8144
894.63        69.36801
895.03        69.27117
895.43        69.53939
895.83        70.19854
896.23        71.15374
896.63        72.36827
897.02        73.47463
897.42        73.79074
897.82        73.20853
898.22        71.95409
898.62        70.49267
899.01        69.55422
899.41        69.37269
899.81        69.71544
900.21         70.4274
900.61        71.26078
901.00        72.07365
901.40        72.90015
901.80        73.60871
902.20        73.95636
902.59         73.9025
902.99         73.4874
903.39        72.83285
903.79        72.18084
904.18        71.63583
904.58        71.19695
904.98        70.96497
905.38        71.07832
905.77        71.52216
906.17        72.27733
906.57        73.06286
906.96        73.45339
907.36        73.31478
907.76        72.73208
908.15         72.0472
908.55        71.77219
908.95        72.04507
909.34        72.75774
909.74        73.48238
910.14        73.47552
910.53        72.57687
910.93        71.10265
911.33        69.67619
911.72         69.2753
912.12        70.04969
912.52        71.59515
912.91        73.29915
913.31        74.14375
913.70        73.92576
914.10        72.93759
914.49        71.49592
914.89        70.32412
915.29        69.74512
915.68        69.56329
916.08        69.73627
916.47        70.18634
916.87         70.7912
917.26         71.5501
917.66        72.27361
918.05        72.67083
918.45         72.6422
918.84        72.31541
919.24        71.68481
919.64        70.78504
920.03        69.72672
920.42        68.55487
920.82        67.70383
921.21        67.77747
921.61        68.79299
922.00        70.60332
922.40        72.50716
922.79         73.5788
923.19        73.53975
923.58        72.43178
923.98         70.6936
924.37        69.79636
924.77         70.2981
925.16        68.71157
925.55        70.46313
925.95        70.47216
926.34        70.33109
926.74        70.03487
927.13        69.89767
927.52        70.16814
927.92        70.83911
928.31        71.87476
928.70        72.90435
929.10        73.32147
929.49        72.97255
929.89        72.03579
930.28        71.00217
930.67         70.6581
931.07        71.16196
931.46        72.31651
931.85        73.61919
932.24        74.33158
932.64        74.25278
933.03        73.50941
933.42        72.45435
933.82        71.81847
934.21        71.79261
934.60        72.16512
934.99        72.36475
935.39        71.84375
935.78        70.54307
936.17         68.1497
936.56        64.99181
936.96        65.52629
937.35        64.83627
937.74        66.74504
938.13         68.8361
938.53        70.36989
938.92        71.23394
939.31        71.70129
939.70        71.89166
940.09         71.8706
940.49        71.72762
940.88        71.43554
941.27        71.16091
941.66        71.20804
942.05        71.61357
942.44         72.2914
942.84        73.09193
943.23        73.75255
943.62        74.14822
944.01        74.38011
944.40        74.37212
944.79        74.01116
945.18        73.31878
945.57        72.29372
945.97        71.31459
946.36        71.01849
946.75        71.58897
947.14        72.78963
947.53        74.05973
947.92        74.61831
948.31        74.33141
948.70         73.4476
949.09        72.32436
949.48        71.59793
949.87        71.48026
950.26        71.76022
950.65        72.25589
951.04        72.66931
951.43         72.8727
951.82        72.97647
952.21        72.95215
952.60        72.73746
952.99        72.35291
953.38        71.79934
953.77        71.21679
954.16        70.84774
954.55        70.74471
954.94        70.86018
955.33        71.05953
955.72        71.09681
956.11        70.91385
956.50        70.59466
956.89        70.25449
957.28        70.11619
957.66        70.26125
958.05        70.52026
958.44        70.84209
958.83        71.16607
959.22        71.45141
959.61        71.73103
960.00        71.85115
960.39        71.54334
960.78        70.78751
961.16        69.66161
961.55         68.5532
961.94        67.93113
962.33        67.90697
962.72        68.37671
963.11        69.03716
963.49         69.3682
963.88        69.13815
964.27        68.52478
964.66        67.84665
965.04        67.63429
965.43        68.00439
965.82         68.7935
966.21        69.65907
966.60        70.05698
966.98        69.86791
967.37        69.24283
967.76        68.55411
968.15        68.37203
968.53        68.84132
968.92        69.69269
969.31        70.59891
969.69         71.0206
970.08        70.74786
970.47        69.99581
970.86        68.97733
971.24        67.99738
971.63        67.25093
972.02        66.69044
972.40        66.30288
972.79        66.08953
973.17        66.05741
973.56        66.10826
973.95        66.36619
974.33         66.9974
974.72        67.84635
975.11        68.82854
975.49        69.49931
975.88        69.18471
976.26        67.83096
976.65        65.72928
977.04        63.43787
977.42        61.93319
977.81        61.54516
978.19        61.98188
978.58        63.01609
978.96         64.2431
979.35        65.36034
979.74        66.56809
980.12        67.55601
980.51        67.53474
980.89         66.5595
981.28        64.80715
981.66        63.09516
982.05         62.6021
982.43         63.4682
982.82        65.32017
983.20        67.54597
983.59        68.70306
983.97        68.43888
984.35        67.10772
984.74        65.33313
985.12        64.00249
985.51        63.40268
985.89        63.22531
986.28        63.34903
986.66        63.62973
987.04        63.88004
987.43        64.25918
987.81        64.44872
988.20        64.00513
988.58        62.78721
988.96        60.64701
989.35        58.05732
989.73        56.65211
990.12        57.24889
990.50        59.48419
990.88        61.91007
991.27        62.84836
991.65        62.27338
992.03        60.59272
992.42        58.91291
992.80        59.31787
993.18        62.25614
993.56        66.64931
993.95         70.9556
994.33        73.51089
994.71        73.84977
995.10        72.61294
995.48        70.50504
995.86        68.46984
996.24        66.87504
996.63         65.4836
997.01        64.27373
997.39        63.41839
997.77        63.02417
998.15        63.11599
998.54        63.63515
998.92        64.46873
999.30        65.61785
999.68        67.26237
1000.06        68.72923
1000.45        68.13748
1000.83        65.18268
1001.21        60.93759
1001.59        57.33381
1001.97         55.7948
1002.35        56.12053
1002.73        57.94023
1003.12        60.35004
1003.50        61.26601
1003.88        59.73309
1004.26          56.526
1004.64        52.96191
1005.02        50.83302
1005.40        50.60875
1005.78        51.76821
1006.16        53.99476
1006.54        56.43556
1006.92        58.29883
1007.30        59.56271
1007.69        60.17442
1008.07        60.29321
1008.45        59.90976
1008.83        58.95053
1009.21        56.81149
1009.59        52.74844
1009.97        47.15499
1010.35        41.06999
1010.73        37.35709
1011.11         38.5094
1011.49         43.9005
1011.86        52.35896
1012.24        60.11625
1012.62        63.46211
1013.00        62.17984
1013.38        57.69527
1013.76        52.10839
1014.14        49.13454
1014.52        49.87865
1014.90        53.10111
1015.28        57.24094
1015.66        59.71887
1016.04        59.58133
1016.41        57.62837
1016.79        54.08514
1017.17        50.08068
1017.55        46.85395
1017.93        44.30635
1018.31        42.90245
1018.69        43.06798
1019.06        44.54071
1019.44        47.10292
1019.82        50.00857
1020.20        51.12622
1020.58        49.53792
1020.95        45.81082
1021.33        40.92405
1021.71        35.47093
1022.09        28.86489
1022.46         18.0757
1022.84        3.487515
1023.22       0.1004826
1023.60        14.95327
1023.97        31.50997
1024.35        40.82354
1024.73        44.07799
