SpectraSmart Spectrum 2.9.0.0
--------- Device Information -----------
Spectrum Name :  反射率_0
Saving Time :  2024/04/20 00:03:01
Spectro-Module Model Name : SE2030-DUVN
Spectro-Module Serial Number : OS361AC55029948
Wavelength Start : 200
Wavelength End : 1025
Wavelength Unit : Wavelength(nm)
Spectrum Unit : Reflectance(%)
-----------Spectrum Setting ------------
Integration Time : 30ms
Average : 10
Boxcar : 0
Background removal :  enabled
linearity correction :  enabled
SC :  disabled
Intensity correction :  disabled
DWT denoise :  enabled
savitzky-golay :  disabled
FFT :  disabled
Running average :  disabled
Kalman :  disabled
High pass :  disabled
---------------BEGIN--------------------
Wavelength(nm)             Reflectance(%)
200.29               0
200.75        59.52604
201.21         58.6983
201.67        59.47041
202.13        63.53423
202.58        71.61287
203.04         83.9602
203.50        96.63818
203.96         99.7496
204.42         92.6772
204.88        81.61987
205.34        72.00537
205.80        66.40678
206.26        63.86753
206.72        62.98274
207.18        63.65415
207.64        65.24538
208.10        66.78061
208.55        68.95364
209.01        69.97174
209.47        69.10444
209.93        66.82074
210.39        63.45773
210.85        60.41924
211.31        59.40674
211.77        60.59232
212.23        63.87375
212.69        68.36595
213.14        70.24765
213.60        67.70296
214.06        63.75768
214.52        60.66044
214.98        59.59587
215.44        60.23784
215.90        61.82642
216.36        64.32111
216.81        67.28666
217.27        69.94948
217.73        72.45791
218.19        73.74817
218.65        72.38507
219.11        68.21346
219.57        61.09579
220.02        52.77894
220.48        48.52757
220.94        50.04398
221.40        56.58228
221.86        64.40627
222.32        67.60971
222.77        65.00063
223.23        58.71318
223.69        52.47314
224.15        51.50451
224.61        55.62893
225.06        61.83033
225.52        67.25912
225.98        69.58006
226.44        68.84323
226.90        66.14903
227.36        62.64367
227.81        60.26778
228.27        59.98345
228.73        60.91408
229.19        62.28912
229.65        63.23945
230.10        63.55125
230.56        63.62514
231.02        63.67324
231.48        63.96484
231.93        64.47034
232.39        65.08624
232.85        65.51439
233.31        65.38257
233.77        64.63291
234.22        63.39162
234.68        62.00538
235.14        60.99257
235.60        60.54984
236.05        60.59233
236.51        60.87638
236.97        60.97204
237.43        60.77987
237.88        60.56036
238.34         60.3648
238.80         60.9381
239.26        62.49933
239.71        64.57278
240.17        66.63936
240.63        68.62193
241.08        70.53216
241.54        72.43929
242.00         73.5668
242.46        72.30243
242.91        67.87865
243.37         59.0429
243.83        46.76719
244.28        40.13287
244.74          47.416
245.20        66.08074
245.66        84.24706
246.11        92.45442
246.57        90.18667
247.03        78.52276
247.48        58.50888
247.94        45.15203
248.40         45.9684
248.85        52.01833
249.31        57.80096
249.77         61.7004
250.22        64.20165
250.68        66.50716
251.14        68.79279
251.59        70.49204
252.05        71.37482
252.51        71.42786
252.96        70.30857
253.42        68.18871
253.88        65.77943
254.33        63.57356
254.79        63.37397
255.25        66.58987
255.70        72.49205
256.16        79.59752
256.62        86.03912
257.07        89.76371
257.53        90.79651
257.99        89.88478
258.44        87.18063
258.90        83.92982
259.35        80.54344
259.81         77.9621
260.27        75.98563
260.72        74.41338
261.18        73.39727
261.63        72.36171
262.09        71.87833
262.55        72.11258
263.00        72.78588
263.46        73.86043
263.91        74.38488
264.37        73.66794
264.83        71.72989
265.28        68.90452
265.74        66.28562
266.19        64.85395
266.65        64.82324
267.11        65.62637
267.56        66.53712
268.02        66.54459
268.47        65.43377
268.93        63.58385
269.38        61.39598
269.84        59.74853
270.30        58.87719
270.75        58.51042
271.21        58.35827
271.66        57.96123
272.12        57.18606
272.57        56.18113
273.03         55.1077
273.48        54.09591
273.94        53.26485
274.39        52.50567
274.85        51.80966
275.31        51.10018
275.76        50.32108
276.22        49.52631
276.67        48.71941
277.13        48.04806
277.58        47.45705
278.04        46.97227
278.49        46.40314
278.95        45.59459
279.40         44.4964
279.86        43.28615
280.31        42.10427
280.77        41.33043
281.22        40.92894
281.68        40.81651
282.13        40.77371
282.59        40.54626
283.04        40.05592
283.50        39.44494
283.95        38.77828
284.41         38.2149
284.86        37.76828
285.32        37.42031
285.77        37.16135
286.22        37.06455
286.68        37.11539
287.13        37.24968
287.59        37.38326
288.04        37.33848
288.50        37.11164
288.95        36.71497
289.41        36.25338
289.86        35.80572
290.32        35.46599
290.77        35.20873
291.22        35.05874
291.68         35.0129
292.13        35.06868
292.59        35.25622
293.04        35.59027
293.50        36.11331
293.95         36.8017
294.40        37.61802
294.86        38.49664
295.31        39.34788
295.77        40.14772
296.22        40.91813
296.68        41.67144
297.13        42.41202
297.58        43.15921
298.04        43.91599
298.49        44.72002
298.95        45.67963
299.40         46.7797
299.85        47.97757
300.31        49.18626
300.76        50.24966
301.21        51.13732
301.67        51.93264
302.12         52.6349
302.58        53.34053
303.03        54.04681
303.48        54.75235
303.94        55.54068
304.39        56.48178
304.84        57.57942
305.30        58.79052
305.75        59.93382
306.20        60.77236
306.66        61.28604
307.11        61.52243
307.57        61.65422
308.02        61.84309
308.47        62.17015
308.93        62.57375
309.38        62.99806
309.83        63.43217
310.29         63.8514
310.74        64.26854
311.19        64.59236
311.65        64.66483
312.10        64.46149
312.55        64.02953
313.00        63.56303
313.46        63.36577
313.91         63.4766
314.36        63.82561
314.82        64.19408
315.27        64.25191
315.72        63.90829
316.18        63.29816
316.63        62.60418
317.08        62.12988
317.53        61.94621
317.99          61.942
318.44        62.00185
318.89        61.92249
319.35        61.64037
319.80        61.23108
320.25        60.75094
320.70        60.28841
321.16        59.86904
321.61        59.46574
322.06        59.06636
322.51        58.66733
322.97        58.25279
323.42        57.84572
323.87        57.42624
324.32        56.96263
324.78        56.44464
325.23        55.91196
325.68        55.37162
326.13        54.85192
326.59         54.3674
327.04        53.93702
327.49        53.58475
327.94        53.35986
328.39        53.25167
328.85        53.20406
329.30        53.18642
329.75        53.05729
330.20        52.77635
330.66         52.3623
331.11        51.87427
331.56         51.3392
332.01        50.78625
332.46        50.21041
332.92        49.66402
333.37         49.2704
333.82         49.0503
334.27        48.99974
334.72        49.03108
335.17        48.98239
335.63        48.78903
336.08        48.49809
336.53        48.19439
336.98        48.05428
337.43        48.11158
337.88        48.30857
338.34        48.47428
338.79        48.38631
339.24        47.97616
339.69         47.3182
340.14        46.61887
340.59        46.22239
341.05        46.20723
341.50        46.47945
341.95        46.82593
342.40         46.9139
342.85        46.66901
343.30         46.2082
343.75        45.69118
344.20        45.37888
344.66        45.33399
345.11        45.42895
345.56         45.5839
346.01        45.67474
346.46        45.64616
346.91        45.56118
347.36        45.35799
347.81        44.92691
348.26         44.2905
348.72        43.51375
349.17        42.77624
349.62        42.45142
350.07        42.61042
350.52        43.11692
350.97        43.74505
351.42        44.15196
351.87        44.23102
352.32        44.06946
352.77        43.72438
353.22        43.29622
353.67        42.84853
354.13        42.38066
354.58        41.91544
355.03        41.54114
355.48        41.28286
355.93        41.13761
356.38        41.09702
356.83        41.12912
357.28        41.20176
357.73        41.29891
358.18        41.35883
358.63        41.29042
359.08        41.07218
359.53        40.72791
359.98        40.30813
360.43        39.89354
360.88        39.51446
361.33         39.1597
361.78        38.83459
362.23        38.54548
362.68        38.29256
363.13        38.07802
363.58        37.88533
364.03        37.68105
364.48          37.449
364.93         37.1879
365.38        36.89426
365.83        36.57327
366.28        36.23395
366.73        35.87978
367.18        35.52878
367.63        35.20644
368.08        34.92152
368.53        34.67577
368.98         34.4553
369.43        34.23143
369.88        33.99686
370.33        33.75846
370.78        33.53149
371.23        33.34533
371.68        33.20605
372.13        33.09686
372.58        33.00182
373.03        32.89949
373.48        32.77428
373.93        32.62289
374.38        32.43734
374.83        32.20334
375.28        31.92026
375.72        31.59155
376.17        31.24447
376.62        30.88275
377.07         30.5301
377.52        30.19941
377.97        29.93859
378.42        29.81504
378.87        29.82889
379.32        29.94618
379.77        30.09878
380.22         30.1842
380.67        30.17233
381.11        30.08929
381.56        29.94495
382.01        29.78611
382.46        29.62979
382.91        29.45542
383.36        29.27747
383.81         29.1179
384.26        28.97952
384.71        28.87387
385.15        28.75576
385.60        28.56102
386.05        28.28336
386.50        27.94654
386.95        27.63905
387.40        27.50076
387.85        27.55074
388.29        27.72794
388.74        27.92871
389.19        27.98304
389.64        27.85327
390.09        27.57763
390.54        27.25103
390.98        27.01822
391.43        26.94098
391.88        26.96729
392.33        26.99712
392.78        26.88593
393.23        26.62542
393.67        26.26119
394.12        25.95361
394.57        25.83626
395.02        25.93199
395.47        26.18772
395.91        26.49764
396.36        26.64512
396.81        26.58006
397.26        26.35978
397.71         26.1004
398.15        25.95765
398.60        25.99512
399.05        26.14096
399.50        26.29865
399.95        26.33192
400.39        26.21353
400.84        25.98491
401.29        25.73852
401.74        25.63966
402.18        25.73606
402.63        25.96177
403.08         26.1988
403.53         26.2589
403.97        26.10385
404.42        25.81144
404.87         25.4948
405.32        25.34015
405.76        25.39061
406.21        25.57986
406.66        25.82116
407.11        25.97958
407.55         26.0176
408.00        25.98711
408.45        25.91331
408.90        25.77096
409.34        25.60743
409.79        25.54826
410.24        25.57183
410.68        25.53713
411.13        25.44581
411.58        25.38717
412.03         25.3649
412.47        25.34814
412.92        25.33035
413.37        25.31377
413.81        25.31883
414.26        25.39387
414.71        25.53397
415.15        25.73228
415.60        25.90119
416.05         25.9325
416.49        25.80227
416.94        25.54772
417.39        25.26683
417.83        25.11635
418.28        25.14184
418.73        25.29197
419.17        25.48024
419.62        25.56367
420.07          25.512
420.51         25.3724
420.96        25.21915
421.41        25.13997
421.85        25.15013
422.30        25.23127
422.74        25.33926
423.19        25.45217
423.64          25.546
424.08         25.6405
424.53        25.70813
424.98         25.7396
425.42        25.73901
425.87        25.71079
426.31        25.65527
426.76        25.58379
427.21        25.49018
427.65        25.36427
428.10        25.26215
428.54        25.24314
428.99        25.32367
429.44        25.59539
429.88        25.89025
430.33        25.77988
430.77        25.34358
431.22         25.1044
431.66        25.14321
432.11        25.28799
432.56        25.49936
433.00        25.91076
433.45        26.27498
433.89        26.15369
434.34          25.706
434.78        25.49561
435.23        24.98076
435.67        26.25008
436.12        25.48209
436.57        25.42249
437.01         25.1017
437.46        25.02558
437.90        25.22252
438.35        25.45676
438.79        25.64248
439.24        25.75578
439.68        25.77152
440.13        25.49204
440.57        25.09555
441.02        25.27542
441.46        25.80725
441.91         25.8833
442.35        24.89979
442.80        24.58872
443.24        24.70138
443.69        24.69574
444.13        24.54176
444.58        24.46333
445.02        24.47314
445.47        24.57156
445.91        24.70972
446.36        24.75089
446.80        24.67069
447.24        24.54203
447.69         24.4149
448.13        24.31731
448.58         24.2743
449.02        24.26893
449.47        24.28568
449.91        24.28946
450.36        24.27671
450.80        24.25584
451.25        24.23981
451.69        24.22317
452.13        24.21496
452.58        24.20703
453.02         24.2073
453.47        24.23765
453.91        24.29716
454.36        24.37455
454.80        24.44083
455.24        24.44305
455.69        24.38106
456.13        24.25233
456.58        24.11026
457.02        24.02092
457.46        23.99578
457.91        23.95905
458.35        23.90937
458.79        23.91086
459.24        23.95226
459.68        24.02415
460.13        24.15187
460.57        24.14938
461.01        23.98179
461.46        24.32333
461.90        24.26926
462.34        23.94791
462.79        24.14015
463.23        24.04522
463.68        23.99682
464.12        23.92372
464.56        24.01125
465.01        24.10818
465.45        24.19287
465.89        24.24433
466.34        24.26138
466.78         24.2011
467.22        24.11209
467.67        24.16437
468.11        24.33196
468.55        24.34092
468.99        24.20749
469.44        24.18044
469.88         24.2687
470.32        24.33015
470.77        24.34008
471.21        24.32927
471.65        24.29709
472.10        24.23859
472.54        24.17402
472.98        24.18111
473.42        24.26645
473.87        24.33745
474.31        24.38397
474.75        24.54379
475.20        24.75898
475.64        24.76012
476.08        24.60588
476.52        24.60697
476.97        24.77794
477.41         24.9693
477.85        25.11587
478.29        25.18704
478.74        25.17228
479.18        25.04353
479.62        24.90371
480.06        24.91882
480.50        25.08558
480.95        25.24084
481.39        25.33419
481.83        25.40594
482.27        25.44611
482.72        25.44058
483.16        25.42446
483.60        25.44101
484.04        25.49688
484.48        25.68885
484.93         26.0502
485.37        26.12593
485.81        26.26622
486.25        26.89932
486.69        27.92064
487.14        27.41521
487.58        26.89053
488.02        27.59416
488.46        27.20869
488.90        27.33374
489.34         27.1228
489.79        27.36998
490.23        27.93581
490.67        28.15723
491.11        28.04859
491.55        27.99546
491.99        28.05457
492.43        28.10808
492.88         28.1774
493.32        28.31405
493.76        28.52163
494.20        28.76909
494.64        29.04444
495.08        29.39012
495.52        29.74503
495.96        29.93096
496.41        29.98662
496.85        30.11263
497.29         30.3305
497.73        30.59688
498.17        30.87844
498.61        31.03978
499.05        31.10664
499.49        31.30255
499.93        31.63963
500.37        31.93056
500.82        32.15686
501.26        32.45757
501.70        32.78477
502.14        32.88449
502.58        32.80045
503.02        32.82491
503.46        32.98516
503.90        33.13614
504.34        33.23919
504.78        33.29487
505.22        33.29547
505.66        33.25443
506.10        33.22103
506.54        33.24456
506.98        33.33773
507.42         33.5308
507.86        33.80078
508.30        33.86514
508.74        34.08892
509.18        34.17405
509.62        34.25581
510.06        34.35843
510.50        34.49322
510.94        34.64561
511.38        34.78276
511.82        34.86544
512.26        34.88397
512.70        34.85032
513.14        34.81014
513.58        34.82837
514.02        34.91159
514.46        35.04647
514.90        35.17952
515.34        35.14962
515.78        35.01001
516.22        34.82407
516.66        34.68774
517.10        34.44432
517.54        34.11729
517.98         34.6249
518.42          34.568
518.86        34.81384
519.30        34.92518
519.74        35.03987
520.18        35.12606
520.62        35.11613
521.06        35.02177
521.50         34.8515
521.93        34.65192
522.37         34.5091
522.81        34.44675
523.25        34.44477
523.69        34.48032
524.13        34.51425
524.57        34.52841
525.01         34.5301
525.45        34.51529
525.89        34.47606
526.32        34.41253
526.76        34.33029
527.20        34.22863
527.64        34.11479
528.08        33.99324
528.52        33.85828
528.96         33.7374
529.40        33.66953
529.83        33.65453
530.27         33.6913
530.71        33.71363
531.15        33.61916
531.59        33.39865
532.03        33.09217
532.46         32.7912
532.90        32.66236
533.34        32.72622
533.78        32.91999
534.22         33.1558
534.66        33.29821
535.09        33.30199
535.53        33.22113
535.97        33.07698
536.41        32.90029
536.85        32.71639
537.28        32.53413
537.72        32.40253
538.16        32.30216
538.60         32.4006
539.04        32.54291
539.47        32.70889
539.91        32.87807
540.35        33.05047
540.79        32.95195
541.22         33.0445
541.66        33.15133
542.10        33.43739
542.54        33.34298
542.97        33.72076
543.41        33.90473
543.85         34.1238
544.29        34.30413
544.72         34.4311
545.16        34.58124
545.60        34.75016
546.04        34.81305
546.47         34.8522
546.91         35.2157
547.35        35.80913
547.79        36.18438
548.22        36.30404
548.66        36.35743
549.10        36.41823
549.53        36.71968
549.97         37.2553
550.41        37.33971
550.84        37.64946
551.28        37.81984
551.72        38.08615
552.15        38.35981
552.59        38.64704
553.03        38.95518
553.46        39.22655
553.90        39.41904
554.34        39.52051
554.77         39.5465
555.21        39.56305
555.65        39.65646
556.08        39.83838
556.52        40.08197
556.96        40.33242
557.39        40.53658
557.83         40.6714
558.27        40.69761
558.70        40.65926
559.14        40.66106
559.57        40.74483
560.01        40.87174
560.45        41.02304
560.88        41.07108
561.32         41.0813
561.75        41.23952
562.19        41.64703
562.63        41.71743
563.06        41.55014
563.50        41.62815
563.93        41.91816
564.37        42.15084
564.80        42.12225
565.24        42.20307
565.68        42.33044
566.11        42.44968
566.55        42.59066
566.98        42.69976
567.42        42.77121
567.85        43.17295
568.29        43.15786
568.72        43.49384
569.16        43.92245
569.60        44.26478
570.03        44.45904
570.47        44.73793
570.90         44.8784
571.34        45.24389
571.77        44.87487
572.21        45.54214
572.64        45.76475
573.08        46.11981
573.51        46.17018
573.95        46.61556
574.38        46.95833
574.82        47.31784
575.25        47.47332
575.69        47.40984
576.12        47.17662
576.56        47.03322
576.99         46.9948
577.42         47.3285
577.86        47.55148
578.29        47.06884
578.73        48.05906
579.16        47.82998
579.60        47.39807
580.03        46.81621
580.47        46.99886
580.90        46.42471
581.33        46.74042
581.77         46.5881
582.20        47.27052
582.64        46.92152
583.07        46.57962
583.51        46.45984
583.94        45.90273
584.37        45.48342
584.81        45.06921
585.24        45.04066
585.68        45.28136
586.11        45.14439
586.54        45.09958
586.98        44.67979
587.41        44.69596
587.85        44.73198
588.28        44.87143
588.71        44.71157
589.15         44.3358
589.58        43.77846
590.01        43.91591
590.45        44.24497
590.88        44.53866
591.31        44.40281
591.75        43.73538
592.18        43.74894
592.61        43.55979
593.05        43.94679
593.48        43.80555
593.91        45.08406
594.35        44.68213
594.78        44.65778
595.21        44.88794
595.65        45.33924
596.08        45.36653
596.51        45.47542
596.94        45.53422
597.38        45.58376
597.81        45.70984
598.24        46.17834
598.68        46.88666
599.11         47.1293
599.54         48.2591
599.97        48.06353
600.41        48.24116
600.84        48.58504
601.27        49.39855
601.70        49.96364
602.14        50.29574
602.57        50.76257
603.00        51.38034
603.43        51.80261
603.87        52.05901
604.30        52.55476
604.73        53.28881
605.16        53.37268
605.60        53.89321
606.03        54.38323
606.46        54.93198
606.89        56.04272
607.32        56.41573
607.76        56.37439
608.19        56.84238
608.62         57.6067
609.05        57.61034
609.48        57.90799
609.92        58.29738
610.35        57.95274
610.78         59.2848
611.21        60.15448
611.64        59.60408
612.07        60.08046
612.50        60.30295
612.94        60.31529
613.37        60.74636
613.80        61.04415
614.23        61.49014
614.66        61.72633
615.09        62.23249
615.52        62.72046
615.96        63.18116
616.39        63.53604
616.82        63.86704
617.25        63.33236
617.68         63.7184
618.11        64.03754
618.54        64.63051
618.97        64.61471
619.40        64.05021
619.84        64.06712
620.27        63.70318
620.70        64.28088
621.13        65.23276
621.56        65.44833
621.99        65.07661
622.42        65.08324
622.85        65.58898
623.28        65.83978
623.71        65.71704
624.14        66.06377
624.57         65.5455
625.00        65.16191
625.43        65.54909
625.86        64.89475
626.29        64.93435
626.72        64.76151
627.15        64.89261
627.58        64.72971
628.01        64.63617
628.44        64.86201
628.87        64.72137
629.30         63.6992
629.73        63.43853
630.16        63.37084
630.59        62.94502
631.02        62.66361
631.45        62.22275
631.88        61.85515
632.31        61.53188
632.74        61.13885
633.17        60.67513
633.60        60.18667
634.03        59.68256
634.46        59.15289
634.89         58.6101
635.32        58.07547
635.75        57.56164
636.18        57.07474
636.61        56.62178
637.04        56.20475
637.47        55.81705
637.89        55.45998
638.32        55.11032
638.75        54.75338
639.18        54.38699
639.61        54.04532
640.04        53.72792
640.47        53.32299
640.90        53.00445
641.33         52.6516
641.76        52.35352
642.18         52.1672
642.61        52.09332
643.04        52.11522
643.47        52.17458
643.90        52.17557
644.33        52.09696
644.76        51.97557
645.18        51.85537
645.61        51.80571
646.04        51.85451
646.47        51.98215
646.90        52.19272
647.33        52.48875
647.75        52.85735
648.18        53.29411
648.61        53.75796
649.04        54.15538
649.47        54.48074
649.89        54.80672
650.32        55.15475
650.75        55.52663
651.18        55.99259
651.61        56.54676
652.03        57.22729
652.46        58.31561
652.89        59.56321
653.32        60.16739
653.74        59.74184
654.17        60.25774
654.60        60.98418
655.03        62.27383
655.46         61.6259
655.88        63.53569
656.31        65.37141
656.74        72.61295
657.16        71.60566
657.59        68.26591
658.02        67.32075
658.45        66.54391
658.87        67.33073
659.30        67.55792
659.73        67.97154
660.15        69.26183
660.58        68.70885
661.01        68.56968
661.44        68.26392
661.86        68.55453
662.29        69.36506
662.72        70.17602
663.14        70.78382
663.57        70.81612
664.00        70.45617
664.42        70.44916
664.85        70.87752
665.27        71.22878
665.70        71.43943
666.13        71.69764
666.55        71.99271
666.98        72.25614
667.41        72.48193
667.83        72.65562
668.26        72.76175
668.69        72.84239
669.11        72.92976
669.54        73.00738
669.96        73.08047
670.39        73.40801
670.82        73.51295
671.24        73.79924
671.67        74.10592
672.09        74.38387
672.52        74.58949
672.94        74.76041
673.37          74.848
673.80        74.60491
674.22        74.17599
674.65        73.99323
675.07        74.17379
675.50         74.4603
675.92        74.76227
676.35        74.94705
676.77        74.97274
677.20        74.88457
677.62        74.75577
678.05        74.71229
678.47        74.78547
678.90        74.94061
679.32        75.13866
679.75        75.32696
680.17        75.47969
680.60        75.60709
681.02        75.72601
681.45        75.83442
681.87        75.94733
682.30        76.08115
682.72        76.20712
683.15        76.20739
683.57        76.13434
684.00        76.07841
684.42        76.14761
684.85        76.42859
685.27        76.52126
685.70        76.84782
686.12         77.1734
686.54        77.35876
686.97        77.39636
687.39        77.17902
687.82        76.80384
688.24        76.93382
688.66        77.55235
689.09        77.06892
689.51        77.21293
689.94        77.12173
690.36        77.31725
690.78         77.4859
691.21        77.60661
691.63        77.66058
692.06        77.73504
692.48        77.94868
692.90         77.6478
693.33        78.15656
693.75        77.92866
694.17        78.10258
694.60        78.23453
695.02        78.10904
695.44        77.75881
695.87         77.7818
696.29         78.1003
696.71        77.76777
697.14        77.10325
697.56        77.43292
697.98        78.46304
698.41        79.56396
698.83        79.10056
699.25        78.58144
699.68        78.73313
700.10        78.59642
700.52        78.53545
700.94        78.57319
701.37        78.67039
701.79        78.78547
702.21        78.86532
702.64        78.86916
703.06        78.93848
703.48        79.04228
703.90        79.22517
704.33         79.4548
704.75        79.66248
705.17        79.69562
705.59        79.52952
706.01        79.23234
706.44        78.92725
706.86        78.87778
707.28        79.11074
707.70        79.57023
708.12        80.09238
708.55        80.33876
708.97        80.27971
709.39         80.1758
709.81         80.0756
710.23        79.92522
710.66        79.78024
711.08        79.67762
711.50        79.63126
711.92        79.77494
712.34        80.04572
712.76        80.15703
713.19        80.60796
713.61        80.80182
714.03        80.86206
714.45        80.78899
714.87        80.67191
715.29        80.68848
715.71        80.87527
716.13        81.00572
716.56        81.31432
716.98        81.46929
717.40        81.50581
717.82        81.44946
718.24        81.36282
718.66        81.33701
719.08        81.39291
719.50        81.50219
719.92        81.61204
720.34         81.6401
720.76        81.57218
721.19        81.43301
721.61        81.28677
722.03        81.21091
722.45        81.25454
722.87         81.3017
723.29        81.46043
723.71        81.58527
724.13        81.69984
724.55        81.82007
724.97        81.94428
725.39        82.05933
725.81        82.15412
726.23         82.2494
726.65        82.38033
727.07        82.50728
727.49        82.62751
727.91         83.0903
728.33        83.17205
728.75        83.30995
729.17        83.28553
729.59        83.15848
730.01        82.97372
730.43         82.8377
730.85        82.79519
731.27        82.74907
731.69        82.72368
732.10        82.92001
732.52        83.24882
732.94        83.33949
733.36        83.16852
733.78        83.12341
734.20        83.29411
734.62        83.14872
735.04        82.79065
735.46         83.1442
735.88        83.37895
736.30            82.3
736.72        82.73434
737.13        83.16148
737.55        83.64529
737.97         84.1507
738.39        84.31344
738.81        84.00204
739.23        83.42735
739.65        83.22076
740.06         83.3392
740.48        83.97855
740.90        84.16294
741.32        83.56648
741.74        83.11346
742.16        83.07092
742.57        83.35468
742.99          83.772
743.41        84.07081
743.83        84.28722
744.25         84.3592
744.67        84.22696
745.08        84.04869
745.50        83.84304
745.92        83.69215
746.34        83.55266
746.75        83.41663
747.17        83.30448
747.59        83.23757
748.01        83.12257
748.42        83.18149
748.84         83.2434
749.26        83.39886
749.68        83.33846
750.09        83.21173
750.51         83.7963
750.93        84.73421
751.35        84.74741
751.76        84.05498
752.18         82.9757
752.60        83.51417
753.01        83.76225
753.43        83.38108
753.85        83.41088
754.27        83.58621
754.68        84.10609
755.10        84.30795
755.52        84.43601
755.93        84.31074
756.35        84.00743
756.77        83.69244
757.18        83.64382
757.60        83.95834
758.02        84.45432
758.43        84.90128
758.85        85.28642
759.26        85.53912
759.68        84.73943
760.10        84.51189
760.51        84.21129
760.93        84.46912
761.34        83.57501
761.76        84.57596
762.18        84.03467
762.59        83.14837
763.01        83.14691
763.42        84.10039
763.84        84.80461
764.26        85.04918
764.67        84.99271
765.09        84.81975
765.50        85.06063
765.92        85.62868
766.33         85.6721
766.75        85.13011
767.16        84.70572
767.58        84.47392
768.00        84.20946
768.41        84.07487
768.83         84.3617
769.24        84.95728
769.66        85.61901
770.07        86.09689
770.49        85.84789
770.90        85.11135
771.32         85.1039
771.73        85.76123
772.15        85.90269
772.56        85.52101
772.97        85.24628
773.39         85.1241
773.80        85.20388
774.22        85.33495
774.63        84.94234
775.05        84.20756
775.46         84.0425
775.88        84.49675
776.29        85.13889
776.70        85.68895
777.12        85.91298
777.53        85.72967
777.95        85.17504
778.36         84.5173
778.77        84.21751
779.19        84.39671
779.60        84.98534
780.02        85.65826
780.43        86.10335
780.84        86.23237
781.26        85.66538
781.67        84.85372
782.09         85.7112
782.50        87.73566
782.91        87.98069
783.33         86.5806
783.74        86.19337
784.15        86.89447
784.57        87.30087
784.98        87.21603
785.39        86.63618
785.81        85.75951
786.22        85.43639
786.63        85.66991
787.04        85.73672
787.46        85.64264
787.87        85.77077
788.28        86.05974
788.70        86.60316
789.11        86.56937
789.52        86.73017
789.93        86.85481
790.35        86.84605
790.76        86.73509
791.17        86.75759
791.58        86.93605
792.00         86.8613
792.41        86.40244
792.82        86.72021
793.23        86.04081
793.65        85.41122
794.06        84.75162
794.47        85.30685
794.88        86.61026
795.29        88.17098
795.71        87.41372
796.12        87.02434
796.53        87.35539
796.94        86.76759
797.35        85.83689
797.76         85.7809
798.18        86.53486
798.59        87.04749
799.00        87.12463
799.41        87.06303
799.82         86.9384
800.23        86.93789
800.64        87.08793
801.06         87.1385
801.47        87.11553
801.88        87.12405
802.29        87.15446
802.70        87.16534
803.11        87.13058
803.52        86.92156
803.93        86.53893
804.34        86.22672
804.75          86.113
805.17        85.50967
805.58        86.03535
805.99        86.10266
806.40        86.19015
806.81        87.03654
807.22        88.26649
807.63        88.13459
808.04        86.92487
808.45        86.68618
808.86        87.57784
809.27        88.48256
809.68        89.11293
810.09        89.48549
810.50        89.47348
810.91        89.08238
811.32        88.49447
811.73        87.97218
812.14        87.60942
812.55        87.44608
812.96        87.42336
813.37        87.20604
813.78        86.87057
814.19        86.95552
814.60        87.36863
815.01        87.56216
815.42        87.49979
815.83        87.35702
816.24        87.36514
816.65        87.35373
817.05        87.41476
817.46        87.51405
817.87        87.64555
818.28        87.74068
818.69        87.79311
819.10        87.81728
819.51        87.88416
819.92        88.14657
820.33        88.61578
820.74        89.12369
821.14        89.55505
821.55        89.92355
821.96        90.08919
822.37        89.61642
822.78        88.70164
823.19        88.12843
823.60        88.02782
824.00         88.0737
824.41        88.12321
824.82        88.19507
825.23        88.24097
825.64        88.27741
826.04        88.34583
826.45        88.45668
826.86        88.62211
827.27        88.81236
827.68        88.98828
828.08        89.12876
828.49         89.1518
828.90        89.09877
829.31        88.99728
829.72        88.89989
830.12        88.84621
830.53        88.78895
830.94        88.72537
831.35         88.6097
831.75        88.46544
832.16        88.27838
832.57        88.10696
832.97        88.02351
833.38        88.02063
833.79        88.06575
834.20        88.15686
834.60        88.28286
835.01        88.44592
835.42        88.66655
835.82        88.85291
836.23        88.78844
836.64        88.47215
837.04        87.95034
837.45          87.463
837.86        87.45596
838.26         88.0294
838.67        89.02226
839.08        90.07162
839.48        90.49258
839.89           90.11
840.29        89.18201
840.70        88.17693
841.11         87.6922
841.51        87.89159
841.92        88.51393
842.33         89.4018
842.73        90.28567
843.14        90.90746
843.54        91.42473
843.95        91.65961
844.35        91.41769
844.76        90.72874
845.17        89.68822
845.57        88.62507
845.98        88.08224
846.38         88.1819
846.79        88.78732
847.19        89.72843
847.60        90.49719
848.00        90.96738
848.41        91.17397
848.81         91.2672
849.22        91.40527
849.62        91.68422
850.03        91.97025
850.43         92.2047
850.84        92.16622
851.24        91.88925
851.65        91.39641
852.05        90.91631
852.46        90.69539
852.86        90.80552
853.27        91.12066
853.67        91.43717
854.07        91.76813
854.48        91.94935
854.88        91.69215
855.29        91.08547
855.69        90.82306
856.10        90.90805
856.50        91.11668
856.90        91.28223
857.31        91.28603
857.71        91.15782
858.12         90.8989
858.52        90.60115
858.92        90.27478
859.33        89.92184
859.73        89.58043
860.13        89.33975
860.54         89.3804
860.94        89.80714
861.34        90.50366
861.75        91.19563
862.15         91.5444
862.55        91.41155
862.96        90.91558
863.36        90.25678
863.76        89.74319
864.17        89.48846
864.57        89.42227
864.97        89.51822
865.38        89.70985
865.78        90.00253
866.18        90.35159
866.58        90.63025
866.99        90.60485
867.39        90.28368
867.79        89.70003
868.19        88.89944
868.60        87.94243
869.00        86.86762
869.40        85.71765
869.80        84.76965
870.21        84.46297
870.61        84.93302
871.01         85.9888
871.41         87.1682
871.81        87.72955
872.22         87.5021
872.62        86.71545
873.02        85.70606
873.42        85.13618
873.82        85.09083
874.22        85.13787
874.63        85.25983
875.03        85.52534
875.43        85.85313
875.83        86.70732
876.23         86.7655
876.63        86.74309
877.03        86.42809
877.44        85.79482
877.84        112.8746
878.24        86.33353
878.64        86.80269
879.04        88.25016
879.44        86.42919
879.84        84.89028
880.24        86.09583
880.64        85.28794
881.04        82.94168
881.44        81.63853
881.84        81.91154
882.24        83.30111
882.65        85.01369
883.05        85.76213
883.45        85.12204
883.85        83.63291
884.25        82.05868
884.65        81.40089
885.05        81.90424
885.45        83.24477
885.85        84.83109
886.25        85.68257
886.65        85.51479
887.05        84.64828
887.45        83.60902
887.85        83.17159
888.25        83.53112
888.65        84.44708
889.04        85.52805
889.44        86.02285
889.84        85.76253
890.24        84.98217
890.64        84.09081
891.04        83.68274
891.44        83.86363
891.84        84.39926
892.24        84.94758
892.64        84.94073
893.04        84.27187
893.44        83.25107
893.83        82.10654
894.23        81.18655
894.63         80.5841
895.03        80.17636
895.43        80.09283
895.83        80.56104
896.23         81.5505
896.63        82.97411
897.02        84.41091
897.42        85.06412
897.82        84.75908
898.22        83.71387
898.62        82.37261
899.01        81.43774
899.41        81.14845
899.81        81.28719
900.21         81.6805
900.61        82.05447
901.00        82.30199
901.40        82.50388
901.80        82.67142
902.20        82.78476
902.59        82.86143
902.99        82.88082
903.39        82.82652
903.79        82.69035
904.18        82.47773
904.58        82.22652
904.98        82.08827
905.38        82.30166
905.77        82.87297
906.17        83.73944
906.57        84.58092
906.96        84.92603
907.36         84.6408
907.76        83.84521
908.15        82.92417
908.55        82.44262
908.95        82.55835
909.34        83.16162
909.74        83.80947
910.14        83.74118
910.53        82.79917
910.93        81.32269
911.33        79.93831
911.72        79.62378
912.12         80.5262
912.52        82.20768
912.91        84.07419
913.31        85.15652
913.70        85.25259
914.10        84.64022
914.49        83.52981
914.89        82.40942
915.29        81.56383
915.68        80.87305
916.08         80.5193
916.47        80.71368
916.87        81.39468
917.26        82.48308
917.66        83.61242
918.05        84.19442
918.45        84.05158
918.84         83.4022
919.24        82.41515
919.64        81.41629
920.03        80.57172
920.42        79.80386
920.82         79.3707
921.21        79.60936
921.61        80.47694
922.00        81.93076
922.40        83.38231
922.79        84.07813
923.19         83.7924
923.58        82.62029
923.98        81.00975
924.37        80.19154
924.77           80.63
925.16        79.96904
925.55        81.59724
925.95        82.06382
926.34        82.29581
926.74        82.32018
927.13        82.33868
927.52        82.50993
927.92        82.84573
928.31         83.3395
928.70        83.77408
929.10        83.82199
929.49        83.43391
929.89        82.71224
930.28        82.03362
930.67        81.97848
931.07        82.62373
931.46        83.81142
931.85        85.06287
932.24        85.67572
932.64         85.4651
933.03        84.57274
933.42        83.33399
933.82           82.48
934.21         82.2481
934.60         82.4576
934.99        82.66809
935.39        82.41073
935.78         81.6086
936.17        80.11285
936.56        78.17564
936.96        78.64008
937.35        78.45872
937.74        79.91679
938.13        81.43616
938.53         82.4745
938.92        82.97138
939.31        83.12083
939.70        83.03764
940.09        82.84919
940.49         82.6581
940.88        82.45003
941.27        82.32101
941.66         82.4501
942.05        82.84931
942.44        83.46252
942.84        84.17925
943.23        84.82834
943.62        85.30365
944.01        85.65955
944.40        85.80885
944.79        85.63342
945.18         85.1305
945.57         84.2874
945.97        83.40185
946.36        82.99842
946.75        83.24252
947.14        83.98285
947.53        84.75528
947.92        84.89143
948.31        84.28992
948.70        83.16687
949.09        81.92702
949.48        81.28148
949.87        81.44247
950.26        82.18331
950.65        83.17252
951.04        83.85927
951.43        84.05235
951.82        83.91292
952.21        83.59251
952.60        83.33202
952.99         83.2215
953.38        83.17033
953.77        83.13768
954.16        83.08514
954.55         82.9901
954.94         82.8759
955.33        82.77779
955.72        82.72152
956.11         82.7269
956.50        82.82616
956.89        82.91789
957.28        82.83055
957.66        82.55501
958.05        82.07222
958.44        81.68039
958.83        81.78353
959.22        82.39806
959.61        83.40801
960.00        84.32721
960.39        84.28077
960.78        83.09197
961.16        81.07096
961.55        78.94334
961.94        77.67844
962.33        77.52104
962.72         78.1884
963.11        79.27586
963.49        80.08611
963.88        80.27443
964.27        80.10129
964.66        79.74271
965.04        79.48818
965.43         79.4403
965.82        79.49131
966.21        79.61585
966.60        79.81049
966.98        80.06828
967.37        80.37479
967.76        80.76001
968.15        81.22978
968.53        81.76708
968.92        82.25385
969.31        82.58556
969.69        82.59754
970.08          82.206
970.47        81.52438
970.86         80.6391
971.24        79.66398
971.63        78.73415
972.02        77.87533
972.40        77.22385
972.79        76.98808
973.17        77.24445
973.56        77.83656
973.95        78.67485
974.33        79.56119
974.72        80.24737
975.11        80.74783
975.49        80.94067
975.88        80.65546
976.26        79.93903
976.65        78.93932
977.04        77.84001
977.42         76.9835
977.81        76.50676
978.19        76.28338
978.58        76.48693
978.96        77.43353
979.35        79.00346
979.74        81.20818
980.12        83.28204
980.51        83.60681
980.89        82.04154
981.28        79.09518
981.66        76.08466
982.05        74.84801
982.43        75.64474
982.82        77.93947
983.20        80.81008
983.59        82.24766
983.97        81.73605
984.35        79.75797
984.74        77.35239
985.12        76.06223
985.51        76.31966
985.89        77.71469
986.28        79.49957
986.66        80.33617
987.04        79.66518
987.43        78.13103
987.81        76.35656
988.20        75.06198
988.58        74.33344
988.96        73.88954
989.35        73.60757
989.73        73.45113
990.12        73.32581
990.50        73.48371
990.88        73.71132
991.27        73.69709
991.65        73.51941
992.03        73.20766
992.42        73.10065
992.80        73.84963
993.18        75.51961
993.56        77.69236
993.95        79.78401
994.33        81.37225
994.71        82.18595
995.10        82.34129
995.48        81.98483
995.86        81.27361
996.24        80.32487
996.63        79.17111
997.01        77.77744
997.39        76.21471
997.77        74.77247
998.15        73.58005
998.54         73.1142
998.92        73.85188
999.30        75.89613
999.68        79.48168
1000.06        83.68077
1000.45        85.00253
1000.83        82.13132
1001.21        76.71874
1001.59        71.53814
1001.97        68.72459
1002.35        68.13291
1002.73        69.07094
1003.12         70.8604
1003.50        72.12759
1003.88        72.04317
1004.26        71.16449
1004.64        69.95657
1005.02        69.02105
1005.40        68.57568
1005.78        68.30052
1006.16        68.37201
1006.54        69.19411
1006.92        70.55685
1007.30         72.1081
1007.69        73.34174
1008.07         73.8661
1008.45        73.59348
1008.83        72.55973
1009.21        70.44129
1009.59        67.23824
1009.97        63.62165
1010.35        60.10152
1010.73         58.1043
1011.11        58.65997
1011.49        61.34206
1011.86        65.83094
1012.24        69.77449
1012.62         71.0107
1013.00        69.46807
1013.38        65.94433
1013.76        61.94654
1014.14        60.19881
1014.52        61.43838
1014.90        64.74893
1015.28        68.73585
1015.66        71.09995
1016.04        71.00081
1016.41         69.0199
1016.79        65.41997
1017.17         61.6269
1017.55        58.85126
1017.93        56.90622
1018.31        55.88826
1018.69        55.78186
1019.06         56.3408
1019.44        57.45018
1019.82        58.66871
1020.20        58.76596
1020.58        57.25277
1020.95        54.43811
1021.33        50.82238
1021.71        46.35484
1022.09        40.26965
1022.46        29.85894
1022.84        14.98815
1023.22        9.944045
1023.60        23.07451
1023.97        38.80055
1024.35        48.13723
1024.73        52.08227
