SpectraSmart Spectrum 2.9.0.0
--------- Device Information -----------
Spectrum Name :  反射率_0
Saving Time :  2024/04/20 00:35:35
Spectro-Module Model Name : SE2030-DUVN
Spectro-Module Serial Number : OS361AC55029948
Wavelength Start : 200
Wavelength End : 1025
Wavelength Unit : Wavelength(nm)
Spectrum Unit : Reflectance(%)
-----------Spectrum Setting ------------
Integration Time : 30ms
Average : 10
Boxcar : 0
Background removal :  enabled
linearity correction :  enabled
SC :  disabled
Intensity correction :  disabled
DWT denoise :  enabled
savitzky-golay :  disabled
FFT :  disabled
Running average :  disabled
Kalman :  disabled
High pass :  disabled
---------------BEGIN--------------------
Wavelength(nm)             Reflectance(%)
200.29               0
200.75        44.14676
201.21        43.55162
201.67        45.53439
202.13        50.58212
202.58        58.65884
203.04        70.42577
203.50          82.314
203.96        85.27797
204.42        78.70731
204.88        68.09457
205.34        58.49962
205.80        52.16446
206.26        48.03289
206.72        44.66434
207.18        41.52453
207.64         38.9257
208.10        38.11202
208.55        39.78926
209.01        42.67186
209.47        46.27237
209.93        50.00832
210.39        53.44897
210.85        55.59486
211.31        55.40642
211.77        52.69029
212.23        47.32348
212.69        39.95003
213.14        35.34002
213.60        35.95547
214.06        39.77262
214.52         43.9459
214.98        46.96476
215.44        49.00826
215.90        50.45687
216.36         51.7375
216.81        53.30529
217.27        54.92571
217.73        56.40349
218.19        56.31115
218.65        52.63757
219.11        45.09781
219.57        33.88326
220.02        21.50801
220.48        14.99021
220.94         16.8311
221.40        25.85019
221.86        37.37555
222.32        44.05126
222.77        44.01398
223.23        39.49116
223.69        34.00313
224.15        32.58965
224.61        35.46069
225.06        40.11435
225.52        44.03373
225.98        45.29286
226.44        43.96745
226.90        41.06489
227.36        37.92717
227.81        36.73948
228.27        38.28108
228.73        41.38132
229.19        44.69642
229.65        46.75583
230.10         47.3758
230.56        47.12886
231.02        46.64132
231.48        46.67531
231.93        47.26845
232.39        48.13068
232.85        48.74636
233.31        48.37571
233.77        46.91092
234.22         44.6568
234.68        42.19213
235.14        40.41478
235.60        39.67137
236.05        39.77214
236.51        40.36216
236.97        40.85278
237.43        41.08094
237.88        41.29874
238.34        41.62231
238.80        42.57697
239.26        44.20899
239.71        46.01715
240.17         47.4528
240.63        48.37877
241.08        48.86134
241.54        49.02522
242.00        48.45452
242.46        46.16557
242.91        41.44717
243.37        33.02765
243.83        21.56393
244.28         14.6771
244.74        19.95093
245.20        36.11465
245.66        51.59773
246.11        56.13975
246.57        48.80165
247.03        29.85665
247.48        4.313672
247.94       -1.906929
248.40         13.9645
248.85        33.29128
249.31        47.24458
249.77        54.24517
250.22        56.33615
250.68        55.77369
251.14        53.20539
251.59        49.65867
252.05        46.30326
252.51        42.87426
252.96        39.78803
253.42        38.15811
253.88        38.25692
254.33        39.92327
254.79        43.21606
255.25        47.79821
255.70         53.0941
256.16        58.46099
256.62        62.67085
257.07        64.41876
257.53        63.89101
257.99         61.6034
258.44        58.30821
258.90        55.75373
259.35        53.94886
259.81         52.9806
260.27        52.03275
260.72        50.35973
261.18        48.19043
261.63        45.47292
262.09        43.19304
262.55        42.24461
263.00        42.55793
263.46        43.74922
263.91        44.71074
264.37        44.36723
264.83         42.7242
265.28        40.20677
265.74        37.94715
266.19        37.11803
266.65        37.84322
267.11        39.49627
267.56        41.16164
268.02        41.52469
268.47        40.37953
268.93        38.18855
269.38        35.61513
269.84        33.97361
270.30        33.60137
270.75        34.10302
271.21        34.88868
271.66        35.08414
272.12        34.46161
272.57        33.31505
273.03        32.05344
273.48        31.21332
273.94        30.96511
274.39        31.06253
274.85        31.22068
275.31        31.02644
275.76        30.38636
276.22        29.48256
276.67        28.54293
277.13        27.98586
277.58        27.82997
278.04        27.95247
278.49        28.05754
278.95        27.78868
279.40        27.07384
279.86        26.13799
280.31        25.17445
280.77        24.57875
281.22        24.35658
281.68        24.38269
282.13         24.4939
282.59         24.4851
283.04         24.2921
283.50        24.02485
283.95        23.68096
284.41        23.28173
284.86        22.84103
285.32        22.37087
285.77        21.97318
286.22        21.87084
286.68        22.06863
287.13        22.46588
287.59         22.8682
288.04        22.97334
288.50        22.74655
288.95         22.2619
289.41        21.69746
289.86        21.26048
290.32        21.06004
290.77        21.01746
291.22        21.09179
291.68        21.18668
292.13        21.27843
292.59        21.41762
293.04        21.62561
293.50         21.9418
293.95        22.35576
294.40        22.81769
294.86        23.29907
295.31        23.77604
295.77        24.23293
296.22        24.68224
296.68        25.07775
297.13        25.32195
297.58        25.42748
298.04        25.44264
298.49        25.50129
298.95        25.84478
299.40        26.49797
299.85        27.37644
300.31        28.31808
300.76        29.07137
301.21        29.56905
301.67        29.90959
302.12        30.14634
302.58        30.41393
303.03        30.73159
303.48        31.06182
303.94        31.44057
304.39        31.89228
304.84         32.4137
305.30        32.99334
305.75        33.51846
306.20        33.82928
306.66        33.92192
307.11        33.83591
307.57        33.70523
308.02        33.66836
308.47        33.78116
308.93        33.98655
309.38        34.22755
309.83        34.46184
310.29        34.65369
310.74        34.81958
311.19        34.90049
311.65        34.79941
312.10        34.51374
312.55        34.08209
313.00        33.62694
313.46        33.33755
313.91        33.24386
314.36        33.31068
314.82        33.44584
315.27         33.5156
315.72        33.46389
316.18        33.33317
316.63        33.16041
317.08        33.01249
317.53        32.90224
317.99        32.79194
318.44        32.65536
318.89        32.44622
319.35        32.16068
319.80        31.83102
320.25        31.48557
320.70        31.16483
321.16        30.88148
321.61        30.62601
322.06        30.40588
322.51        30.23438
322.97        30.09812
323.42        29.99565
323.87        29.87192
324.32        29.64389
324.78        29.29034
325.23        28.84104
325.68        28.35218
326.13        27.92781
326.59         27.6074
327.04        27.39447
327.49        27.25093
327.94        27.11168
328.39        26.95369
328.85        26.77137
329.30          26.637
329.75         26.6324
330.20        26.75879
330.66        26.95331
331.11        27.10868
331.56        27.00787
332.01        26.60556
332.46        25.96548
332.92        25.22963
333.37          24.648
333.82        24.31567
334.27         24.1959
334.72        24.20919
335.17        24.20563
335.63        24.12317
336.08        24.00327
336.53        23.91429
336.98        23.97494
337.43         24.1969
337.88        24.52817
338.34        24.79299
338.79        24.76313
339.24        24.38082
339.69        23.72062
340.14        23.02637
340.59        22.70617
341.05        22.84298
341.50        23.31772
341.95        23.87351
342.40        24.10815
342.85        23.92826
343.30        23.47613
343.75        22.92074
344.20        22.53766
344.66        22.40854
345.11         22.4105
345.56        22.50229
346.01        22.62017
346.46        22.71673
346.91        22.83216
347.36        22.86327
347.81        22.63674
348.26        22.15482
348.72        21.50063
349.17        20.85073
349.62        20.58334
350.07        20.78012
350.52        21.30791
350.97        21.96572
351.42        22.45005
351.87        22.66476
352.32         22.6883
352.77        22.56009
353.22        22.34919
353.67        22.09805
354.13         21.7959
354.58        21.46991
355.03        21.20717
355.48        21.03361
355.93        20.95363
356.38        20.93531
356.83         20.9118
357.28        20.85834
357.73        20.77752
358.18        20.69476
358.63        20.65487
359.08        20.66162
359.53        20.69909
359.98        20.69931
360.43        20.56296
360.88        20.28197
361.33        19.89165
361.78        19.50352
362.23        19.29891
362.68        19.30953
363.13        19.46697
363.58         19.6464
364.03        19.65461
364.48         19.4427
364.93        19.07344
365.38        18.62089
365.83          18.214
366.28         17.9089
366.73        17.67334
367.18        17.50471
367.63        17.39659
368.08        17.33469
368.53        17.32397
368.98         17.3338
369.43        17.30783
369.88        17.23438
370.33        17.12692
370.78        16.99987
371.23        16.88772
371.68        16.80273
372.13        16.72481
372.58        16.67519
373.03        16.68926
373.48         16.7613
373.93        16.87968
374.38        16.96786
374.83        16.90725
375.28        16.68221
375.72        16.32226
376.17         15.9492
376.62        15.72019
377.07        15.67923
377.52        15.77697
377.97        15.93307
378.42        16.02146
378.87         16.0026
379.32        15.90989
379.77        15.78717
380.22        15.69709
380.67        15.65662
381.11        15.65071
381.56        15.62853
382.01        15.52725
382.46        15.33697
382.91        15.07774
383.36        14.83358
383.81        14.72661
384.26        14.77329
384.71        14.93933
385.15         15.1008
385.60        15.06901
386.05        14.81534
386.50        14.40638
386.95        13.99493
387.40        13.82213
387.85        13.93223
388.29        14.23245
388.74         14.5725
389.19        14.74582
389.64        14.70372
390.09        14.50728
390.54        14.24515
390.98        14.05261
391.43        13.98494
391.88        13.98913
392.33        13.99988
392.78        13.92669
393.23        13.76061
393.67        13.53468
394.12        13.33626
394.57        13.23274
395.02        13.23689
395.47        13.32191
395.91        13.43232
396.36        13.45816
396.81        13.37639
397.26        13.21317
397.71        13.04183
398.15        12.95943
398.60        12.99957
399.05        13.12278
399.50        13.24464
399.95        13.24432
400.39        13.09961
400.84        12.84347
401.29        12.58049
401.74        12.50053
402.18         12.6528
402.63         12.9659
403.08         13.2898
403.53        13.38937
403.97        13.21803
404.42        12.86324
404.87         12.4703
405.32        12.27666
405.76        12.34071
406.21        12.58025
406.66        12.88069
407.11        13.06484
407.55        13.08322
408.00        12.99519
408.45        12.85553
408.90         12.7244
409.34        12.64754
409.79        12.65733
410.24        12.71429
410.68        12.70946
411.13        12.63415
411.58        12.55366
412.03        12.48104
412.47        12.41754
412.92        12.36915
413.37        12.32729
413.81        12.31211
414.26        12.36729
414.71        12.48753
415.15         12.6671
415.60        12.82343
416.05        12.84464
416.49        12.70628
416.94        12.45008
417.39        12.16933
417.83        12.01704
418.28        12.03609
418.73        12.17172
419.17        12.34994
419.62        12.44097
420.07         12.4161
420.51        12.31979
420.96        12.19375
421.41        12.08526
421.85        12.01156
422.30        11.96533
422.74        11.94945
423.19        11.99424
423.64        12.09088
424.08        12.23682
424.53        12.38396
424.98        12.46625
425.42        12.46532
425.87        12.40324
426.31        12.29745
426.76        12.18736
427.21        12.08099
427.65        11.96033
428.10        11.87096
428.54        11.86799
428.99        11.95809
429.44        12.17711
429.88        12.40556
430.33        12.37197
430.77        12.11069
431.22        11.89322
431.66        11.79872
432.11        11.81728
432.56        11.95183
433.00          12.237
433.45        12.51428
433.89        12.53484
434.34        12.35325
434.78        12.11658
435.23        11.84679
435.67        12.37185
436.12          11.971
436.57        11.92138
437.01        11.75285
437.46        11.67855
437.90        11.70469
438.35        11.73585
438.79        11.75266
439.24        11.77606
439.68        11.79781
440.13        11.71151
440.57        11.57384
441.02        11.66468
441.46        11.87081
441.91        11.83669
442.35        11.30278
442.80        11.08365
443.24        11.06473
443.69        10.99767
444.13         10.8752
444.58        10.81318
445.02        10.81574
445.47        10.88155
445.91         10.9675
446.36        10.97875
446.80        10.89638
447.24        10.76103
447.69        10.62142
448.13         10.5268
448.58        10.49896
449.02         10.5212
449.47        10.56085
449.91        10.56061
450.36        10.51162
450.80        10.42936
451.25        10.35621
451.69        10.34343
452.13         10.4034
452.58        10.50816
453.02        10.61989
453.47        10.67768
453.91        10.67012
454.36        10.61702
454.80        10.54235
455.24        10.48822
455.69        10.47311
456.13        10.46909
456.58         10.4832
457.02        10.52058
457.46        10.57632
457.91        10.62671
458.35         10.6551
458.79        10.65711
459.24         10.6305
459.68        10.57623
460.13        10.55381
460.57        10.55154
461.01        10.56755
461.46        10.87415
461.90        11.01735
462.34        10.94348
462.79        11.00647
463.23        10.85371
463.68        10.69742
464.12        10.59391
464.56        10.65408
465.01          10.777
465.45        10.91133
465.89        10.99234
466.34        11.00876
466.78        10.94834
467.22         10.8587
467.67        10.89356
468.11        11.03414
468.55        11.05387
468.99        10.96489
469.44        10.96816
469.88        11.06979
470.32        11.15639
470.77        11.19756
471.21         11.2049
471.65        11.17306
472.10        11.10334
472.54        11.02533
472.98        11.01559
473.42        11.08513
473.87        11.17757
474.31         11.2652
474.75        11.37062
475.20        11.45979
475.64         11.4232
476.08        11.30847
476.52        11.28914
476.97        11.37965
477.41        11.50303
477.85        11.61906
478.29        11.69725
478.74        11.72489
479.18        11.68941
479.62        11.64183
480.06        11.66619
480.50        11.76117
480.95        11.84646
481.39        11.88843
481.83        11.89379
482.27        11.85921
482.72        11.78447
483.16        11.70801
483.60         11.6969
484.04        11.75966
484.48        11.92596
484.93        12.20726
485.37        12.34122
485.81        12.36385
486.25        12.78072
486.69        12.98197
487.14        12.51778
487.58        12.63918
488.02        13.37657
488.46          12.967
488.90        13.02142
489.34        12.94497
489.79         13.1117
490.23        13.44988
490.67        13.68224
491.11        13.76173
491.55        13.69784
491.99        13.54087
492.43        13.44987
492.88        13.46058
493.32        13.45856
493.76        13.47206
494.20        13.60473
494.64        13.85895
495.08         14.1939
495.52         14.5416
495.96        14.80818
496.41        14.96771
496.85        15.01753
497.29        15.00782
497.73        15.09416
498.17        15.27844
498.61        15.38545
499.05        15.42044
499.49        15.54833
499.93        15.77441
500.37         15.9676
500.82        16.12083
501.26          16.356
501.70        16.62811
502.14        16.71371
502.58        16.64107
503.02        16.64954
503.46        16.75817
503.90        16.84255
504.34        16.88236
504.78        16.90137
505.22        16.89769
505.66        16.87304
506.10        16.85056
506.54        16.86277
506.98        16.91943
507.42        17.01533
507.86        17.13199
508.30        17.23754
508.74        17.32029
509.18        17.38296
509.62        17.44259
510.06        17.52707
510.50         17.6418
510.94        17.78055
511.38        17.90708
511.82        17.96396
512.26         17.9415
512.70        17.85576
513.14        17.76753
513.58         17.7698
514.02        17.87388
514.46        18.05222
514.90        18.23442
515.34        18.25214
515.78         18.1035
516.22        17.91631
516.66        17.78559
517.10        17.50656
517.54        17.10604
517.98        17.74356
518.42         17.6594
518.86        17.94509
519.30          18.055
519.74         18.1653
520.18        18.24911
520.62        18.24142
521.06        18.15897
521.50         18.0043
521.93        17.82014
522.37        17.68729
522.81        17.62686
523.25        17.62176
523.69        17.64962
524.13        17.67141
524.57        17.67168
525.01        17.65982
525.45        17.63741
525.89        17.60607
526.32         17.5664
526.76        17.51668
527.20         17.4533
527.64        17.37733
528.08        17.29002
528.52        17.19048
528.96        17.09401
529.40        17.02097
529.83        16.97481
530.27        16.95773
530.71        16.93853
531.15        16.86785
531.59        16.74227
532.03        16.57942
532.46         16.4304
532.90        16.39081
533.34        16.46631
533.78        16.61808
534.22         16.7813
534.66         16.8573
535.09        16.81805
535.53        16.70203
535.97        16.54129
536.41        16.38482
536.85        16.25764
537.28         16.1585
537.72        16.10452
538.16        16.07125
538.60        16.13686
539.04        16.22728
539.47        16.33884
539.91        16.46931
540.35        16.61808
540.79        16.64071
541.22        16.75341
541.66         16.8419
542.10        16.98631
542.54        16.91003
542.97        17.06676
543.41        17.15325
543.85        17.29327
544.29        17.44224
544.72        17.57269
545.16        17.68861
545.60        17.78148
546.04        17.80734
546.47        17.82959
546.91        18.03839
547.35        18.40178
547.79        18.72623
548.22        18.94991
548.66        19.06419
549.10        19.09815
549.53        19.22051
549.97        19.46136
550.41        19.49967
550.84        19.70369
551.28        19.87433
551.72        20.11294
552.15        20.34028
552.59        20.54657
553.03        20.74209
553.46        20.91407
553.90        21.06268
554.34        21.18702
554.77        21.28703
555.21        21.37136
555.65        21.44365
556.08        21.50497
556.52        21.55561
556.96        21.60889
557.39        21.71203
557.83        21.86004
558.27        21.98713
558.70        22.07722
559.14        22.14887
559.57        22.19152
560.01        22.21575
560.45        22.22538
560.88        22.19809
561.32        22.18753
561.75         22.2458
562.19        22.43966
562.63        22.55431
563.06         22.6008
563.50        22.64995
563.93        22.71103
564.37        22.83881
564.80        22.93072
565.24        23.07145
565.68        23.20162
566.11        23.31046
566.55         23.4109
566.98         23.4628
567.42        23.47529
567.85        23.76226
568.29        23.71292
568.72        24.03167
569.16         24.4556
569.60        24.73395
570.03        24.82175
570.47        24.90526
570.90        24.89028
571.34        25.14637
571.77        24.90958
572.21        25.31205
572.64        25.52472
573.08        25.74596
573.51        25.98111
573.95        26.20949
574.38        26.59523
574.82        26.67099
575.25        26.89727
575.69        26.76096
576.12        26.68933
576.56        26.57349
576.99        26.54692
577.42        26.70195
577.86        26.70137
578.29        26.80209
578.73        27.06956
579.16        26.77579
579.60         26.5667
580.03        26.37355
580.47        26.47844
580.90        26.33084
581.33        26.10314
581.77        26.25035
582.20        26.67649
582.64        26.02592
583.07        25.71772
583.51        25.80189
583.94        25.42309
584.37        25.36183
584.81        25.05848
585.24        24.95823
585.68        24.97621
586.11         24.7871
586.54        24.67866
586.98        24.62265
587.41        24.70052
587.85        24.75756
588.28         24.7367
588.71        24.56547
589.15        24.31148
589.58        24.11158
590.01        24.22789
590.45        24.47775
590.88         24.5196
591.31        24.39972
591.75        24.06691
592.18        24.11399
592.61        23.98183
593.05        24.37271
593.48        24.29956
593.91        24.60467
594.35        24.59769
594.78        24.73284
595.21        24.95066
595.65        25.21408
596.08        25.16031
596.51        25.19828
596.94        25.26339
597.38        25.38963
597.81        25.63434
598.24        25.76859
598.68        26.17863
599.11        26.47857
599.54        27.38827
599.97        27.09785
600.41        27.65904
600.84        28.23834
601.27        28.68054
601.70        29.07147
602.14        29.23164
602.57         29.6311
603.00        30.23559
603.43        30.65178
603.87        30.90195
604.30        31.31757
604.73        31.88331
605.16        32.30397
605.60        32.75391
606.03        33.23106
606.46        33.71142
606.89        34.67074
607.32         34.8396
607.76        34.91518
608.19        35.51698
608.62        35.97084
609.05        36.23629
609.48        36.39487
609.92        36.78725
610.35        36.88192
610.78        37.76796
611.21        38.23803
611.64        38.24675
612.07        38.61842
612.50        39.08822
612.94        39.01094
613.37        39.65363
613.80        39.96593
614.23        40.30568
614.66        40.75527
615.09        40.93505
615.52        41.35176
615.96        41.79505
616.39        42.14336
616.82        42.44252
617.25        42.28504
617.68        42.71272
618.11         43.0445
618.54        43.48549
618.97        43.54272
619.40        43.24411
619.84        43.43913
620.27        43.20888
620.70        43.58592
621.13        44.15698
621.56        44.37794
621.99        44.33035
622.42         44.4269
622.85        44.72124
623.28        44.84844
623.71        44.81604
624.14        44.94151
624.57         44.9229
625.00        44.75181
625.43        45.01564
625.86        44.27892
626.29        44.42505
626.72        44.17162
627.15        44.03613
627.58        43.94621
628.01        43.85287
628.44        43.68695
628.87         43.4183
629.30        43.03939
629.73        42.58082
630.16        42.37055
630.59        41.99765
631.02        41.77814
631.45         41.5437
631.88        41.24129
632.31        40.84703
632.74        40.38305
633.17        39.87759
633.60        39.36472
634.03        38.86257
634.46        38.36662
634.89        37.86896
635.32         37.3556
635.75        36.83009
636.18         36.3085
636.61         35.8102
637.04        35.35831
637.47         34.9526
637.89        34.58125
638.32         34.2228
638.75        33.86298
639.18        33.49925
639.61        33.14647
640.04        32.79663
640.47        32.43313
640.90        32.06139
641.33        31.68941
641.76        31.36473
642.18        31.16776
642.61        31.10492
643.04        31.14961
643.47        31.23993
643.90        31.27198
644.33        31.21959
644.76        31.11851
645.18        31.00628
645.61        30.94979
646.04        30.97402
646.47        31.05759
646.90        31.21297
647.33        31.46055
647.75        31.79611
648.18        32.21135
648.61        32.65669
649.04        33.05341
649.47        33.39056
649.89        33.67033
650.32        33.95219
650.75        34.40188
651.18        35.03456
651.61        35.62856
652.03        36.17091
652.46        36.99825
652.89        38.02945
653.32        38.45706
653.74        38.37837
654.17        39.19883
654.60        40.00457
655.03        40.79641
655.46        40.30666
655.88        42.01957
656.31        43.30531
656.74        49.01617
657.16        46.78908
657.59        43.56733
658.02        44.12569
658.45         44.8619
658.87        45.81351
659.30        46.47295
659.73        47.04198
660.15        47.83783
660.58         47.9529
661.01        47.97292
661.44        47.80612
661.86        48.04239
662.29        48.67614
662.72        49.41909
663.14        50.08852
663.57        50.22985
664.00        49.97916
664.42        50.05593
664.85        50.52831
665.27        50.92936
665.70        51.19252
666.13         51.4697
666.55        51.74955
666.98        51.98252
667.41        52.18386
667.83        52.36827
668.26        52.52158
668.69        52.68238
669.11        52.85528
669.54        52.92313
669.96        52.87028
670.39          53.187
670.82         53.1243
671.24        53.26505
671.67        53.42435
672.09        53.73302
672.52        54.12123
672.94        54.44959
673.37        54.64375
673.80        54.53926
674.22        54.26249
674.65        54.20468
675.07         54.4288
675.50         54.7247
675.92         55.0001
676.35        55.15602
676.77          55.161
677.20        55.05194
677.62        54.91304
678.05        54.88427
678.47        54.99757
678.90        55.21642
679.32        55.47718
679.75        55.68426
680.17        55.80575
680.60        55.86573
681.02        55.91056
681.45        55.99249
681.87        56.13843
682.30        56.33615
682.72        56.52216
683.15        56.60609
683.57        56.62843
684.00        56.52654
684.42        56.45147
684.85        56.92528
685.27        56.80444
685.70        57.09952
686.12        57.37981
686.54        57.53918
686.97        57.54537
687.39        57.43311
687.82        57.28345
688.24        57.29478
688.66        57.47253
689.09        57.58033
689.51        57.68483
689.94        57.78887
690.36        57.90382
690.78        57.91899
691.21          57.865
691.63        57.80758
692.06        58.13397
692.48         58.0341
692.90        58.15583
693.33        58.56487
693.75        58.41455
694.17        58.55115
694.60        58.66079
695.02        58.57853
695.44        58.34298
695.87        58.43594
696.29        58.77828
696.71        58.64909
697.14        58.28238
697.56        58.45829
697.98        59.42849
698.41        60.25682
698.83        59.87127
699.25        59.67518
699.68        59.70118
700.10        59.68068
700.52        59.72468
700.94         59.8627
701.37        60.03674
701.79        60.17369
702.21        60.22552
702.64        60.21836
703.06        60.19663
703.48        60.23794
703.90        60.35921
704.33        60.54356
704.75        60.73552
705.17        60.77931
705.59        60.64526
706.01         60.5368
706.44         60.2921
706.86        60.31789
707.28        60.55497
707.70        60.96347
708.12        61.41114
708.55        61.63194
708.97        61.60688
709.39        61.54585
709.81          61.487
710.23        61.37405
710.66         61.2433
711.08        61.15691
711.50         61.1442
711.92        61.22734
712.34        61.40878
712.76        61.69244
713.19         61.9867
713.61         62.1807
714.03        62.21843
714.45        62.13454
714.87        62.02305
715.29        62.03596
715.71        62.20593
716.13         62.4835
716.56        62.77528
716.98        62.99508
717.40        63.07809
717.82        63.05998
718.24          62.986
718.66        62.92878
719.08        62.91327
719.50        62.91586
719.92        62.91829
720.34        62.89248
720.76         62.8336
721.19        62.75807
721.61        62.69582
722.03        62.65592
722.45        62.66614
722.87        62.71207
723.29        62.79225
723.71        62.89588
724.13        63.01837
724.55        63.15617
724.97        63.31729
725.39        63.51595
725.81        63.74327
726.23        63.98151
726.65        64.19385
727.07         64.3288
727.49        64.37687
727.91        64.35495
728.33        64.29536
728.75        64.25507
729.17        64.25749
729.59        64.28989
730.01        64.33808
730.43        64.40604
730.85        64.49189
731.27        64.53539
731.69        64.52318
732.10        64.72917
732.52        64.72808
732.94        64.74195
733.36        64.66924
733.78        64.64014
734.20         64.6736
734.62        64.71724
735.04        64.74757
735.46        64.81223
735.88        64.78423
736.30        64.74667
736.72        64.73891
737.13        64.85416
737.55        65.05592
737.97        65.49006
738.39        65.97923
738.81        65.90016
739.23        65.38517
739.65        65.25252
740.06        65.48623
740.48        65.71293
740.90        65.84753
741.32        65.29485
741.74        65.14849
742.16        65.07229
742.57        65.31751
742.99        65.59789
743.41        65.77559
743.83        66.04082
744.25         66.2245
744.67        65.78709
745.08        65.89649
745.50        65.70689
745.92        65.60561
746.34        65.53773
746.75        65.49688
747.17        65.44587
747.59        65.37999
748.01        65.34789
748.42        65.35584
748.84        65.43198
749.26        65.59749
749.68        65.65508
750.09        65.66469
750.51        66.12459
750.93        66.83612
751.35        66.87194
751.76         66.3154
752.18        66.09164
752.60        66.24363
753.01        66.26446
753.43        66.15017
753.85         66.1426
754.27         66.2431
754.68        66.48093
755.10        66.80261
755.52        66.67761
755.93        66.80399
756.35        66.64871
756.77         66.4929
757.18         66.5034
757.60        66.73372
758.02          66.956
758.43        67.03494
758.85        67.59402
759.26        67.37064
759.68        67.36169
760.10        67.20869
760.51         67.0209
760.93        66.88982
761.34         66.4977
761.76        66.55402
762.18        66.67027
762.59        66.36501
763.01         66.5486
763.42        66.97306
763.84        67.44402
764.26        67.65752
764.67        67.41061
765.09        66.91961
765.50        67.12418
765.92        67.90783
766.33        68.05097
766.75        67.79941
767.16        67.34959
767.58         66.8975
768.00         66.7514
768.41        66.97697
768.83        67.17005
769.24        67.29723
769.66        67.81662
770.07        68.50348
770.49        68.49387
770.90        67.91949
771.32        67.82501
771.73        68.21786
772.15        68.26466
772.56        67.97682
772.97        67.84675
773.39        67.86141
773.80        67.84483
774.22        67.74081
774.63        67.48729
775.05        67.18781
775.46        67.15553
775.88        67.40678
776.29        67.83536
776.70        68.24667
777.12        68.39193
777.53        68.21928
777.95        67.77459
778.36        67.27699
778.77        67.10569
779.19        67.34903
779.60        67.93452
780.02        68.56924
780.43        68.95544
780.84        69.00443
781.26        68.42939
781.67        67.60979
782.09        68.09751
782.50        69.53558
782.91        69.60422
783.33        68.40001
783.74        68.10513
784.15        68.70453
784.57         69.0127
784.98        68.89736
785.39        68.81112
785.81         68.7216
786.22        68.41305
786.63        68.01227
787.04        67.83418
787.46        67.91587
787.87         68.1379
788.28        68.42617
788.70        68.64256
789.11        68.73151
789.52        68.79826
789.93        68.85777
790.35        68.78555
790.76        68.65282
791.17        68.74258
791.58        69.00768
792.00        69.00931
792.41        68.72969
792.82        68.62323
793.23        68.65088
793.65        68.23738
794.06        67.67512
794.47        67.96291
794.88        68.81885
795.29         69.9558
795.71        69.29286
796.12        69.29572
796.53         69.4127
796.94        69.11398
797.35        68.53451
797.76        68.43285
798.18        68.78423
798.59        68.93154
799.00        68.83084
799.41        68.87969
799.82        69.07349
800.23        69.21126
800.64        69.27464
801.06         69.2753
801.47          69.292
801.88        69.39778
802.29        69.59743
802.70        69.84054
803.11         70.0362
803.52          70.044
803.93         69.8484
804.34        69.52048
804.75        69.15933
805.17        68.92624
805.58        68.89585
805.99        68.88982
806.40        68.98147
806.81         69.2377
807.22        70.43161
807.63        70.20848
808.04        69.12957
808.45        68.86143
808.86        69.54292
809.27        70.22308
809.68         70.6777
810.09        70.99642
810.50        71.08068
810.91        70.90106
811.32        70.57947
811.73        70.28934
812.14        70.08708
812.55        70.02296
812.96        70.02799
813.37        69.77205
813.78        69.33565
814.19        69.23854
814.60        69.45143
815.01        69.53339
815.42          69.463
815.83        69.46734
816.24        69.57826
816.65        69.73131
817.05        69.91956
817.46        70.10641
817.87        70.24268
818.28        70.21227
818.69        70.02203
819.10        69.72381
819.51        69.41509
819.92        69.36615
820.33        69.65646
820.74        69.92513
821.14         70.1776
821.55        71.03525
821.96        72.15356
822.37        72.06703
822.78         70.9436
823.19        70.39948
823.60        70.58307
824.00        70.61206
824.41        70.37524
824.82        70.22733
825.23        70.17005
825.64        70.13399
826.04        70.15929
826.45        70.25124
826.86        70.41043
827.27        70.62808
827.68        70.84241
828.08        70.96778
828.49        70.92616
828.90        70.76627
829.31         70.5419
829.72         70.3564
830.12        70.26866
830.53        70.22397
830.94        70.21014
831.35        70.17078
831.75        70.11738
832.16        70.04191
832.57         69.9851
832.97        69.98672
833.38        70.03516
833.79        70.09622
834.20        70.17708
834.60        70.28764
835.01        70.43459
835.42        70.62886
835.82        70.77703
836.23        70.67264
836.64        70.31246
837.04        69.75021
837.45        69.21413
837.86        69.11509
838.26        69.54919
838.67        70.38213
839.08        71.29491
839.48        71.68838
839.89        71.40455
840.29        70.65403
840.70        69.83942
841.11        69.48498
841.51        69.73196
841.92        70.36469
842.33        71.20081
842.73        71.92754
843.14        72.31792
843.54        72.52134
843.95         72.5071
844.35        72.30343
844.76        71.96053
845.17         71.4874
845.57        70.99197
845.98        70.67498
846.38         70.5836
846.79        70.67249
847.19        70.93499
847.60        71.20929
848.00        71.48529
848.41        71.73521
848.81        71.97118
849.22        72.13332
849.62         72.2525
850.03        72.27969
850.43        72.27769
850.84        72.27895
851.24         72.3505
851.65        72.42301
852.05        72.50987
852.46        72.56591
852.86        72.58717
853.27        72.47765
853.67        72.21877
854.07        72.21243
854.48        72.30428
854.88        71.81638
855.29        70.84382
855.69         70.3558
856.10        70.39668
856.50        70.55996
856.90        70.72357
857.31         70.9119
857.71        71.13467
858.12         71.3223
858.52        71.48025
858.92        71.51373
859.33        71.39922
859.73        71.17328
860.13        70.94424
860.54        70.93358
860.94        71.24741
861.34        71.79201
861.75        72.31569
862.15        72.49997
862.55        72.22919
862.96        71.63361
863.36        70.93522
863.76        70.48616
864.17        70.38805
864.57        70.54368
864.97        70.84949
865.38        71.12451
865.78         71.3478
866.18        71.51566
866.58        71.55861
866.99        71.36179
867.39        70.96516
867.79           70.38
868.19        69.67313
868.60        68.94176
869.00         68.2024
869.40        67.49123
869.80        66.97235
870.21        66.88573
870.61        67.31528
871.01        68.13887
871.41        69.03224
871.81        69.48055
872.22        69.38765
872.62        68.89656
873.02        68.23768
873.42        68.02233
873.82        68.17384
874.22         68.0059
874.63        67.67455
875.03        67.59737
875.43        67.80492
875.83         69.2535
876.23        68.86963
876.63        68.21805
877.03        66.79089
877.44        64.71531
877.84        132.2771
878.24        65.66767
878.64        67.04295
879.04        70.92528
879.44        67.09332
879.84        64.87896
880.24        69.50965
880.64        69.78326
881.04        66.77038
881.44        64.88111
881.84        64.78109
882.24        65.78719
882.65        67.26797
883.05        67.93762
883.45        67.40156
883.85        66.39226
884.25        65.48313
884.65         65.2338
885.05        65.80031
885.45        66.95387
885.85        68.24747
886.25        68.95774
886.65        68.87603
887.05         68.2448
887.45         67.4401
887.85           67.02
888.25        67.13771
888.65        67.62079
889.04        68.26725
889.44        68.65884
889.84        68.69384
890.24        68.50282
890.64        68.23008
891.04        68.08501
891.44        68.09452
891.84        68.12717
892.24        68.09657
892.64        67.87622
893.04        67.45717
893.44        66.98461
893.83        66.41024
894.23        65.66637
894.63        64.77996
895.03        63.77043
895.43         62.9818
895.83        62.98587
896.23        63.86224
896.63        65.43027
897.02        67.12585
897.42        67.92609
897.82        67.58002
898.22        66.39664
898.62        64.93195
899.01         64.0523
899.41        64.01868
899.81        64.54267
900.21        65.35684
900.61        66.06161
901.00        66.50922
901.40        66.80579
901.80        67.01414
902.20        67.20065
902.59        67.39031
902.99        67.52615
903.39        67.51732
903.79        67.24507
904.18        66.71233
904.58        66.03679
904.98        65.45174
905.38        65.30138
905.77        65.64138
906.17        66.37395
906.57        67.21995
906.96        67.76414
907.36        67.84526
907.76        67.54908
908.15        67.13068
908.55        66.95396
908.95        67.12903
909.34        67.58306
909.74        67.97945
910.14        67.74213
910.53        66.76733
910.93        65.32111
911.33         63.9906
911.72        63.69041
912.12        64.54243
912.52        66.17973
912.91        67.95855
913.31        68.80315
913.70        68.50854
914.10        67.37075
914.49        65.79286
914.89        64.68793
915.29        64.39742
915.68        64.64028
916.08        65.21587
916.47        65.83608
916.87        66.34885
917.26        66.85122
917.66        67.23362
918.05        67.33814
918.45        67.12885
918.84        66.68295
919.24         66.0603
919.64        65.39798
920.03        64.78255
920.42        64.20794
920.82         63.9022
921.21        64.15667
921.61        64.93207
922.00        66.17267
922.40        67.37258
922.79        67.94574
923.19        67.74697
923.58        66.70009
923.98        65.12891
924.37         64.4279
924.77        65.11312
925.16        63.18802
925.55        65.15294
925.95        65.22362
926.34        65.29937
926.74        65.26951
927.13        65.35648
927.52        65.66924
927.92        66.17321
928.31        66.89818
928.70        67.53109
929.10        67.57834
929.49        66.94215
929.89        65.77238
930.28        64.59937
930.67        64.26934
931.07         64.9192
931.46        66.32701
931.85        67.85082
932.24        68.52564
932.64        68.11561
933.03        66.81418
933.42        65.12194
933.82        64.07665
934.21        64.00063
934.60        64.59611
934.99        65.19724
935.39         65.2187
935.78        64.57632
936.17        62.87262
936.56        60.36041
936.96        61.64946
937.35        61.04217
937.74        62.90629
938.13         64.7402
938.53        65.95755
938.92         66.4889
939.31        66.57468
939.70        66.39742
940.09        66.12872
940.49        65.90394
940.88        65.69745
941.27         65.5722
941.66         65.6569
942.05        65.94596
942.44        66.38101
942.84        66.91776
943.23        67.47491
943.62        67.96807
944.01        68.43829
944.40         68.6559
944.79        68.26488
945.18        67.22666
945.57        65.60226
945.97         63.9602
946.36        63.28534
946.75        63.88152
947.14        65.39686
947.53        67.06292
947.92        67.81044
948.31         67.4473
948.70        66.31891
949.09        64.89454
949.48        64.00083
949.87        63.91485
950.26        64.35589
950.65        65.08591
951.04        65.71977
951.43        66.09176
951.82        66.34459
952.21        66.44446
952.60        66.31654
952.99        65.98396
953.38          65.438
953.77        64.85163
954.16        64.52864
954.55        64.53106
954.94        64.79801
955.33        65.14934
955.72        65.25717
956.11        65.04879
956.50         64.6413
956.89        64.19205
957.28        64.00811
957.66        64.19378
958.05        64.52203
958.44        64.93758
958.83        65.38206
959.22         65.8005
959.61         66.2422
960.00        66.44751
960.39        65.95685
960.78        64.74232
961.16        62.96811
961.55        61.24407
961.94        60.37834
962.33        60.53917
962.72        61.50337
963.11        62.78563
963.49        63.53203
963.88        63.39653
964.27        62.66724
964.66        61.69064
965.04        61.05158
965.43        60.93446
965.82        61.15367
966.21        61.55893
966.60        61.92082
966.98        62.16592
967.37        62.36849
967.76        62.59683
968.15         62.9179
968.53        63.34624
968.92          63.729
969.31        64.02462
969.69        64.18373
970.08        64.13085
970.47        63.93978
970.86        63.54118
971.24        62.78717
971.63        61.75695
972.02        60.53151
972.40        59.39208
972.79        58.83873
973.17        59.01371
973.56        59.69822
973.95        60.67208
974.33        61.51758
974.72        61.93639
975.11        62.03498
975.49        61.76873
975.88        61.06771
976.26        60.01165
976.65        58.70357
977.04        57.35028
977.42        56.33878
977.81        55.82563
978.19        55.68451
978.58        55.99918
978.96        56.86794
979.35        58.16872
979.74        59.97319
980.12        61.71671
980.51        62.16883
980.89        61.24292
981.28        59.25112
981.66        57.29713
982.05        56.92798
982.43        58.35065
982.82        61.07955
983.20        64.19909
983.59        65.72874
983.97        65.14437
984.35        62.93301
984.74        60.12759
985.12        58.25588
985.51        57.77294
985.89        58.22958
986.28        59.08131
986.66        59.29134
987.04        58.48798
987.43        57.24992
987.81        55.86891
988.20        54.55364
988.58         53.2672
988.96        51.69331
989.35        50.18324
989.73        49.77135
990.12        50.84196
990.50        53.09599
990.88        55.25963
991.27        55.86346
991.65        54.96667
992.03        52.93697
992.42         50.7924
992.80        50.51405
993.18        52.64461
993.56        56.17842
993.95        59.96312
994.33        62.87485
994.71        64.40633
995.10        64.96412
995.48        64.59045
995.86        63.21128
996.24        60.92941
996.63        57.68766
997.01        53.95218
997.39        51.33315
997.77        50.67066
998.15        51.61901
998.54         53.3807
998.92        55.01176
999.30        56.31427
999.68        57.62782
1000.06         58.5792
1000.45        58.08917
1000.83        56.07417
1001.21        53.16107
1001.59        50.48986
1001.97         48.8592
1002.35        48.08704
1002.73        47.86585
1003.12        47.99145
1003.50        48.05671
1003.88        47.85996
1004.26        47.71772
1004.64        47.42694
1005.02        46.61375
1005.40        45.28522
1005.78        43.36839
1006.16        41.85555
1006.54        42.73055
1006.92        45.91909
1007.30        50.09838
1007.69        53.63253
1008.07        55.10602
1008.45        54.20811
1008.83        51.06477
1009.21        45.08491
1009.59        37.05912
1009.97        29.39363
1010.35        23.34832
1010.73        21.16784
1011.11        23.88324
1011.49        30.29181
1011.86        39.58225
1012.24        48.00802
1012.62        51.89482
1013.00        51.04324
1013.38        46.83693
1013.76        41.15313
1014.14         37.3993
1014.52        36.71507
1014.90        38.03818
1015.28        40.43196
1015.66        42.30597
1016.04        43.01071
1016.41         43.2107
1016.79        42.66661
1017.17        40.84765
1017.55        38.19128
1017.93        35.13996
1018.31        32.70058
1018.69        31.87388
1019.06        32.46929
1019.44        33.88022
1019.82        35.63601
1020.20        36.37599
1020.58        35.43717
1020.95        33.39756
1021.33        30.07084
1021.71        24.10801
1022.09        13.81886
1022.46       -6.123868
1022.84       -36.52966
1023.22       -48.03704
1023.60       -22.51505
1023.97         8.57886
1024.35         26.7843
1024.73        33.15635
