SpectraSmart Spectrum 2.9.0.0
--------- Device Information -----------
Spectrum Name :  反射率_0
Saving Time :  2024/04/20 00:53:56
Spectro-Module Model Name : SE2030-DUVN
Spectro-Module Serial Number : OS361AC55029948
Wavelength Start : 200
Wavelength End : 1025
Wavelength Unit : Wavelength(nm)
Spectrum Unit : Reflectance(%)
-----------Spectrum Setting ------------
Integration Time : 30ms
Average : 10
Boxcar : 0
Background removal :  enabled
linearity correction :  enabled
SC :  disabled
Intensity correction :  disabled
DWT denoise :  enabled
savitzky-golay :  disabled
FFT :  disabled
Running average :  disabled
Kalman :  disabled
High pass :  disabled
---------------BEGIN--------------------
Wavelength(nm)             Reflectance(%)
200.29               0
200.75        47.27435
201.21        47.50105
201.67        50.40224
202.13        56.02991
202.58        64.13944
203.04        75.19313
203.50        86.38141
203.96        90.30885
204.42        86.07479
204.88        77.94382
205.34        70.07991
205.80         64.3504
206.26        59.80676
206.72        54.92052
207.18        49.03387
207.64        43.63438
208.10        41.70697
208.55        44.07469
209.01        48.04615
209.47        51.40647
209.93        53.67016
210.39        55.20577
210.85        55.86823
211.31        55.56263
211.77        54.25814
212.23        51.65769
212.69        48.08914
213.14        46.03709
213.60        46.52789
214.06        48.87323
214.52        51.37386
214.98        53.11727
215.44        54.25134
215.90        54.83019
216.36        55.65702
216.81        58.09752
217.27        61.98755
217.73        66.66665
218.19        69.70074
218.65         67.8659
219.11        60.67775
219.57        48.50663
220.02        34.28235
220.48        26.04866
220.94        26.91811
221.40        35.62132
221.86        47.22671
222.32        53.86877
222.77        53.55119
223.23        48.67188
223.69        43.13759
224.15        42.43885
224.61        46.51739
225.06         52.3787
225.52        57.01105
225.98        57.91543
226.44        55.18768
226.90         50.0482
227.36        44.25904
227.81        40.94575
228.27        41.30364
228.73        43.90269
229.19        47.12906
229.65        49.12367
230.10        49.59182
230.56        49.27166
231.02        48.71809
231.48        48.58281
231.93        48.91947
232.39        49.44065
232.85        49.81253
233.31        49.61009
233.77        48.76688
234.22        47.49259
234.68        46.11654
235.14        45.07916
235.60         44.5905
236.05        44.58371
236.51        44.96313
236.97        45.56534
237.43        46.41555
237.88        47.81872
238.34        49.79962
238.80        52.34988
239.26        54.98745
239.71        57.11211
240.17        58.48446
240.63         59.6903
241.08        60.98663
241.54        62.29969
242.00        62.76139
242.46        60.56962
242.91        54.72242
243.37        43.81106
243.83        28.69172
244.28        19.24178
244.74        25.41299
245.20        45.42718
245.66        65.66951
246.11        74.54719
246.57        71.41175
247.03         57.4132
247.48        35.88039
247.94        27.32024
248.40        36.35846
248.85        49.10763
249.31        58.75014
249.77        63.76537
250.22        65.44032
250.68        65.54054
251.14        64.46286
251.59        62.57481
252.05         60.5229
252.51        58.15323
252.96        55.82727
253.42        54.61731
253.88        54.85316
254.33        56.32847
254.79        59.19658
255.25        63.22062
255.70        67.87075
256.16        72.54392
256.62        76.32862
257.07        78.26163
257.53        78.46519
257.99         77.2242
258.44        74.62963
258.90        71.78233
259.35        68.89204
259.81        66.69839
260.27        64.82974
260.72        62.89598
261.18        61.06476
261.63        58.96833
262.09        57.31722
262.55        56.57828
263.00        56.60849
263.46        57.24835
263.91        57.57115
264.37        56.78586
264.83        54.90046
265.28        52.25986
265.74        49.87152
266.19        48.68335
266.65        48.85463
267.11        49.84011
267.56        50.92919
268.02        51.10833
268.47         50.1801
268.93        48.49852
269.38        46.47905
269.84        45.01651
270.30          44.346
270.75        44.21416
271.21        44.26492
271.66        43.96046
272.12        43.15681
272.57        42.02016
273.03        40.85191
273.48        40.01513
273.94        39.63176
274.39        39.51974
274.85         39.4132
275.31        38.89587
275.76        37.88772
276.22        36.57237
276.67        35.23355
277.13        34.39738
277.58         34.0908
278.04        34.17442
278.49        34.26446
278.95        33.89322
279.40        32.96187
279.86        31.73877
280.31        30.49327
280.77        29.74548
281.22        29.50753
281.68        29.61848
282.13        29.81356
282.59        29.75176
283.04        29.34847
283.50        28.77527
283.95         28.1377
284.41        27.62264
284.86        27.26289
285.32        27.01101
285.77        26.86138
286.22        26.88057
286.68        27.04154
287.13        27.29524
287.59        27.52482
288.04        27.52731
288.50        27.29418
288.95        26.85674
289.41        26.35869
289.86         25.9519
290.32        25.73291
290.77        25.64746
291.22        25.66986
291.68        25.72211
292.13        25.78754
292.59        25.91388
293.04        26.13284
293.50        26.50492
293.95        27.02239
294.40        27.63811
294.86        28.30515
295.31        28.96607
295.77        29.60109
296.22         30.2308
296.68        30.83669
297.13        31.36756
297.58         31.8358
298.04        32.26108
298.49        32.72942
298.95        33.41777
299.40        34.32767
299.85        35.38992
300.31        36.46528
300.76        37.33221
301.21        37.94062
301.67         38.3902
302.12        38.72989
302.58        39.10153
303.03         39.5258
303.48        39.98203
303.94        40.51703
304.39        41.15923
304.84        41.90516
305.30        42.73122
305.75        43.51625
306.20         44.0981
306.66        44.46399
307.11        44.64196
307.57        44.73872
308.02        44.83952
308.47        45.00308
308.93        45.19557
309.38        45.40792
309.83         45.6832
310.29        46.00659
310.74        46.36785
311.19         46.6646
311.65        46.72745
312.10         46.5271
312.55        46.11791
313.00        45.65638
313.46        45.38573
313.91         45.3441
314.36        45.47885
314.82        45.65009
315.27        45.65321
315.72        45.42459
316.18        45.04881
316.63         44.6255
317.08        44.31917
317.53        44.16435
317.99        44.08913
318.44        44.02904
318.89        43.87145
319.35        43.58362
319.80        43.21365
320.25        42.78819
320.70        42.34736
321.16        41.90895
321.61        41.46609
322.06        41.04161
322.51           40.68
322.97        40.37844
323.42        40.13516
323.87         39.8966
324.32        39.57719
324.78         39.1494
325.23        38.65016
325.68        38.11136
326.13         37.6007
326.59        37.14651
327.04        36.75612
327.49        36.42452
327.94        36.14638
328.39        35.90976
328.85        35.69368
329.30         35.5239
329.75        35.38381
330.20        35.26205
330.66        35.13667
331.11        34.98748
331.56        34.72728
332.01        34.34169
332.46        33.84898
332.92        33.32517
333.37        32.91694
333.82        32.67022
334.27        32.57278
334.72        32.54514
335.17        32.44398
335.63         32.2182
336.08        31.90782
336.53        31.61722
336.98        31.53573
337.43        31.69222
337.88        32.02213
338.34        32.31107
338.79         32.2615
339.24        31.79348
339.69        31.00174
340.14        30.14771
340.59        29.67294
341.05        29.67772
341.50        30.03293
341.95        30.48496
342.40        30.63732
342.85        30.39362
343.30        29.89498
343.75        29.30015
344.20        28.86547
344.66         28.6686
345.11        28.59336
345.56        28.60238
346.01        28.63988
346.46        28.66362
346.91        28.71108
347.36        28.68823
347.81        28.43586
348.26        27.95324
348.72        27.31385
349.17        26.67542
349.62        26.38282
350.07        26.51123
350.52        26.94242
350.97          27.487
351.42        27.85895
351.87         27.9696
352.32        27.89067
352.77        27.67805
353.22        27.42632
353.67        27.17948
354.13        26.92278
354.58        26.64287
355.03        26.36435
355.48        26.10303
355.93        25.88075
356.38        25.71672
356.83        25.62709
357.28        25.60142
357.73        25.61146
358.18        25.62871
358.63         25.6096
359.08        25.53571
359.53        25.42572
359.98        25.24964
360.43        24.96287
360.88        24.57782
361.33        24.11548
361.78        23.68883
362.23         23.4815
362.68        23.52129
363.13        23.74069
363.58        23.99679
364.03        24.06706
364.48        23.89199
364.93        23.53112
365.38        23.06917
365.83        22.65904
366.28        22.35882
366.73        22.12669
367.18        21.93601
367.63        21.74353
368.08         21.5357
368.53        21.34195
368.98        21.16673
369.43        21.00273
369.88        20.85214
370.33        20.71458
370.78        20.59392
371.23        20.50492
371.68        20.44834
372.13        20.40725
372.58        20.38744
373.03        20.40158
373.48        20.43507
373.93        20.47104
374.38        20.45396
374.83        20.30012
375.28        20.00206
375.72        19.58997
376.17        19.15334
376.62         18.7949
377.07        18.56113
377.52        18.43134
377.97        18.39751
378.42        18.44167
378.87        18.53614
379.32        18.66584
379.77        18.79555
380.22        18.87196
380.67        18.88014
381.11         18.8378
381.56        18.72364
382.01         18.5297
382.46        18.27091
382.91        17.95209
383.36        17.66327
383.81        17.53642
384.26        17.58826
384.71        17.78844
385.15        17.99717
385.60        17.99909
386.05        17.75473
386.50        17.32896
386.95        16.88815
387.40        16.69722
387.85        16.80562
388.29        17.11727
388.74        17.45667
389.19        17.57433
389.64        17.42112
390.09        17.07368
390.54        16.67931
390.98        16.46437
391.43        16.49747
391.88        16.68837
392.33        16.89423
392.78        16.91334
393.23         16.7196
393.67        16.38432
394.12        16.06156
394.57        15.90296
395.02        15.93835
395.47        16.11244
395.91        16.33062
396.36        16.41027
396.81        16.30975
397.26        16.08596
397.71        15.84407
398.15        15.72394
398.60        15.77235
399.05        15.92656
399.50        16.09505
399.95        16.15062
400.39        16.06466
400.84        15.87365
401.29         15.6614
401.74        15.57865
402.18         15.6698
402.63         15.8784
403.08        16.09207
403.53        16.13262
403.97         15.9671
404.42        15.66701
404.87        15.35585
405.32        15.23456
405.76         15.3458
406.21        15.61525
406.66        15.93078
407.11         16.1189
407.55        16.13342
408.00        16.03321
408.45        15.87083
408.90        15.69887
409.34        15.57022
409.79        15.53695
410.24         15.5709
410.68        15.56476
411.13        15.51149
411.58        15.48091
412.03        15.46564
412.47        15.42712
412.92        15.36261
413.37        15.27627
413.81        15.21448
414.26        15.26362
414.71        15.42687
415.15        15.68354
415.60        15.92721
416.05        16.00867
416.49        15.88963
416.94        15.62054
417.39        15.30562
417.83        15.11491
418.28        15.09969
418.73        15.20333
419.17         15.3485
419.62        15.40204
420.07         15.3362
420.51        15.19841
420.96        15.04421
421.41        14.93874
421.85        14.89661
422.30        14.90066
422.74        14.92987
423.19        14.98304
423.64        15.04449
424.08        15.12504
424.53         15.1876
424.98        15.19304
425.42        15.13727
425.87        15.03522
426.31        14.91345
426.76         14.8225
427.21        14.76783
427.65        14.73116
428.10        14.72859
428.54        14.76085
428.99        14.82522
429.44         14.9844
429.88        15.15047
430.33        15.08368
430.77         14.8341
431.22        14.69919
431.66        14.72109
432.11        14.79501
432.56        14.89978
433.00        15.10704
433.45        15.26507
433.89        15.15822
434.34        14.89264
434.78         14.6237
435.23        14.35367
435.67        15.05227
436.12        14.61786
436.57        14.62778
437.01         14.4971
437.46         14.4489
437.90        14.48613
438.35        14.50536
438.79         14.4882
439.24        14.46736
439.68        14.44234
440.13        14.28617
440.57        14.08857
441.02        14.21982
441.46        14.54454
441.91        14.61408
442.35        14.06986
442.80        13.87342
443.24        13.88086
443.69        13.79348
444.13        13.61684
444.58        13.51915
445.02         13.5152
445.47        13.59393
445.91        13.70489
446.36         13.7349
446.80        13.65892
447.24        13.52816
447.69        13.38739
448.13        13.27381
448.58        13.20979
449.02        13.18072
449.47        13.16646
449.91        13.12978
450.36        13.06769
450.80        12.99155
451.25        12.93088
451.69        12.91423
452.13         12.9496
452.58        13.01483
453.02        13.08699
453.47        13.13035
453.91        13.13637
454.36        13.11521
454.80        13.06954
455.24        13.00612
455.69        12.93802
456.13        12.85032
456.58        12.77554
457.02        12.75347
457.46        12.78674
457.91        12.83548
458.35        12.87254
458.79        12.88496
459.24        12.86411
459.68        12.81535
460.13        12.80137
460.57        12.79487
461.01        12.79132
461.46        13.12503
461.90        13.25901
462.34        13.15397
462.79        13.23924
463.23        13.08402
463.68        12.92994
464.12        12.82362
464.56        12.89084
465.01        13.01713
465.45        13.14764
465.89        13.21529
466.34        13.20924
466.78        13.11142
467.22        12.97713
467.67        12.98692
468.11        13.11895
468.55        13.10776
468.99        12.97298
469.44         12.9584
469.88        13.07156
470.32        13.17509
470.77        13.23322
471.21         13.2582
471.65         13.2421
472.10        13.18589
472.54        13.11508
472.98        13.10342
473.42        13.16234
473.87        13.23056
474.31        13.29396
474.75         13.4094
475.20        13.54099
475.64        13.54891
476.08        13.46667
476.52        13.46642
476.97        13.55802
477.41        13.65947
477.85        13.74028
478.29        13.79321
478.74        13.81282
479.18        13.77769
479.62        13.73573
480.06        13.76713
480.50        13.86594
480.95        13.94425
481.39        13.97625
481.83        13.98719
482.27        13.97745
482.72        13.94505
483.16        13.91253
483.60        13.91783
484.04        13.95905
484.48        14.08403
484.93        14.33531
485.37         14.4441
485.81        14.49079
486.25        15.08536
486.69        15.49386
487.14        15.04291
487.58        14.59703
488.02        15.72064
488.46        15.20862
488.90        15.44702
489.34        15.31503
489.79        15.36182
490.23         15.5687
490.67        15.77368
491.11        15.95013
491.55        15.97038
491.99        15.85771
492.43        15.80382
492.88        15.83191
493.32        15.80139
493.76          15.759
494.20        15.85291
494.64        16.09629
495.08        16.44554
495.52        16.82313
495.96        17.10003
496.41        17.25652
496.85        17.33859
497.29        17.39144
497.73        17.53101
498.17        17.75074
498.61         17.8752
499.05        17.91329
499.49        18.04999
499.93        18.29358
500.37        18.49503
500.82        18.64511
501.26        18.88201
501.70         19.1555
502.14        19.21057
502.58        19.09197
503.02        19.09159
503.46        19.23245
503.90        19.36532
504.34        19.45096
504.78        19.49018
505.22        19.47509
505.66        19.41784
506.10        19.35591
506.54         19.3451
506.98        19.40313
507.42         19.5157
507.86        19.66538
508.30         19.8222
508.74        19.96868
509.18        20.10449
509.62        20.22641
510.06        20.32989
510.50        20.41493
510.94        20.48551
511.38         20.5274
511.82        20.52151
512.26        20.47061
512.70        20.38077
513.14        20.30447
513.58        20.31919
514.02         20.4296
514.46        20.61495
514.90        20.80001
515.34        20.80434
515.78        20.63313
516.22        20.40709
516.66        20.23405
517.10        19.93875
517.54        19.55175
517.98        20.18955
518.42        20.13443
518.86         20.4282
519.30        20.53676
519.74         20.6395
520.18        20.70801
520.62        20.67551
521.06        20.56053
521.50        20.36393
521.93        20.14731
522.37        20.02255
522.81        20.01296
523.25        20.09048
523.69        20.19705
524.13        20.23788
524.57        20.18768
525.01        20.07455
525.45        19.93777
525.89        19.83943
526.32        19.79725
526.76         19.7931
527.20        19.79699
527.64        19.76713
528.08        19.69153
528.52        19.58105
528.96        19.46823
529.40         19.3997
529.83        19.38269
530.27        19.40726
530.71        19.42184
531.15        19.34796
531.59        19.17698
532.03        18.93958
532.46        18.70742
532.90        18.60753
533.34        18.65583
533.78        18.80689
534.22        18.98507
534.66        19.07432
535.09        19.04026
535.53        18.92494
535.97        18.76758
536.41        18.62812
536.85        18.53114
537.28        18.46962
537.72        18.44444
538.16         18.4006
538.60        18.42454
539.04         18.4427
539.47        18.47553
539.91        18.55758
540.35        18.69895
540.79        18.72963
541.22        18.87853
541.66        18.99381
542.10        19.15787
542.54        19.06318
542.97        19.23217
543.41        19.33961
543.85        19.52661
544.29        19.73427
544.72        19.91112
545.16        20.03609
545.60        20.09677
546.04        20.04427
546.47        19.97664
546.91        20.17423
547.35        20.59886
547.79        20.96288
548.22        21.19337
548.66        21.32421
549.10        21.38303
549.53        21.53162
549.97        21.79518
550.41        21.81605
550.84        22.00637
551.28        22.14169
551.72        22.35116
552.15        22.57266
552.59        22.80147
553.03        23.04307
553.46        23.26537
553.90        23.44124
554.34        23.56337
554.77        23.63981
555.21        23.69639
555.65        23.76354
556.08        23.84798
556.52        23.94013
556.96        24.03681
557.39        24.16338
557.83        24.30856
558.27        24.40843
558.70        24.46254
559.14        24.51848
559.57        24.57094
560.01        24.62308
560.45        24.66394
560.88        24.64601
561.32        24.62244
561.75        24.65754
562.19        24.83893
562.63        24.94922
563.06        25.00564
563.50         25.0817
563.93        25.16945
564.37        25.30232
564.80        25.36171
565.24        25.44888
565.68         25.5262
566.11        25.62363
566.55        25.76145
566.98        25.88464
567.42        25.96435
567.85        26.28313
568.29        26.15979
568.72        26.40495
569.16        26.76777
569.60        27.03531
570.03        27.18096
570.47        27.34648
570.90        27.38196
571.34        27.76719
571.77        27.65418
572.21        27.84113
572.64        28.06596
573.08        28.37379
573.51        28.47758
573.95         28.8386
574.38        29.23406
574.82        29.27879
575.25        29.54835
575.69        29.36411
576.12         29.2233
576.56         29.0947
576.99        29.14154
577.42        29.44631
577.86         29.3301
578.29        29.40208
578.73        30.01444
579.16        29.64116
579.60          29.275
580.03         29.1649
580.47        29.27994
580.90        28.92138
581.33        28.81389
581.77        28.95445
582.20         29.4815
582.64        28.99994
583.07        28.48912
583.51        28.57823
583.94         27.9064
584.37        27.57721
584.81        27.48608
585.24        27.51162
585.68        27.63564
586.11        27.50028
586.54        27.34888
586.98        27.13087
587.41        27.15605
587.85         27.2037
588.28        27.24282
588.71        27.09973
589.15        26.85564
589.58        26.38692
590.01        26.58851
590.45        26.87477
590.88        26.82636
591.31        26.85237
591.75        26.53879
592.18         26.6486
592.61        26.48761
593.05        26.84463
593.48        26.70778
593.91         27.2137
594.35         27.0019
594.78        27.29603
595.21        27.55387
595.65         27.8714
596.08        27.69846
596.51        27.70956
596.94         27.8331
597.38        27.93097
597.81         28.0451
598.24        28.36508
598.68        28.86421
599.11        29.07874
599.54         29.9005
599.97        29.86818
600.41        29.97378
600.84         30.7632
601.27        31.08505
601.70        31.52825
602.14        31.70266
602.57        32.10598
603.00         32.7078
603.43         33.1902
603.87        33.56025
604.30        33.93998
604.73        34.33424
605.16        34.86674
605.60        35.23788
606.03        35.71215
606.46        36.23174
606.89        36.95097
607.32        37.14191
607.76        37.52884
608.19         37.7758
608.62        38.24608
609.05        38.35308
609.48        38.59221
609.92        38.91294
610.35        38.87709
610.78        40.04672
611.21        40.59278
611.64        40.57348
612.07        40.75983
612.50        41.24002
612.94        41.10711
613.37        41.63837
613.80        41.87027
614.23        42.16705
614.66        42.56585
615.09        42.89252
615.52        43.35409
615.96        43.79073
616.39        44.09566
616.82        44.30553
617.25          44.184
617.68        44.34866
618.11        44.69707
618.54        45.26437
618.97        45.27011
619.40        44.77993
619.84        44.95612
620.27        44.90438
620.70        45.35709
621.13        45.87326
621.56        45.97607
621.99        45.79062
622.42        45.79996
622.85           46.09
623.28        46.30524
623.71        46.37484
624.14        46.56281
624.57        46.23322
625.00        46.08306
625.43        46.32033
625.86        45.69902
626.29        45.77983
626.72        45.54936
627.15        45.46184
627.58        45.44132
628.01        45.42902
628.44        45.31216
628.87        45.05257
629.30        44.66969
629.73        44.20123
630.16        43.90606
630.59        43.51842
631.02        43.19726
631.45        42.84832
631.88        42.48706
632.31        42.09979
632.74        41.70238
633.17        41.31237
633.60        40.80101
634.03        40.42653
634.46        39.97945
634.89        39.52695
635.32        39.05022
635.75        38.55478
636.18        38.05287
636.61        37.55937
637.04        37.09866
637.47        36.67447
637.89        36.28169
638.32        35.91364
638.75        35.57372
639.18        35.26089
639.61         34.9901
640.04        34.74269
640.47        34.42795
640.90         34.1325
641.33         33.7948
641.76        33.48067
642.18        33.25562
642.61        33.12971
643.04        33.08358
643.47        33.08025
643.90        33.05896
644.33        33.00536
644.76        32.94522
645.18        32.89916
645.61        32.90337
646.04           32.97
646.47        33.08221
646.90        33.25266
647.33        33.50362
647.75         33.8321
648.18        34.22699
648.61        34.63848
649.04        34.99197
649.47         35.2804
649.89        35.50228
650.32         35.7254
650.75        36.14355
651.18        36.76588
651.61        37.33049
652.03        37.82556
652.46        38.63416
652.89        39.68455
653.32        40.15295
653.74        40.11884
654.17        41.11166
654.60         41.6831
655.03        42.77049
655.46        42.05303
655.88         44.1134
656.31        45.34497
656.74        53.24326
657.16        50.26939
657.59        46.06102
658.02        46.50699
658.45        46.48196
658.87        47.54918
659.30        48.11531
659.73        48.48578
660.15        49.08752
660.58        48.94161
661.01        48.81958
661.44        48.63818
661.86          49.028
662.29        49.89871
662.72        50.78405
663.14        51.44617
663.57        51.44535
664.00        51.00754
664.42        51.02785
664.85        51.59978
665.27        52.15685
665.70        52.56142
666.13        52.91582
666.55        53.16744
666.98        53.22175
667.41        53.16308
667.83        53.19458
668.26        53.35233
668.69        53.56603
669.11        53.78823
669.54        53.96257
669.96        54.07984
670.39        54.15474
670.82         54.2136
671.24        54.38247
671.67        54.68672
672.09        54.89777
672.52        54.93814
672.94        55.53798
673.37        55.44473
673.80        55.37683
674.22         55.0947
674.65        55.02084
675.07        55.20581
675.50        55.45856
675.92        55.70676
676.35        55.84002
676.77        55.83295
677.20        55.73069
677.62        55.60081
678.05        55.55729
678.47        55.62579
678.90        55.76976
679.32        55.96772
679.75        56.17808
680.17        56.37321
680.60        56.60045
681.02        56.82132
681.45         56.8572
681.87        56.75795
682.30        56.76615
682.72        56.88662
683.15        56.90473
683.57        56.84293
684.00        56.78591
684.42         56.8958
684.85        56.99898
685.27         57.1445
685.70        57.32294
686.12        57.46165
686.54        57.60302
686.97        57.75909
687.39        57.34721
687.82        57.39824
688.24        57.39536
688.66        57.59335
689.09        57.65321
689.51        57.58626
689.94        57.61359
690.36         57.7307
690.78        57.79864
691.21        57.82003
691.63        57.88599
692.06        58.00068
692.48        58.18408
692.90        58.13753
693.33        58.47932
693.75        58.15473
694.17        58.19343
694.60        58.29856
695.02        58.22763
695.44        57.99791
695.87        58.09263
696.29        58.42193
696.71        58.21395
697.14        57.72316
697.56        57.95523
697.98        58.84678
698.41        59.72046
698.83           58.99
699.25        58.64869
699.68        58.41147
700.10        58.27374
700.52        58.29455
700.94        58.54954
701.37        58.82342
701.79         59.0522
702.21        59.13916
702.64        58.99973
703.06        58.89758
703.48        58.93953
703.90        59.17594
704.33        59.36494
704.75        59.43974
705.17        59.42818
705.59        59.30992
706.01        59.04479
706.44        58.76746
706.86        58.70337
707.28        58.89632
707.70         59.3432
708.12        59.87513
708.55        60.09961
708.97        59.98842
709.39        59.83814
709.81        59.71416
710.23        59.55704
710.66        59.41474
711.08        59.36141
711.50        59.39789
711.92        59.49182
712.34         59.6342
712.76        59.84246
713.19        60.05589
713.61        60.21462
714.03        60.27543
714.45        60.25485
714.87         60.2067
715.29        60.22403
715.71        60.32579
716.13        60.47763
716.56        60.62792
716.98        60.75939
717.40        60.82962
717.82         60.8597
718.24        60.84872
718.66        60.79322
719.08        60.70378
719.50        60.58274
719.92        60.47038
720.34        60.43085
720.76        60.47497
721.19        60.58144
721.61        60.71547
722.03        60.78424
722.45        60.78409
722.87         60.7316
723.29        60.66353
723.71        60.63217
724.13        60.65874
724.55        60.72538
724.97        60.83479
725.39        60.99233
725.81        61.18315
726.23        61.39895
726.65        61.60751
727.07        61.74448
727.49        61.79363
727.91        61.82966
728.33        61.75965
728.75        61.69252
729.17         61.6171
729.59        61.53558
730.01        61.47742
730.43        61.49637
730.85        61.60005
731.27        61.74595
731.69        61.89174
732.10        62.04061
732.52        62.13157
732.94        62.02993
733.36        61.79636
733.78        61.67487
734.20        61.72373
734.62        61.82482
735.04        61.89804
735.46        61.97424
735.88        62.04619
736.30        61.66156
736.72        61.61479
737.13        61.73966
737.55        62.12844
737.97          62.543
738.39        62.79959
738.81        62.43523
739.23        61.68367
739.65        61.60732
740.06        62.10942
740.48        62.40442
740.90        62.43728
741.32        61.68064
741.74        61.86378
742.16        61.75124
742.57        61.87522
742.99        62.02971
743.41        62.17288
743.83        62.32923
744.25        62.46675
744.67        62.32695
745.08        62.36846
745.50        62.22133
745.92        62.04607
746.34          61.833
746.75        61.62639
747.17        61.48772
747.59        61.44175
748.01        61.49496
748.42        61.61856
748.84         61.7951
749.26        62.02047
749.68        62.08172
750.09        62.05313
750.51        62.47796
750.93        63.11563
751.35         62.9744
751.76        62.23422
752.18        61.54974
752.60         61.9159
753.01        61.95109
753.43        61.88103
753.85        61.90397
754.27        62.00694
754.68        62.21242
755.10        62.44694
755.52        62.36103
755.93        62.21284
756.35        62.15668
756.77        62.28587
757.18        62.37391
757.60        62.45882
758.02        62.61936
758.43         62.7688
758.85        62.81437
759.26          63.232
759.68        62.31869
760.10        62.56261
760.51         62.2329
760.93        62.21282
761.34        61.58554
761.76        62.44687
762.18        62.21224
762.59        61.64648
763.01        61.51064
763.42        61.90952
763.84        62.38678
764.26        62.77961
764.67        62.72142
765.09        62.39037
765.50        62.60483
765.92        63.27273
766.33         63.4414
766.75        63.01704
767.16        62.68732
767.58        62.49999
768.00         62.0943
768.41        61.67982
768.83        61.89005
769.24         62.5973
769.66        63.15204
770.07        63.37001
770.49        63.20506
770.90        62.83725
771.32        62.93231
771.73        63.43925
772.15        63.61091
772.56        63.39827
772.97        63.16922
773.39        62.95336
773.80        62.71719
774.22        62.47339
774.63        62.20869
775.05        61.99118
775.46        61.98484
775.88        62.18687
776.29         62.5723
776.70        62.97829
777.12        63.16018
777.53        63.06476
777.95         62.7324
778.36         62.3197
778.77         62.1102
779.19        62.18203
779.60        62.49639
780.02        62.85086
780.43        63.09075
780.84        63.16783
781.26        62.76224
781.67        62.17695
782.09        62.80911
782.50         64.2664
782.91        64.32204
783.33        63.10706
783.74        62.73835
784.15        63.30033
784.57        63.60521
784.98        63.51735
785.39        63.29688
785.81        62.97242
786.22         62.6614
786.63        62.45003
787.04        62.31871
787.46         62.2954
787.87        62.44765
788.28        62.71781
788.70        62.93422
789.11        63.04885
789.52        63.11568
789.93        63.16265
790.35        63.20864
790.76        63.26868
791.17        63.35032
791.58        63.41587
792.00        63.31233
792.41        63.04594
792.82         62.8586
793.23         62.7566
793.65         62.3992
794.06        62.00683
794.47        62.31172
794.88        63.10004
795.29        63.91153
795.71        63.65004
796.12        63.58335
796.53        63.45953
796.94         63.0121
797.35         62.4141
797.76        62.27069
798.18        62.56842
798.59        62.75679
799.00        62.78876
799.41        63.02544
799.82        63.41192
800.23        63.65598
800.64        63.70992
801.06        63.61912
801.47        63.47257
801.88        63.36481
802.29        63.32671
802.70        63.31184
803.11         63.2917
803.52        63.22664
803.93        63.11763
804.34        63.00447
804.75         62.8911
805.17        62.81136
805.58        62.78718
805.99        62.67568
806.40        62.57252
806.81        62.90673
807.22        63.43732
807.63         63.8283
808.04        62.99613
808.45        62.95091
808.86        63.44427
809.27        64.07188
809.68        64.63971
810.09        64.93993
810.50        64.89024
810.91        64.60484
811.32        64.20337
811.73         63.8042
812.14        63.46959
812.55        63.22603
812.96        63.05514
813.37        62.81923
813.78        62.56273
814.19        62.53561
814.60        62.69085
815.01        62.76916
815.42        62.74303
815.83          62.712
816.24        62.73046
816.65        62.84525
817.05        63.07312
817.46          63.362
817.87        63.60725
818.28           63.61
818.69         63.3456
819.10        62.87341
819.51        62.39071
819.92        62.25367
820.33        62.55586
820.74        63.17831
821.14        63.91612
821.55        64.40888
821.96         64.5623
822.37        64.47028
822.78        64.23282
823.19        64.02134
823.60        63.90411
824.00        63.84576
824.41        63.79515
824.82         63.7552
825.23         63.7167
825.64        63.70264
826.04        63.72998
826.45        63.76736
826.86        63.81837
827.27        63.88326
827.68        63.93108
828.08        63.93744
828.49        63.85199
828.90        63.69898
829.31        63.54235
829.72        63.49808
830.12        63.60767
830.53        63.80371
830.94        64.00136
831.35        64.04063
831.75        63.91297
832.16        63.63456
832.57        63.32453
832.97        63.16483
833.38        63.19231
833.79        63.34062
834.20        63.54528
834.60        63.69896
835.01        63.77899
835.42        63.83018
835.82        63.82687
836.23        63.67705
836.64        63.40155
837.04        63.01446
837.45        62.65688
837.86        62.60225
838.26        62.90839
838.67        63.47794
839.08        64.08676
839.48         64.3056
839.89        64.02887
840.29         63.4222
840.70        62.77034
841.11        62.42985
841.51        62.50844
841.92        62.84462
842.33        63.37335
842.73        63.98507
843.14        64.51542
843.54        65.03893
843.95        65.39714
844.35        65.40196
844.76        65.04458
845.17        64.40642
845.57        63.69265
845.98        63.24289
846.38        63.14673
846.79        63.31656
847.19        63.70691
847.60        64.10294
848.00        64.46197
848.41        64.77814
848.81        65.06689
849.22        65.27552
849.62        65.43008
850.03        65.46791
850.43        65.44306
850.84        65.39723
851.24        65.40054
851.65        65.41309
852.05        65.43011
852.46        65.38615
852.86        65.28894
853.27        65.02554
853.67         64.6731
854.07        64.81551
854.48        65.28641
854.88        65.25062
855.29        64.67744
855.69        64.40714
856.10        64.42852
856.50        64.31261
856.90        64.08276
857.31        64.06799
857.71        64.35706
858.12        64.79215
858.52        65.24818
858.92        65.42659
859.33        65.25092
859.73        64.81976
860.13         64.3109
860.54        64.07504
860.94        64.25891
861.34        64.72237
861.75         65.1946
862.15        65.32225
862.55        64.97902
862.96        64.33903
863.36        63.58327
863.76        62.99194
864.17        62.67396
864.57        62.55525
864.97        62.65995
865.38         63.0154
865.78        63.62579
866.18        64.41373
866.58        65.13831
866.99        65.36824
867.39        65.02209
867.79        64.19521
868.19        63.06991
868.60        61.94415
869.00        60.91399
869.40        59.97295
869.80        59.29368
870.21        59.12944
870.61         59.5564
871.01        60.46977
871.41        61.51958
871.81        62.12766
872.22        62.18626
872.62        61.84614
873.02        61.30607
873.42        61.19172
873.82        61.37487
874.22        61.02047
874.63        60.42721
875.03        60.29871
875.43          60.724
875.83        62.80368
876.23        62.59556
876.63        61.67316
877.03        59.33596
877.44        55.77254
877.84        141.4098
878.24        55.57842
878.64        57.77417
879.04        63.56044
879.44         59.8452
879.84        58.01145
880.24        63.94398
880.64        64.44314
881.04        60.89407
881.44        58.51392
881.84        58.12414
882.24        58.88437
882.65        60.22146
883.05        60.84998
883.45        60.36686
883.85        59.60399
884.25        58.99399
884.65        58.79788
885.05        59.12558
885.45        59.83039
885.85         60.6053
886.25        60.98535
886.65        60.84075
887.05        60.32422
887.45        59.72553
887.85          59.474
888.25        59.67514
888.65        60.20145
889.04        60.84025
889.44        61.15954
889.84        61.06502
890.24        60.68764
890.64        60.23302
891.04        60.00606
891.44        60.05728
891.84        60.24731
892.24        60.42897
892.64        60.36129
893.04        59.99987
893.44        59.50757
893.83        58.91802
894.23        58.27795
894.63        57.62695
895.03        56.93407
895.43        56.42236
895.83        56.47005
896.23        57.11292
896.63        58.23402
897.02        59.40365
897.42        59.83828
897.82        59.37019
898.22        58.26167
898.62         56.9721
899.01        56.21334
899.41        56.19379
899.81        56.66018
900.21         57.4167
900.61        58.17435
901.00        58.79143
901.40        59.31922
901.80        59.70086
902.20        59.81409
902.59        59.65349
902.99        59.25378
903.39        58.67234
903.79        58.03046
904.18        57.41989
904.58        56.89591
904.98        56.62612
905.38        56.85428
905.77        57.56653
906.17        58.63833
906.57        59.76484
906.96        60.49001
907.36        60.63208
907.76        60.29944
908.15        59.67893
908.55        59.03391
908.95        58.49942
909.34        58.05901
909.74        57.64373
910.14        57.11433
910.53        56.46629
910.93        55.82131
911.33        55.45747
911.72        55.80433
912.12        56.84121
912.52        58.33027
912.91        59.78683
913.31        60.37902
913.70        59.97579
914.10        58.80018
914.49        57.19371
914.89        55.99907
915.29        55.54055
915.68        55.61085
916.08        56.05581
916.47        56.64191
916.87        57.21003
917.26        57.82039
917.66        58.33865
918.05        58.56661
918.45        58.45573
918.84        58.11324
919.24         57.5586
919.64        56.86077
920.03        56.11592
920.42          55.334
920.82        54.88702
921.21        55.30148
921.61        56.55326
922.00        58.49114
922.40        60.39416
922.79        61.31597
923.19        61.03445
923.58        59.53687
923.98        57.28112
924.37        56.11003
924.77        56.72463
925.16        54.12178
925.55         56.4566
925.95        56.63609
926.34        57.01742
926.74        57.43603
927.13        57.97314
927.52        58.48486
927.92        58.88638
928.31        59.26553
928.70        59.45168
929.10         59.2357
929.49        58.60324
929.89        57.62928
930.28        56.72249
930.67        56.52901
931.07        57.13453
931.46        58.40378
931.85        59.75438
932.24        60.30538
932.64        59.85123
933.03        58.51758
933.42        56.83791
933.82        55.90768
934.21        56.03156
934.60        56.89836
934.99        57.67166
935.39        57.60598
935.78        56.60459
936.17         54.1363
936.56        50.59625
936.96        51.97684
937.35        51.22704
937.74        53.78002
938.13        56.28263
938.53        57.69902
938.92        57.90662
939.31        57.29733
939.70        56.36605
940.09        55.84615
940.49        56.04547
940.88        56.71418
941.27          57.593
941.66        58.36506
942.05        58.90093
942.44        59.26393
942.84         59.5337
943.23        59.82978
943.62        60.15258
944.01        60.48935
944.40        60.55877
944.79         59.9225
945.18        58.54118
945.57        56.55036
945.97        54.64659
946.36        53.99401
946.75        54.93369
947.14        56.98759
947.53        59.25518
947.92        60.51967
948.31        60.53426
948.70        59.67652
949.09        58.35051
949.48        57.27374
949.87        56.73338
950.26        56.50404
950.65        56.51814
951.04        56.68377
951.43        56.91719
951.82        57.27594
952.21        57.64128
952.60        57.77489
952.99        57.62265
953.38         57.2323
953.77        56.67728
954.16        56.10359
954.55        55.58146
954.94        55.09617
955.33        54.71283
955.72        54.52029
956.11        54.54963
956.50        54.82186
956.89        55.25499
957.28        55.66058
957.66        55.96816
958.05        56.10051
958.44        56.17295
958.83        56.37349
959.22        56.71748
959.61        57.15248
960.00        57.42595
960.39        57.10495
960.78        56.13018
961.16        54.66534
961.55        53.19538
961.94        52.32427
962.33        52.19357
962.72        52.64613
963.11        53.33326
963.49         53.6525
963.88        53.35515
964.27        52.65318
964.66        51.84876
965.04        51.43891
965.43        51.55988
965.82        52.05867
966.21        52.69933
966.60        53.10793
966.98        53.19728
967.37        53.07489
967.76        52.96656
968.15        53.20906
968.53         53.8708
968.92        54.71397
969.31        55.53353
969.69        56.00684
970.08         55.9682
970.47        55.55551
970.86        54.79124
971.24        53.67569
971.63        52.35423
972.02        50.88685
972.40        49.50294
972.79        48.63123
973.17        48.40525
973.56        48.66493
973.95        49.33718
974.33        50.23394
974.72        51.09733
975.11        51.93737
975.49        52.46717
975.88        52.26081
976.26        51.29907
976.65        49.74895
977.04        48.01163
977.42        46.81154
977.81        46.42106
978.19        46.65239
978.58          47.362
978.96        48.24076
979.35        49.08828
979.74        50.07802
980.12        51.05057
980.51        51.48848
980.89        51.41166
981.28        50.81916
981.66        50.23557
982.05        50.43957
982.43        51.52804
982.82        53.24391
983.20        55.07304
983.59        55.79635
983.97        55.15503
984.35        53.45004
984.74        51.37064
985.12        49.88666
985.51        49.30047
985.89        49.29718
986.28        49.62169
986.66        49.75019
987.04        49.45652
987.43        49.03008
987.81        48.41379
988.20        47.40655
988.58         45.8959
988.96        43.66478
989.35        41.19345
989.73        39.91908
990.12        40.59042
990.50        42.78472
990.88        45.16173
991.27        46.13823
991.65        45.72792
992.03        44.34948
992.42        42.80907
992.80        42.59863
993.18        44.17434
993.56        46.69993
993.95        49.42434
994.33        51.81306
994.71        53.44978
995.10        54.57789
995.48        54.95222
995.86        54.04068
996.24        51.81766
996.63         48.3424
997.01         44.2477
997.39        41.60511
997.77        41.38005
998.15        42.98021
998.54        45.30017
998.92        47.10709
999.30        48.15046
999.68        48.86681
1000.06        48.94818
1000.45        47.74019
1000.83        45.48859
1001.21        42.67038
1001.59        40.39347
1001.97        39.48599
1002.35        39.74926
1002.73        40.97243
1003.12        42.57071
1003.50        43.03468
1003.88        41.75526
1004.26        39.38376
1004.64        36.63056
1005.02         34.4098
1005.40        33.00553
1005.78         32.0314
1006.16        32.05835
1006.54          34.033
1006.92        37.45872
1007.30        41.43932
1007.69        44.52257
1008.07        45.47467
1008.45        43.97451
1008.83        39.83272
1009.21        32.64481
1009.59        24.33298
1009.97        18.11696
1010.35         15.1113
1010.73         15.8251
1011.11        19.01084
1011.49        23.48017
1011.86        29.47038
1012.24        34.60893
1012.62        36.92789
1013.00        36.37201
1013.38        33.50874
1013.76        29.79078
1014.14        27.91187
1014.52         28.6181
1014.90        31.15709
1015.28        34.09326
1015.66        34.95862
1016.04        32.92159
1016.41        28.51121
1016.79        22.92861
1017.17         19.1708
1017.55        18.70382
1017.93        20.35908
1018.31        22.72951
1018.69        24.56615
1019.06        25.57745
1019.44         25.8902
1019.82        25.54351
1020.20        24.43506
1020.58        22.64265
1020.95        20.39537
1021.33         17.2407
1021.71        11.39116
1022.09       0.9702641
1022.46       -19.22528
1022.84       -49.44992
1023.22       -59.66852
1023.60       -32.57605
1023.97      -0.7024267
1024.35        17.57068
1024.73        23.70065
