SpectraSmart Spectrum 2.9.0.0
--------- Device Information -----------
Spectrum Name :  反射率_0
Saving Time :  2024/04/20 00:17:35
Spectro-Module Model Name : SE2030-DUVN
Spectro-Module Serial Number : OS361AC55029948
Wavelength Start : 200
Wavelength End : 1025
Wavelength Unit : Wavelength(nm)
Spectrum Unit : Reflectance(%)
-----------Spectrum Setting ------------
Integration Time : 30ms
Average : 10
Boxcar : 0
Background removal :  enabled
linearity correction :  enabled
SC :  disabled
Intensity correction :  disabled
DWT denoise :  enabled
savitzky-golay :  disabled
FFT :  disabled
Running average :  disabled
Kalman :  disabled
High pass :  disabled
---------------BEGIN--------------------
Wavelength(nm)             Reflectance(%)
200.29               0
200.75        66.18746
201.21        69.38445
201.67        75.73866
202.13        83.83058
202.58        92.52834
203.04        102.0904
203.50        109.8398
203.96        110.0495
204.42        103.4908
204.88        94.32058
205.34        86.48243
205.80        81.72711
206.26        79.14099
206.72        77.67261
207.18        77.23302
207.64        77.65152
208.10          78.738
208.55        81.02181
209.01        82.52702
209.47        82.29226
209.93        80.65395
210.39        77.95282
210.85        75.48575
211.31        74.86781
211.77        76.22946
212.23        79.39416
212.69        83.35706
213.14         84.2597
213.60        80.70927
214.06        76.20733
214.52        72.71592
214.98        71.01696
215.44        70.70989
215.90        70.91812
216.36        72.25148
216.81        75.80715
217.27        81.03754
217.73        87.35511
218.19        92.00812
218.65        91.36539
219.11        84.97684
219.57         73.2877
220.02        59.31295
220.48        51.33289
220.94        52.53348
221.40        61.30234
221.86        73.16711
222.32        80.92825
222.77        82.56578
223.23        80.50249
223.69        77.01923
224.15        75.38024
224.61        76.12244
225.06        77.61382
225.52        79.11417
225.98         80.1823
226.44        80.72952
226.90        81.03922
227.36        81.07282
227.81         80.4958
228.27        79.61925
228.73        78.55986
229.19         77.4149
229.65        76.28275
230.10        75.20375
230.56        74.29047
231.02        73.74592
231.48        73.92233
231.93        74.66319
232.39        75.78333
232.85        76.75691
233.31        76.82534
233.77        75.84518
234.22         74.1068
234.68        71.93907
235.14        69.89186
235.60        68.29044
236.05        67.05185
236.51        66.32581
236.97        66.28861
237.43        66.97155
237.88        68.69296
238.34        71.00626
238.80        72.85021
239.26         73.3045
239.71        72.34489
240.17        70.45766
240.63        69.12714
241.08         68.8487
241.54        69.26324
242.00        69.82848
242.46        69.38256
242.91        67.34466
243.37        63.23098
243.83        57.72112
244.28        55.51297
244.74        60.50273
245.20        71.10318
245.66        80.52383
246.11        83.55914
246.57        79.77269
247.03        69.31306
247.48        54.47807
247.94        49.31464
248.40        56.36495
248.85        66.00896
249.31        73.31132
249.77        77.06827
250.22        78.29085
250.68        78.17391
251.14        77.33952
251.59        76.83805
252.05        77.38892
252.51         78.7852
252.96        80.10757
253.42        80.13049
253.88        78.76612
254.33        76.62178
254.79        75.68781
255.25        77.52029
255.70        81.56027
256.16        86.57654
256.62         90.6842
257.07        91.79809
257.53        90.20454
257.99        86.83314
258.44        82.63092
258.90        79.71563
259.35        77.93859
259.81        77.29937
260.27         76.8484
260.72         75.8161
261.18        74.50873
261.63        72.71005
262.09        71.28306
262.55        70.79018
263.00        71.07321
263.46        71.95018
263.91        72.43337
264.37        71.78254
264.83        69.98521
265.28        67.39299
265.74        65.03605
266.19         63.8009
266.65        63.89024
267.11        64.76335
267.56        65.74776
268.02        65.91964
268.47        65.07442
268.93        63.54708
269.38        61.69963
269.84        60.33687
270.30        59.66085
270.75        59.42774
271.21        59.32798
271.66        58.87693
272.12        57.95748
272.57        56.72635
273.03        55.44851
273.48        54.41353
273.94        53.76288
274.39          53.341
274.85         52.9958
275.31        52.43865
275.76        51.58435
276.22        50.55949
276.67         49.5121
277.13        48.80759
277.58        48.41666
278.04        48.27143
278.49        48.03961
278.95        47.37329
279.40        46.18649
279.86        44.73772
280.31        43.26115
280.77        42.26733
281.22        41.75158
281.68        41.59052
282.13        41.52042
282.59        41.22663
283.04        40.61788
283.50        39.86421
283.95        39.06381
284.41        38.41879
284.86        37.94719
285.32        37.61096
285.77        37.36574
286.22        37.23509
286.68        37.19826
287.13        37.21363
287.59        37.22831
288.04        37.10799
288.50        36.85649
288.95        36.46649
289.41        36.02549
289.86          35.588
290.32        35.23376
290.77        34.93813
291.22        34.72115
291.68         34.5725
292.13         34.4905
292.59        34.51068
293.04        34.65034
293.50        34.95557
293.95         35.4127
294.40        35.99038
294.86        36.64104
295.31        37.30289
295.77        37.94976
296.22        38.58281
296.68        39.19445
297.13        39.75705
297.58        40.27718
298.04        40.77083
298.49        41.25636
298.95        41.81161
299.40        42.43223
299.85        43.09245
300.31        43.77824
300.76        44.44951
301.21        45.09026
301.67        45.74186
302.12        46.32403
302.58        46.79794
303.03        47.13984
303.48        47.39295
303.94        47.69631
304.39        48.21413
304.84        48.97442
305.30        49.89791
305.75        50.79472
306.20        51.40894
306.66        51.70507
307.11        51.74551
307.57        51.67288
308.02        51.61259
308.47        51.64123
308.93        51.70938
309.38        51.80591
309.83        51.97968
310.29        52.21651
310.74        52.51191
311.19        52.74884
311.65        52.72884
312.10        52.42089
312.55        51.89125
313.00         51.3311
313.46        51.03787
313.91        51.05656
314.36        51.31283
314.82        51.62667
315.27        51.72979
315.72        51.53525
316.18        51.14483
316.63        50.67678
317.08        50.32974
317.53        50.15257
317.99        50.06802
318.44        50.00796
318.89        49.85294
319.35        49.57016
319.80        49.21261
320.25         48.8252
320.70        48.47379
321.16        48.17695
321.61        47.92029
322.06         47.6859
322.51        47.45354
322.97        47.20542
323.42        46.95755
323.87        46.70565
324.32        46.44939
324.78        46.17937
325.23        45.90868
325.68        45.61606
326.13        45.28048
326.59        44.90211
327.04        44.51777
327.49        44.16038
327.94        43.88925
328.39         43.7159
328.85        43.60075
329.30        43.55715
329.75        43.53095
330.20        43.49781
330.66        43.44575
331.11        43.37502
331.56        43.22459
332.01        42.98497
332.46        42.66036
332.92        42.29517
333.37        41.99862
333.82        41.79881
334.27        41.69304
334.72        41.62758
335.17        41.50352
335.63        41.28645
336.08        41.02069
336.53        40.78741
336.98        40.73949
337.43        40.90056
337.88        41.21767
338.34        41.52124
338.79        41.58676
339.24        41.34355
339.69        40.86207
340.14        40.32686
340.59        40.05079
341.05        40.10358
341.50        40.39386
341.95        40.75047
342.40        40.90784
342.85        40.80207
343.30         40.5331
343.75        40.20017
344.20        39.96206
344.66        39.86522
345.11        39.82349
345.56        39.83112
346.01        39.88175
346.46        39.94708
346.91        40.04377
347.36        40.06212
347.81        39.82157
348.26        39.31907
348.72        38.64439
349.17        37.96726
349.62        37.64453
350.07        37.75683
350.52        38.17693
350.97        38.72606
351.42        39.13544
351.87        39.31155
352.32        39.31792
352.77        39.17197
353.22        38.90741
353.67        38.56071
354.13        38.14218
354.58        37.68391
355.03        37.28801
355.48        36.99056
355.93        36.79183
356.38        36.68295
356.83        36.63288
357.28        36.61661
357.73        36.62183
358.18        36.62424
358.63        36.58848
359.08        36.49585
359.53        36.34814
359.98         36.1244
360.43        35.79765
360.88        35.37897
361.33        34.89019
361.78        34.40508
362.23        34.04379
362.68        33.83487
363.13        33.74086
363.58        33.69417
364.03        33.58476
364.48        33.37205
364.93        33.07715
365.38        32.71703
365.83         32.3287
366.28        31.93657
366.73        31.53893
367.18        31.14391
367.63        30.76365
368.08        30.40797
368.53        30.08596
368.98        29.81328
369.43        29.60317
369.88        29.45102
370.33        29.34814
370.78        29.25916
371.23        29.12924
371.68        28.94322
372.13        28.70794
372.58        28.46405
373.03        28.28579
373.48        28.18847
373.93        28.14664
374.38         28.1076
374.83        27.98857
375.28        27.77108
375.72        27.47479
376.17        27.16538
376.62        26.90696
377.07        26.72605
377.52        26.60232
377.97        26.51902
378.42        26.45037
378.87         26.3813
379.32        26.31492
379.77        26.24575
380.22        26.16267
380.67        26.06118
381.11        25.94505
381.56        25.79672
382.01        25.61296
382.46        25.39932
382.91        25.15949
383.36        24.92993
383.81        24.76077
384.26        24.66132
384.71         24.6279
385.15        24.60163
385.60        24.49913
386.05        24.30453
386.50        24.04008
386.95        23.79403
387.40        23.70628
387.85        23.79466
388.29        24.00084
388.74        24.21077
389.19         24.2473
389.64        24.07843
390.09        23.75275
390.54        23.38741
390.98        23.16331
391.43        23.14236
391.88        23.25227
392.33         23.3749
392.78        23.33916
393.23        23.12694
393.67        22.79752
394.12        22.49334
394.57        22.33186
395.02        22.33944
395.47         22.4679
395.91        22.65496
396.36        22.76683
396.81        22.76918
397.26         22.6923
397.71        22.58986
398.15        22.52608
398.60        22.54345
399.05        22.60347
399.50        22.65333
399.95        22.62017
400.39        22.49079
400.84         22.2851
401.29        22.07484
401.74        21.98972
402.18        22.06695
402.63        22.25971
403.08        22.45913
403.53        22.48825
403.97        22.31384
404.42        22.00414
404.87        21.68281
405.32        21.55424
405.76        21.66067
406.21        21.92958
406.66        22.24335
407.11        22.41879
407.55        22.40953
408.00        22.27906
408.45        22.09265
408.90        21.90768
409.34        21.78785
409.79          21.815
410.24        21.93279
410.68        21.96405
411.13        21.89635
411.58        21.82628
412.03         21.7784
412.47         21.7607
412.92        21.77724
413.37        21.81379
413.81        21.87462
414.26        21.98508
414.71        22.13422
415.15        22.32286
415.60        22.47435
416.05        22.49439
416.49        22.36456
416.94        22.11981
417.39         21.8501
417.83         21.7012
418.28        21.71489
418.73        21.84053
419.17        22.00527
419.62         22.0844
420.07        22.05058
420.51          21.948
420.96        21.82295
421.41        21.72293
421.85        21.66135
422.30        21.63328
422.74        21.63995
423.19        21.72137
423.64        21.86643
424.08        22.07718
424.53        22.28281
424.98        22.39025
425.42        22.37769
425.87        22.27224
426.31        22.12579
426.76        22.03135
427.21        22.00454
427.65        22.01031
428.10        22.05366
428.54        22.12189
428.99        22.21066
429.44        22.39322
429.88        22.56297
430.33        22.47694
430.77         22.1761
431.22        21.93532
431.66        21.84933
432.11        21.94728
432.56        22.21183
433.00         22.6452
433.45        22.99832
433.89        22.94359
434.34         22.6212
434.78        22.26043
435.23        21.86273
435.67        22.92197
436.12        22.23781
436.57        22.18785
437.01        21.92132
437.46        21.86316
437.90        22.02917
438.35        22.22632
438.79        22.37576
439.24        22.44915
439.68        22.42774
440.13        22.14453
440.57        21.77044
441.02        21.93058
441.46        22.43339
441.91        22.56499
442.35        21.77898
442.80        21.56776
443.24        21.70943
443.69        21.73351
444.13        21.60585
444.58        21.51425
445.02         21.4719
445.47        21.48492
445.91         21.5282
446.36        21.51147
446.80        21.42202
447.24        21.31736
447.69        21.23104
448.13        21.16864
448.58        21.14607
449.02        21.15326
449.47        21.17724
449.91        21.18894
450.36        21.18485
450.80        21.16715
451.25        21.14995
451.69        21.13364
452.13         21.1277
452.58        21.12649
453.02        21.12927
453.47        21.14028
453.91        21.15939
454.36        21.18223
454.80         21.2043
455.24         21.2141
455.69        21.21585
456.13        21.19161
456.58        21.15998
457.02        21.13877
457.46        21.12967
457.91        21.07936
458.35        21.00226
458.79        20.97702
459.24         21.0022
459.68         21.0622
460.13        21.18079
460.57        21.19364
461.01        21.06869
461.46        21.40249
461.90         21.3938
462.34        21.12225
462.79        21.30456
463.23        21.20738
463.68        21.14401
464.12        21.06768
464.56        21.14772
465.01         21.2466
465.45        21.32809
465.89        21.35911
466.34        21.33883
466.78        21.20654
467.22        21.03431
467.67        21.08947
468.11        21.32577
468.55        21.32353
468.99        21.10562
469.44        21.05242
469.88        21.17717
470.32         21.2631
470.77         21.2793
471.21        21.28494
471.65        21.27697
472.10        21.23869
472.54        21.19601
472.98        21.23312
473.42        21.35526
473.87         21.4754
474.31        21.56297
474.75        21.70562
475.20        21.84875
475.64        21.76841
476.08        21.54565
476.52        21.49545
476.97         21.6393
477.41        21.83405
477.85        22.00303
478.29        22.08601
478.74        22.06318
479.18        21.92039
479.62        21.75858
480.06        21.73867
480.50        21.86279
480.95        21.98357
481.39        22.05329
481.83        22.10232
482.27         22.1222
482.72        22.10321
483.16        22.08041
483.60        22.10572
484.04        22.17945
484.48        22.36509
484.93        22.69625
485.37        22.76989
485.81        22.82969
486.25        23.39523
486.69        24.12927
487.14        23.54518
487.58        23.02256
488.02        23.77426
488.46         23.4556
488.90        23.69043
489.34        23.56734
489.79        23.67903
490.23        23.96499
490.67        24.14207
491.11        24.20139
491.55        24.17055
491.99         24.0867
492.43        24.05017
492.88        24.08581
493.32        24.12215
493.76        24.18767
494.20        24.34587
494.64        24.59534
495.08        24.95993
495.52        25.35641
495.96        25.54972
496.41        25.57503
496.85        25.68834
497.29        25.90351
497.73        26.12788
498.17        26.32291
498.61        26.36864
499.05        26.30532
499.49        26.38749
499.93        26.63899
500.37        26.84453
500.82        26.99391
501.26        27.28814
501.70        27.65319
502.14        27.72249
502.58        27.54764
503.02        27.52782
503.46        27.69159
503.90        27.82628
504.34        27.89443
504.78        27.93085
505.22        27.92835
505.66        27.88968
506.10         27.8434
506.54        27.82936
506.98        27.86355
507.42        27.94198
507.86        28.05534
508.30        28.18582
508.74         28.3216
509.18        28.45751
509.62        28.59764
510.06        28.74854
510.50        28.90771
510.94         29.0745
511.38        29.20911
511.82        29.25035
512.26        29.19291
512.70        29.05599
513.14        28.92187
513.58        28.91598
514.02        29.05525
514.46        29.30498
514.90        29.57095
515.34        29.63154
515.78        29.50381
516.22        29.28684
516.66        29.09601
517.10        28.79138
517.54        28.41061
517.98        28.94722
518.42        28.87385
518.86        29.12221
519.30        29.21761
519.74         29.3164
520.18        29.40416
520.62        29.43661
521.06         29.4268
521.50        29.36859
521.93        29.27751
522.37         29.1911
522.81        29.12181
523.25        29.06683
523.69        29.02844
524.13        29.00734
524.57        28.99939
525.01        29.00125
525.45        29.00573
525.89        28.99966
526.32        28.97661
526.76         28.9416
527.20        28.88426
527.64        28.79395
528.08        28.67212
528.52         28.5206
528.96         28.3699
529.40        28.26564
529.83        28.21397
530.27        28.21023
530.71        28.20724
531.15        28.13171
531.59        27.97417
532.03        27.76237
532.46         27.5527
532.90        27.45301
533.34        27.47519
533.78        27.58035
534.22        27.71185
534.66        27.78322
535.09        27.76557
535.53         27.6949
535.97        27.59209
536.41        27.48661
536.85        27.39551
537.28        27.32489
537.72        27.29285
538.16        27.24546
538.60        27.31646
539.04         27.3827
539.47        27.45777
539.91        27.57303
540.35         27.7386
540.79        27.71101
541.22        27.84578
541.66        27.94238
542.10        28.12974
542.54        27.95515
542.97         28.1709
543.41        28.27532
543.85        28.47228
544.29        28.68149
544.72        28.85468
545.16         29.0013
545.60        29.10555
546.04        29.08067
546.47        29.02705
546.91        29.28457
547.35        29.78659
547.79        30.14376
548.22        30.29774
548.66        30.36522
549.10        30.40044
549.53        30.61375
549.97        31.01969
550.41        31.07833
550.84        31.36156
551.28        31.55323
551.72        31.83708
552.15        32.12226
552.59        32.40356
553.03         32.6884
553.46         32.9277
553.90        33.08351
554.34        33.14859
554.77        33.14025
555.21        33.11428
555.65         33.1448
556.08        33.24814
556.52        33.40163
556.96         33.5778
557.39        33.77291
557.83        33.96263
558.27        34.06986
558.70        34.11064
559.14        34.18064
559.57        34.27551
560.01        34.38569
560.45        34.48662
560.88        34.48616
561.32        34.44972
561.75        34.51512
562.19        34.79535
562.63        34.88277
563.06        34.84544
563.50        34.98505
563.93           35.26
564.37        35.49825
564.80        35.52223
565.24        35.59873
565.68          35.678
566.11        35.76966
566.55        35.90739
566.98        35.98323
567.42        35.98569
567.85        36.44096
568.29        36.36882
568.72        36.68962
569.16        37.05484
569.60        37.35282
570.03        37.51411
570.47        37.64754
570.90         37.5829
571.34          38.092
571.77        37.96661
572.21        38.31357
572.64        38.60415
573.08        38.81446
573.51        38.95994
573.95        39.52348
574.38        39.81321
574.82         40.0601
575.25        40.01351
575.69        40.12273
576.12        39.96824
576.56        39.89735
576.99        39.78642
577.42        40.12049
577.86        39.98697
578.29        39.84232
578.73        40.56663
579.16        40.17737
579.60        39.86441
580.03        39.84087
580.47        39.69309
580.90         39.2436
581.33        39.10014
581.77        39.39452
582.20        39.90206
582.64        39.62165
583.07        39.16456
583.51        38.91533
583.94        38.37851
584.37        38.43455
584.81         37.9972
585.24        38.01852
585.68        38.13952
586.11        37.93195
586.54        37.80051
586.98        37.61011
587.41        37.52948
587.85        37.58372
588.28        37.70017
588.71        37.52293
589.15        37.10414
589.58        36.87969
590.01        36.90271
590.45         37.2086
590.88        37.24062
591.31        37.13961
591.75        36.75001
592.18        36.89081
592.61        36.78793
593.05        37.20252
593.48        36.93196
593.91        38.09183
594.35         37.5379
594.78        37.30139
595.21        37.90131
595.65         38.2754
596.08        38.32665
596.51        38.38187
596.94        38.34692
597.38        38.46292
597.81        38.72862
598.24        39.11786
598.68        39.75557
599.11        39.75495
599.54        40.92496
599.97         40.8466
600.41        40.84108
600.84        41.35952
601.27        42.06308
601.70        42.63908
602.14        42.87978
602.57        43.25524
603.00        43.80827
603.43        44.36894
603.87        44.87102
604.30        45.45809
604.73         46.1368
605.16        46.16934
605.60        46.66255
606.03        47.25195
606.46        48.03138
606.89        48.82382
607.32        49.40829
607.76        49.20483
608.19        49.84663
608.62        50.59744
609.05        50.58782
609.48        50.66295
609.92        51.00622
610.35        51.08632
610.78        52.39385
611.21        52.96643
611.64         52.6982
612.07        53.25884
612.50         53.5293
612.94        53.42116
613.37        54.13175
613.80         54.5653
614.23        55.10215
614.66        55.46345
615.09        55.68446
615.52        56.13322
615.96        56.68361
616.39        57.02119
616.82        57.34683
617.25        56.94836
617.68        57.39698
618.11        57.88286
618.54        58.45966
618.97         58.5799
619.40        58.26214
619.84        58.04669
620.27        58.03038
620.70        58.50049
621.13        59.31155
621.56        59.57737
621.99        59.28432
622.42         59.3111
622.85         59.6881
623.28        59.94488
623.71        60.03629
624.14        60.02414
624.57        59.87739
625.00        59.53378
625.43        60.06571
625.86        59.16161
626.29        59.30644
626.72        59.31811
627.15        59.07825
627.58         59.0989
628.01         59.0578
628.44           58.92
628.87        58.66042
629.30        57.99026
629.73        57.46305
630.16        57.16145
630.59        57.06173
631.02        56.58719
631.45        56.31537
631.88        55.86266
632.31        55.37474
632.74        55.13726
633.17        54.42471
633.60        53.82708
634.03        53.16085
634.46        52.55066
634.89        52.00342
635.32        51.44629
635.75        50.89531
636.18        50.41404
636.61        49.99588
637.04        49.58844
637.47        49.17769
637.89         48.7718
638.32        48.37128
638.75        48.01033
639.18        47.69529
639.61        47.42128
640.04        47.14431
640.47         46.7936
640.90        46.36303
641.33        45.88026
641.76        45.42712
642.18         45.1398
642.61         45.0396
643.04        45.08676
643.47        45.20008
643.90        45.24272
644.33        45.17899
644.76         45.0577
645.18        44.92848
645.61        44.87193
646.04        44.91895
646.47         45.0405
646.90        45.24277
647.33        45.53906
647.75        45.91896
648.18        46.37151
648.61        46.85015
649.04        47.27435
649.47        47.63413
649.89        47.95351
650.32        48.28027
650.75        48.72412
651.18        49.33041
651.61        49.95425
652.03        50.59403
652.46        51.57973
652.89        52.74518
653.32         53.1372
653.74         52.9734
654.17         53.5981
654.60        54.57291
655.03        55.93125
655.46        55.21223
655.88        57.06323
656.31        58.51442
656.74        65.48411
657.16         63.8867
657.59        60.15263
658.02        60.02858
658.45         60.0218
658.87        60.90734
659.30        61.87957
659.73        62.46737
660.15        63.22968
660.58        63.07745
661.01        62.88237
661.44        62.64613
661.86        62.95518
662.29        63.78308
662.72        64.78758
663.14        65.69429
663.57        65.84904
664.00         65.4417
664.42         65.4334
664.85        65.90451
665.27        66.31266
665.70        66.63165
666.13        66.60383
666.55        67.13883
666.98        67.42424
667.41        67.71657
667.83        67.95373
668.26        68.11147
668.69        68.24536
669.11        68.39049
669.54        68.48385
669.96        68.51376
670.39          69.012
670.82        69.13703
671.24        69.36194
671.67        69.49744
672.09        69.93713
672.52        70.55932
672.94        70.84705
673.37        70.78265
673.80        70.60465
674.22        70.44472
674.65        70.40183
675.07        70.54023
675.50        70.82099
675.92        71.15106
676.35        71.35024
676.77         71.3866
677.20        71.29188
677.62        71.16339
678.05        71.23228
678.47        71.49527
678.90        71.74524
679.32        71.94403
679.75        72.15968
680.17        72.36261
680.60        72.53687
681.02         72.6849
681.45        72.69042
681.87        72.63297
682.30        72.83447
682.72        73.23064
683.15        73.33279
683.57        73.17739
684.00        73.13275
684.42        73.33346
684.85        73.55656
685.27        73.73994
685.70        74.03749
686.12        74.33499
686.54         74.5649
686.97         74.7177
687.39        74.48486
687.82        74.45503
688.24        74.46637
688.66        74.67062
689.09        74.67586
689.51        74.72309
689.94        74.79671
690.36        74.98059
690.78        75.12003
691.21        75.19291
691.63         75.3901
692.06        75.74204
692.48        75.64265
692.90        75.80392
693.33        76.27215
693.75        75.97745
694.17        76.08031
694.60        76.19107
695.02        76.15209
695.44        75.95668
695.87        75.98156
696.29        76.24516
696.71        75.99635
697.14        75.52415
697.56        75.90782
697.98        76.87863
698.41        77.88284
698.83        77.31271
699.25         77.1286
699.68        77.02403
700.10         76.9538
700.52        76.97165
700.94         77.1154
701.37        77.31905
701.79        77.50696
702.21        77.62388
702.64        77.66881
703.06        77.69175
703.48        77.83994
703.90        78.10647
704.33        78.33084
704.75         78.4545
705.17        78.45837
705.59        78.33056
706.01         78.0516
706.44        77.76419
706.86        77.72678
707.28        77.97671
707.70        78.42335
708.12        78.92382
708.55        79.24606
708.97        79.32925
709.39        79.25669
709.81        79.09636
710.23        78.97049
710.66         78.9327
711.08        78.94887
711.50        79.01911
711.92        79.15719
712.34        79.35478
712.76          79.635
713.19        79.92352
713.61        80.06442
714.03        80.14852
714.45        80.08286
714.87        79.99249
715.29        80.00657
715.71        80.15297
716.13        80.38909
716.56        80.62101
716.98        80.78574
717.40        80.82113
717.82        80.76595
718.24        80.66873
718.66        80.60714
719.08        80.60937
719.50        80.64144
719.92        80.68916
720.34        80.75231
720.76        80.82498
721.19        80.82249
721.61         80.9181
722.03        80.91913
722.45        80.89056
722.87        80.88453
723.29        80.95107
723.71        80.85277
724.13        81.06907
724.55        81.24687
724.97        81.50464
725.39        81.73679
725.81         81.9156
726.23        82.11704
726.65         82.3471
727.07         82.3113
727.49        82.51106
727.91        82.54472
728.33        82.56557
728.75        82.57127
729.17        82.57909
729.59        82.58836
730.01        82.59293
730.43         82.6619
730.85        82.81562
731.27        82.88073
731.69        82.82491
732.10        83.29645
732.52        83.40176
732.94        83.32539
733.36        83.32656
733.78        83.22123
734.20        83.24122
734.62         83.0983
735.04        82.72743
735.46        83.00608
735.88        83.11343
736.30        82.13571
736.72        82.53449
737.13        82.81047
737.55        83.54207
737.97        84.07587
738.39         84.2552
738.81        84.02352
739.23        83.55643
739.65         83.4453
740.06        83.62675
740.48        83.91744
740.90        83.87669
741.32        83.30863
741.74        83.16883
742.16         83.1299
742.57        83.43008
742.99        83.84547
743.41        84.22923
743.83        84.46132
744.25        84.47591
744.67        84.29778
745.08        84.02928
745.50        83.81124
745.92        83.71356
746.34        83.69037
746.75        83.70211
747.17        83.69003
747.59        83.64759
748.01        83.62139
748.42        83.63332
748.84        83.72328
749.26        83.91618
749.68        84.00211
750.09        84.02753
750.51        84.46995
750.93        85.13148
751.35        85.10605
751.76        84.47974
752.18        84.18249
752.60        84.25968
753.01        84.20953
753.43        84.05537
753.85        84.06778
754.27        84.24005
754.68        84.66283
755.10        85.22163
755.52        85.00321
755.93        84.94375
756.35        84.75247
756.77        84.65779
757.18        84.51314
757.60        84.47789
758.02        84.88381
758.43        85.44543
758.85        85.86822
759.26        86.29874
759.68        84.72192
760.10        85.03687
760.51        84.69105
760.93        84.88235
761.34        84.59736
761.76         85.0252
762.18        84.82571
762.59        84.51234
763.01        84.24529
763.42        84.66154
763.84        85.17229
764.26        85.77066
764.67        85.69234
765.09         85.2182
765.50        85.61399
765.92        86.68097
766.33        87.02148
766.75        86.44978
767.16        85.68349
767.58        84.95637
768.00        84.39643
768.41        84.26365
768.83        84.87476
769.24        85.96365
769.66        86.67805
770.07        86.81871
770.49        86.72366
770.90        86.53722
771.32        86.37028
771.73        86.32523
772.15        86.43607
772.56        86.61391
772.97         86.5313
773.39         86.1537
773.80        85.88228
774.22        85.71288
774.63        85.36488
775.05        84.97769
775.46         84.9724
775.88        85.36834
776.29        86.08659
776.70        86.81998
777.12        87.08991
777.53        86.79688
777.95        86.04613
778.36        85.19818
778.77        84.85635
779.19        85.17638
779.60        86.03172
780.02        86.97048
780.43        87.54896
780.84        87.64307
781.26        86.66723
781.67        85.46326
782.09        86.25178
782.50        88.54862
782.91        88.74158
783.33         86.9539
783.74        86.51701
784.15        87.32546
784.57        87.69678
784.98        87.43533
785.39        87.12718
785.81        86.82082
786.22        86.54926
786.63        86.38786
787.04         86.3103
787.46        86.33707
787.87         86.5396
788.28        86.88028
788.70        87.18306
789.11        87.39051
789.52        87.61703
789.93        87.83374
790.35        87.82629
790.76         87.6526
791.17        87.66065
791.58        87.83483
792.00        87.69355
792.41        87.24793
792.82        87.18502
793.23        87.14576
793.65        86.65951
794.06        86.07206
794.47        86.23489
794.88        86.83941
795.29        88.81174
795.71        89.12482
796.12        87.86769
796.53         88.8394
796.94        88.07955
797.35        87.25545
797.76        87.15212
798.18        87.75085
798.59        88.01826
799.00        87.83764
799.41        87.91853
799.82        88.22941
800.23        88.37714
800.64        88.33464
801.06        88.17437
801.47        88.03396
801.88         88.0671
802.29        88.28861
802.70        88.59875
803.11         88.8788
803.52        88.91119
803.93        88.66667
804.34        88.35804
804.75        88.00116
805.17        87.50023
805.58         87.0675
805.99        86.78249
806.40        86.80189
806.81          87.867
807.22        89.48195
807.63        89.69433
808.04        88.66889
808.45        88.34941
808.86        88.94987
809.27        89.61108
809.68        90.12278
810.09        90.36799
810.50        90.25933
810.91        89.98466
811.32         89.6534
811.73        89.27303
812.14         88.8922
812.55        88.63316
812.96        88.48413
813.37        88.19044
813.78         87.8541
814.19         87.9677
814.60        88.43173
815.01        88.69694
815.42        88.71272
815.83        88.73579
816.24        88.81577
816.65         88.9173
817.05        89.06022
817.46        89.20586
817.87        89.31365
818.28        89.26828
818.69        89.07099
819.10        88.76428
819.51        88.49145
819.92        88.55043
820.33        89.00885
820.74        89.62057
821.14        90.24106
821.55        90.94606
821.96        91.50417
822.37        91.21411
822.78        90.29445
823.19        89.81257
823.60        89.91283
824.00         90.0918
824.41        90.16233
824.82        90.16344
825.23        90.05004
825.64        89.85834
826.04        89.68603
826.45        89.62264
826.86        89.70588
827.27        89.88826
827.68        90.12521
828.08        90.37767
828.49        90.54298
828.90        90.66546
829.31         90.7193
829.72        90.66385
830.12        90.52329
830.53        90.27956
830.94        90.00494
831.35        89.77552
831.75        89.64404
832.16        89.55512
832.57        89.53715
832.97        89.60336
833.38        89.71468
833.79        89.86063
834.20        90.00127
834.60          90.067
835.01        90.05944
835.42        90.00795
835.82        89.91565
836.23        89.72926
836.64        89.48718
837.04        89.20048
837.45        88.98654
837.86        89.08681
838.26         89.5521
838.67        90.27271
839.08        91.01652
839.48        91.33102
839.89        91.09547
840.29        90.47893
840.70        89.80914
841.11        89.48096
841.51        89.61555
841.92        90.02415
842.33        90.63589
842.73        91.33163
843.14        91.91168
843.54         92.4854
843.95        92.84904
844.35        92.76801
844.76         92.2389
845.17        91.36096
845.57        90.42828
845.98        89.93127
846.38         89.9827
846.79         90.4549
847.19        91.20274
847.60        91.77202
848.00        92.07233
848.41         92.1418
848.81        92.14194
849.22        92.23946
849.62        92.52676
850.03        92.86329
850.43        93.18864
850.84        93.26846
851.24        93.12715
851.65        92.78629
852.05         92.4218
852.46        92.22507
852.86        92.26747
853.27        92.37424
853.67        92.45007
854.07        92.83057
854.48        93.30066
854.88        93.17204
855.29        92.49559
855.69        92.22336
856.10        92.35648
856.50        92.50152
856.90         92.5125
857.31        92.42358
857.71        92.29652
858.12        92.07906
858.52        91.88914
858.92         91.7841
859.33        91.75861
859.73        91.84357
860.13        92.02182
860.54        92.26652
860.94        92.61951
861.34        93.00471
861.75        93.27689
862.15        93.32387
862.55        93.07479
862.96        92.59636
863.36        92.00825
863.76        91.46875
864.17        91.06354
864.57        90.80368
864.97        90.72339
865.38        90.83936
865.78         91.1831
866.18        91.66032
866.58        92.16463
866.99        92.49676
867.39        92.63904
867.79        92.60191
868.19        92.27927
868.60        91.50032
869.00        90.26221
869.40        88.65526
869.80        87.15811
870.21        86.56984
870.61        87.12458
871.01        88.53673
871.41        90.13898
871.81        90.85216
872.22        90.43356
872.62        89.24558
873.02        87.79696
873.42        87.00211
873.82          87.022
874.22        87.34715
874.63        87.87174
875.03        88.48221
875.43         88.9923
875.83        89.81465
876.23        89.89278
876.63        89.70354
877.03        89.06475
877.44        87.90583
877.84        111.5984
878.24        87.31866
878.64        87.80684
879.04        89.45508
879.44        88.30112
879.84        87.35001
880.24        88.49808
880.64        87.85434
881.04        85.87859
881.44          84.766
881.84        84.98588
882.24        86.11983
882.65        87.50008
883.05        88.10315
883.45        87.56438
883.85        86.34315
884.25        85.05502
884.65        84.49029
885.05        84.85052
885.45        85.88268
885.85        87.12962
886.25        87.83409
886.65        87.77285
887.05         87.1894
887.45        86.48412
887.85        86.25162
888.25        86.63272
888.65         87.4256
889.04        88.32825
889.44        88.73504
889.84        88.52593
890.24         87.9108
890.64        87.17336
891.04        86.72368
891.44        86.64359
891.84         86.7458
892.24        86.90694
892.64        86.92517
893.04        86.73812
893.44        86.50022
893.83        86.10796
894.23        85.44435
894.63         84.5308
895.03        83.41544
895.43        82.49284
895.83        82.43246
896.23        83.33917
896.63        84.98398
897.02        86.82902
897.42        87.86034
897.82        87.81077
898.22        86.99175
898.62        85.79376
899.01        84.82589
899.41        84.34852
899.81         84.1524
900.21        84.25352
900.61         84.6931
901.00        85.39693
901.40        86.33089
901.80        87.26109
902.20        87.75106
902.59        87.70705
902.99        87.24467
903.39        86.51129
903.79        85.78175
904.18        85.18494
904.58        84.68611
904.98        84.45927
905.38        84.77155
905.77         85.5957
906.17        86.86108
906.57        88.11494
906.96        88.66203
907.36        88.32041
907.76        87.26321
908.15        85.99231
908.55        85.27134
908.95         85.3193
909.34        85.97989
909.74        86.75073
910.14          86.769
910.53        85.83937
910.93        84.33411
911.33        82.92454
911.72         82.6451
912.12        83.65698
912.52        85.50329
912.91        87.52112
913.31         88.6517
913.70        88.67335
914.10        87.86423
914.49        86.55098
914.89        85.42924
915.29        84.82635
915.68        84.55298
916.08        84.57162
916.47        84.77812
916.87        85.08392
917.26        85.52038
917.66        85.97011
918.05        86.25932
918.45        86.30907
918.84        86.19529
919.24        85.86758
919.64        85.28645
920.03         84.5112
920.42        83.59742
920.82         82.9035
921.21        82.91435
921.61         83.6505
922.00        85.00408
922.40        86.43611
922.79        87.29297
923.19        87.32481
923.58        86.61361
923.98        85.46875
924.37         84.7485
924.77        84.83328
925.16         83.9239
925.55        84.77017
925.95        84.69389
926.34        84.52377
926.74        84.26779
927.13        84.21474
927.52        84.65849
927.92        85.59517
928.31        86.96134
928.70        88.32449
929.10        88.94462
929.49        88.63544
929.89        87.59644
930.28        86.35507
930.67         85.7654
931.07        86.01663
931.46        86.88403
931.85        87.92373
932.24        88.47435
932.64        88.34365
933.03        87.70679
933.42        86.78354
933.82        86.05613
934.21        85.69333
934.60        85.56768
934.99        85.42656
935.39        85.03594
935.78        84.35043
936.17        83.21037
936.56         81.7302
936.96        82.08064
937.35         81.6708
937.74        82.52399
938.13        83.47026
938.53        84.23162
938.92        84.78441
939.31         85.2326
939.70         85.5856
940.09        85.76504
940.49        85.77459
940.88        85.65396
941.27        85.53889
941.66        85.67447
942.05        86.09683
942.44        86.71201
942.84        87.40811
943.23        88.03142
943.62        88.47581
944.01        88.80396
944.40        88.91943
944.79        88.67464
945.18        88.06721
945.57        87.10759
945.97         86.1132
946.36        85.65121
946.75        85.90601
947.14        86.71159
947.53        87.61774
947.92        87.98352
948.31        87.69715
948.70         86.9537
949.09        86.09154
949.48         85.7006
949.87        85.95403
950.26        86.65527
950.65         87.5105
951.04        88.04951
951.43        88.10474
951.82        87.79253
952.21        87.29292
952.60        86.88991
952.99        86.67389
953.38        86.57566
953.77        86.43761
954.16        86.02075
954.55        85.29958
954.94        84.38341
955.33        83.54522
955.72        83.19828
956.11        83.46312
956.50        84.26831
956.89         85.3047
957.28        85.97222
957.66        86.06677
958.05        85.66129
958.44        85.16048
958.83        85.13584
959.22        85.67116
959.61        86.60596
960.00        87.45779
960.39         87.3775
960.78        86.19659
961.16        84.22924
961.55        82.23081
961.94         81.1952
962.33        81.35764
962.72        82.42567
963.11        83.86499
963.49         84.7676
963.88        84.73182
964.27        84.05652
964.66        83.12274
965.04        82.56171
965.43        82.55902
965.82        82.93752
966.21         83.4268
966.60        83.61096
966.98        83.40884
967.37        82.95313
967.76        82.58488
968.15        82.80278
968.53        83.69689
968.92        84.97179
969.31        86.23463
969.69        86.84864
970.08        86.57809
970.47        85.67925
970.86        84.39735
971.24        83.10448
971.63         82.0417
972.02        81.17053
972.40        80.60104
972.79        80.50282
973.17        80.92908
973.56        81.72688
973.95        82.83376
974.33        84.07066
974.72        85.15475
975.11        86.06503
975.49        86.52164
975.88        86.13411
976.26         84.9297
976.65        83.12813
977.04        81.15386
977.42        79.76085
977.81        79.21135
978.19        79.30256
978.58        79.98493
978.96        81.18075
979.35        82.64301
979.74        84.48368
980.12        86.14819
980.51        86.38279
980.89        85.13529
981.28        82.76747
981.66        80.34465
982.05        79.40472
982.43        80.15697
982.82        82.15697
983.20        84.68792
983.59        86.09665
983.97        85.96062
984.35        84.63451
984.74        82.89074
985.12        81.86678
985.51        81.87673
985.89        82.62041
986.28        83.55022
986.66         83.8082
987.04        83.03345
987.43        81.74276
987.81        80.33941
988.20        79.28011
988.58        78.57957
988.96        78.00633
989.35        77.51406
989.73        77.30315
990.12         77.3698
990.50        77.90366
990.88        78.43388
991.27         78.3816
991.65        77.80898
992.03        76.79416
992.42        76.02989
992.80        76.87412
993.18        79.49417
993.56        83.14584
993.95         86.6132
994.33         88.5957
994.71        88.72871
995.10        87.48032
995.48        85.47495
995.86        83.58097
996.24        82.13778
996.63        80.97915
997.01        80.05265
997.39         79.2748
997.77        78.71465
998.15        78.48322
998.54        78.85316
998.92        80.12296
999.30        82.45157
999.68        86.08034
1000.06        90.15211
1000.45        91.47609
1000.83         88.8848
1001.21        83.86103
1001.59         79.0777
1001.97         76.6365
1002.35        76.41084
1002.73        77.74168
1003.12        79.87309
1003.50        81.27761
1003.88        80.99403
1004.26        79.61272
1004.64          77.691
1005.02        75.92684
1005.40        74.58947
1005.78        73.41068
1006.16        72.67003
1006.54        73.01134
1006.92        74.33559
1007.30        76.17089
1007.69        77.97765
1008.07        79.40912
1008.45        80.51295
1008.83        81.63299
1009.21        82.51682
1009.59        82.16588
1009.97        79.93071
1010.35         75.9164
1010.73        72.43169
1011.11        72.32422
1011.49        75.48849
1011.86        80.91563
1012.24        85.77041
1012.62        87.22817
1013.00        85.14174
1013.38        80.72294
1013.76        75.50848
1014.14        72.22327
1014.52        71.75802
1014.90        73.20453
1015.28        75.61868
1015.66        77.44276
1016.04        78.03127
1016.41        77.94096
1016.79        76.89486
1017.17        74.81448
1017.55        72.24073
1017.93        69.52358
1018.31        67.40021
1018.69        66.50999
1019.06        66.73571
1019.44        67.72038
1019.82        69.20349
1020.20        70.33073
1020.58        70.62386
1020.95        70.26702
1021.33        69.24738
1021.71        67.08208
1022.09        63.15987
1022.46        55.37208
1022.84          43.141
1023.22        38.12784
1023.60        47.86074
1023.97        59.96622
1024.35        67.11082
1024.73        69.54591
