SpectraSmart Spectrum 2.9.0.0
--------- Device Information -----------
Spectrum Name :  反射率_0
Saving Time :  2024/04/20 00:06:16
Spectro-Module Model Name : SE2030-DUVN
Spectro-Module Serial Number : OS361AC55029948
Wavelength Start : 200
Wavelength End : 1025
Wavelength Unit : Wavelength(nm)
Spectrum Unit : Reflectance(%)
-----------Spectrum Setting ------------
Integration Time : 30ms
Average : 10
Boxcar : 0
Background removal :  enabled
linearity correction :  enabled
SC :  disabled
Intensity correction :  disabled
DWT denoise :  enabled
savitzky-golay :  disabled
FFT :  disabled
Running average :  disabled
Kalman :  disabled
High pass :  disabled
---------------BEGIN--------------------
Wavelength(nm)             Reflectance(%)
200.29               0
200.75         57.9963
201.21         57.5502
201.67        59.50852
202.13         65.1713
202.58        74.93381
203.04        89.13273
203.50        103.2389
203.96        106.2144
204.42        97.65986
204.88        84.66531
205.34        73.39072
205.80        66.67091
206.26        63.36866
206.72        61.86909
207.18        62.24749
207.64          64.587
208.10        68.06071
208.55        72.55158
209.01        75.36251
209.47        75.27176
209.93        72.95549
210.39        69.10748
210.85        65.19669
211.31        62.87678
211.77        62.29825
212.23        63.12362
212.69        65.28418
213.14        67.66037
213.60        68.71296
214.06        69.26693
214.52        69.66967
214.98        70.41037
215.44        71.53341
215.90        72.54552
216.36        73.76894
216.81        75.65056
217.27        77.84599
217.73        80.44941
218.19        81.64317
218.65        78.80792
219.11        71.60982
219.57        60.19353
220.02        47.73355
220.48        42.53953
220.94        47.39529
221.40        60.53681
221.86        75.73875
222.32        83.42047
222.77        81.47218
223.23        73.23305
223.69         63.6848
224.15        60.00141
224.61        62.70832
225.06        68.18269
225.52        73.43054
225.98        75.97163
226.44        75.73405
226.90        73.87832
227.36        71.35702
227.81        69.62759
228.27        69.47397
228.73        70.13047
229.19        70.96461
229.65         71.2986
230.10        71.01328
230.56        70.54071
231.02        70.11655
231.48         70.0686
231.93        70.32637
232.39        70.70283
232.85        70.92529
233.31        70.65995
233.77        69.82814
234.22        68.59998
234.68        67.03663
235.14        65.17931
235.60        63.23587
236.05        61.34085
236.51        59.84005
236.97        59.17232
237.43        59.46658
237.88        60.92039
238.34        63.31509
238.80         66.0125
239.26        68.15534
239.71        69.47697
240.17        69.74623
240.63         69.5331
241.08         69.1744
241.54        68.47869
242.00        67.26388
242.46        65.01613
242.91        61.31673
243.37        55.34523
243.83        47.74549
244.28        43.89363
244.74        48.74881
245.20        61.10827
245.66        72.68089
246.11        76.63014
246.57        72.35732
247.03        59.93307
247.48        42.27473
247.94        36.53067
248.40        45.48524
248.85        57.33855
249.31        65.96667
249.77         69.8307
250.22         70.1238
250.68         68.2129
251.14        64.92553
251.59        62.05938
252.05        60.99086
252.51        61.52484
252.96        62.51397
253.42        62.15984
253.88        60.30797
254.33        57.93828
254.79        57.41422
255.25        60.74281
255.70        67.16486
256.16        74.87377
256.62        81.35063
257.07        83.85615
257.53        82.63541
257.99        78.98174
258.44        74.17802
258.90        70.70184
259.35        68.60112
259.81        67.73926
260.27        67.13152
260.72        65.96581
261.18        64.48318
261.63        62.51957
262.09        60.98495
262.55        60.54629
263.00        61.05056
263.46        62.24328
263.91         63.0217
264.37        62.44718
264.83         60.5416
265.28        57.73183
265.74        55.20967
266.19        54.13605
266.65        54.68298
267.11        56.19205
267.56        57.78314
268.02        58.22864
268.47        57.29652
268.93        55.43585
269.38        53.16888
269.84        51.57223
270.30        50.93998
270.75         50.9441
271.21        51.20183
271.66        51.13184
272.12        50.56615
272.57        49.68954
273.03        48.73197
273.48        47.93027
273.94        47.40709
274.39        47.01503
274.85        46.63381
275.31        46.04416
275.76        45.18919
276.22        44.19053
276.67        43.18774
277.13        42.51118
277.58        42.14059
278.04        42.01609
278.49         41.8531
278.95        41.34977
279.40        40.42113
279.86        39.28109
280.31          38.108
280.77         37.3199
281.22         36.9061
281.68        36.77122
282.13        36.69664
282.59        36.42392
283.04        35.88303
283.50        35.21653
283.95        34.51871
284.41        33.97731
284.86        33.60455
285.32        33.35952
285.77        33.18267
286.22         33.0678
286.68        32.98796
287.13        32.91601
287.59        32.81869
288.04        32.59792
288.50        32.27024
288.95        31.83939
289.41        31.38258
289.86         30.9387
290.32        30.58869
290.77        30.31548
291.22        30.17609
291.68        30.21638
292.13        30.42913
292.59        30.80662
293.04        31.29136
293.50        31.81406
293.95        32.33549
294.40        32.86245
294.86        33.39472
295.31        33.94683
295.77        34.52854
296.22        35.13193
296.68        35.75924
297.13        36.39572
297.58        37.04324
298.04        37.70772
298.49        38.39591
298.95        39.15953
299.40        39.98089
299.85        40.84046
300.31         41.6838
300.76        42.41708
301.21        43.02853
301.67        43.57963
302.12        44.08534
302.58         44.6453
303.03        45.25367
303.48        45.90355
303.94        46.62253
304.39        47.40287
304.84        48.23499
305.30        49.09486
305.75        49.88416
306.20        50.48857
306.66        50.90722
307.11        51.15521
307.57        51.31255
308.02        51.41281
308.47        51.51211
308.93        51.59806
309.38        51.70216
309.83        51.93417
310.29        52.29181
310.74        52.74047
311.19        53.13252
311.65        53.22693
312.10        52.97614
312.55          52.459
313.00        51.87565
313.46        51.53474
313.91        51.49272
314.36        51.68247
314.82        51.92839
315.27        51.97037
315.72        51.72898
316.18        51.30442
316.63        50.83982
317.08          50.569
317.53        50.53737
317.99        50.65212
318.44        50.78239
318.89        50.70598
319.35        50.36868
319.80        49.85467
320.25        49.27919
320.70        48.82531
321.16         48.5425
321.61        48.38006
322.06        48.27385
322.51        48.12556
322.97        47.89096
323.42        47.61409
323.87         47.3046
324.32        46.98173
324.78         46.6502
325.23        46.31844
325.68        45.97974
326.13        45.64071
326.59        45.30676
327.04        45.00739
327.49        44.76115
327.94         44.6017
328.39        44.52687
328.85        44.49568
329.30        44.50894
329.75        44.49463
330.20        44.42312
330.66        44.28333
331.11        44.09413
331.56        43.82476
332.01        43.48022
332.46        43.07169
332.92         42.6352
333.37        42.26018
333.82        41.97596
334.27        41.78893
334.72        41.68354
335.17         41.6226
335.63        41.57676
336.08        41.56091
336.53        41.58759
336.98        41.69875
337.43         41.8874
337.88        42.13296
338.34        42.31036
338.79        42.27393
339.24        41.98099
339.69        41.47475
340.14        40.94613
340.59         40.7167
341.05        40.84733
341.50        41.25025
341.95        41.70089
342.40        41.84689
342.85        41.61479
343.30         41.1305
343.75        40.57188
344.20        40.22958
344.66        40.18222
345.11        40.30482
345.56         40.5193
346.01        40.70051
346.46        40.78772
346.91        40.83509
347.36        40.78185
347.81        40.52187
348.26        40.07203
348.72        39.49397
349.17        38.92665
349.62        38.68045
350.07        38.81794
350.52        39.22404
350.97        39.74138
351.42        40.13021
351.87        40.30583
352.32        40.32868
352.77        40.18993
353.22         39.8828
353.67        39.44265
354.13         38.8962
354.58         38.3315
355.03        37.93624
355.48        37.75706
355.93        37.76176
356.38        37.86766
356.83        37.92859
357.28        37.89227
357.73        37.78103
358.18        37.62881
358.63        37.49943
359.08        37.40421
359.53        37.31294
359.98        37.17133
360.43        36.90154
360.88        36.50055
361.33        36.01255
361.78        35.52057
362.23        35.15639
362.68        34.95308
363.13         34.8619
363.58        34.82321
364.03        34.74265
364.48        34.58006
364.93        34.35575
365.38        34.05876
365.83        33.67873
366.28        33.23148
366.73        32.72769
367.18        32.22189
367.63        31.79957
368.08        31.48367
368.53        31.26099
368.98        31.09388
369.43        30.91221
369.88        30.69604
370.33        30.46563
370.78        30.23641
371.23        30.03979
371.68        29.88327
372.13        29.74067
372.58         29.6156
373.03        29.52036
373.48        29.44698
373.93        29.39301
374.38         29.3059
374.83        29.10155
375.28         28.7712
375.72        28.33417
376.17        27.89489
376.62        27.58341
377.07        27.43659
377.52        27.41355
377.97        27.44672
378.42        27.42798
378.87        27.32433
379.32        27.16721
379.77        26.98687
380.22         26.8258
380.67        26.69604
381.11        26.58443
381.56        26.46318
382.01        26.31457
382.46        26.13345
382.91        25.92402
383.36        25.72157
383.81        25.57175
384.26        25.48405
384.71        25.46112
385.15        25.43112
385.60         25.2927
386.05        25.03436
386.50        24.68546
386.95         24.3805
387.40        24.33163
387.85        24.55768
388.29        24.96288
388.74        25.36566
389.19        25.49245
389.64        25.29465
390.09        24.85623
390.54        24.33595
390.98        23.98344
391.43        23.88885
391.88        23.96034
392.33        24.07816
392.78        24.06951
393.23        23.90423
393.67        23.63566
394.12        23.38785
394.57        23.24708
395.02        23.23601
395.47        23.31996
395.91        23.44073
396.36        23.47582
396.81        23.40609
397.26        23.26183
397.71        23.12925
398.15        23.11886
398.60        23.26707
399.05        23.50731
399.50        23.73227
399.95         23.7908
400.39        23.65521
400.84        23.37204
401.29        23.03921
401.74        22.83828
402.18        22.83329
402.63        22.96454
403.08        23.13836
403.53        23.19806
403.97        23.10594
404.42        22.92616
404.87        22.73932
405.32        22.67647
405.76        22.76441
406.21        22.95073
406.66        23.16231
407.11        23.28912
407.55        23.30373
408.00         23.2482
408.45        23.15786
408.90        23.03304
409.34        22.91917
409.79        22.92265
410.24        23.00323
410.68        23.00103
411.13        22.91191
411.58          22.828
412.03        22.76997
412.47        22.74005
412.92        22.74243
413.37        22.76924
413.81        22.83129
414.26        22.96172
414.71        23.15071
415.15        23.39513
415.60        23.61065
416.05        23.69152
416.49        23.61295
416.94        23.40878
417.39        23.17053
417.83         23.0477
418.28        23.08391
418.73        23.22917
419.17        23.40652
419.62        23.48603
420.07        23.44209
420.51        23.32266
420.96        23.18939
421.41        23.11104
421.85        23.10227
422.30           23.15
422.74        23.23461
423.19          23.368
423.64        23.53212
424.08        23.73649
424.53        23.92321
424.98        24.02486
425.42        24.02762
425.87        23.95114
426.31        23.83376
426.76        23.74656
427.21        23.70029
427.65        23.67135
428.10        23.68114
428.54        23.73011
428.99         23.8191
429.44        24.05285
429.88        24.30785
430.33        24.22965
430.77        23.89794
431.22        23.78456
431.66        23.93493
432.11        24.13924
432.56        24.35059
433.00        24.69012
433.45        24.94453
433.89        24.79643
434.34        24.42671
434.78        24.12005
435.23        23.82963
435.67        24.93456
436.12        24.17613
436.57        24.11374
437.01        23.89051
437.46        23.86057
437.90        24.04243
438.35         24.2842
438.79        24.49327
439.24        24.60406
439.68        24.59297
440.13         24.2877
440.57        23.88097
441.02        24.06586
441.46        24.63572
441.91        24.80534
442.35        23.96725
442.80         23.7548
443.24        23.92582
443.69         23.9635
444.13        23.84069
444.58        23.78014
445.02        23.79694
445.47        23.88941
445.91         24.0125
446.36        24.03835
446.80        23.94652
447.24        23.81052
447.69         23.6803
448.13        23.58323
448.58         23.5434
449.02        23.54321
449.47        23.56841
449.91        23.58586
450.36        23.59096
450.80        23.59149
451.25        23.59299
451.69        23.57929
452.13        23.55931
452.58        23.52976
453.02        23.51142
453.47        23.54561
453.91        23.63538
454.36        23.76258
454.80        23.88698
455.24        23.93635
455.69        23.90233
456.13        23.78709
456.58        23.64786
457.02        23.55671
457.46        23.52992
457.91        23.49451
458.35        23.44906
458.79        23.45646
459.24         23.5061
459.68        23.58676
460.13        23.73277
460.57        23.77309
461.01        23.66959
461.46        24.08459
461.90        24.09996
462.34        23.78194
462.79        23.93494
463.23        23.74648
463.68        23.58797
464.12        23.44076
464.56        23.50666
465.01        23.62542
465.45        23.75167
465.89         23.8415
466.34        23.88754
466.78        23.82088
467.22        23.71104
467.67        23.83776
468.11        24.14434
468.55        24.16451
468.99        23.92327
469.44        23.84888
469.88        23.95994
470.32        24.01569
470.77        23.99237
471.21        23.97041
471.65        23.95058
472.10        23.91196
472.54        23.87525
472.98        23.91792
473.42        24.04166
473.87        24.15439
474.31        24.22898
474.75        24.37581
475.20        24.53692
475.64        24.45805
476.08        24.22527
476.52        24.18527
476.97        24.36127
477.41        24.59424
477.85        24.80408
478.29        24.93258
478.74        24.95657
479.18        24.85309
479.62        24.72437
480.06        24.73599
480.50        24.88768
480.95        25.01818
481.39        25.07892
481.83        25.11517
482.27        25.11703
482.72        25.06602
483.16        25.01216
483.60        25.01164
484.04         25.0685
484.48        25.31557
484.93        25.74325
485.37        25.77669
485.81        25.76941
486.25        26.43026
486.69         27.2126
487.14        26.95551
487.58        26.47813
488.02        27.26313
488.46        26.84042
488.90        26.98804
489.34         26.8483
489.79        26.95306
490.23        27.23993
490.67         27.3531
491.11        27.32947
491.55        27.40538
491.99        27.58137
492.43        27.69667
492.88        27.74585
493.32        27.79736
493.76        27.88643
494.20        28.03587
494.64        28.25398
495.08        28.56005
495.52        28.89396
495.96        29.10149
496.41        29.20752
496.85        29.36003
497.29        29.57491
497.73        29.85897
498.17        30.16448
498.61        30.27667
499.05        30.23968
499.49         30.3701
499.93        30.69036
500.37        30.98179
500.82        31.21205
501.26        31.48586
501.70        31.76184
502.14        31.85248
502.58        31.79183
503.02        31.80036
503.46        31.90217
503.90        31.99058
504.34        32.04137
504.78        32.06189
505.22        32.05025
505.66        32.01666
506.10        31.99329
506.54        32.02461
506.98        32.12218
507.42        32.27555
507.86        32.45903
508.30        32.62074
508.74        32.75795
509.18        32.86444
509.62        32.95801
510.06        33.06168
510.50        33.18176
510.94        33.31213
511.38        33.42876
511.82        33.49532
512.26        33.50665
512.70        33.47509
513.14        33.44545
513.58         33.4814
514.02        33.58891
514.46        33.75346
514.90        33.92308
515.34        33.94128
515.78        33.85417
516.22        33.72205
516.66        33.63085
517.10        33.40652
517.54           33.07
517.98        33.56297
518.42        33.46502
518.86         33.6597
519.30        33.70951
519.74        33.75688
520.18        33.79322
520.62        33.78571
521.06        33.74998
521.50        33.68312
521.93        33.59628
522.37        33.51649
522.81         33.4535
523.25        33.40517
523.69         33.3794
524.13        33.38673
524.57        33.42208
525.01        33.47525
525.45        33.52634
525.89        33.54287
526.32        33.51515
526.76        33.45725
527.20        33.36893
527.64         33.2564
528.08        33.12734
528.52        32.97779
528.96        32.84184
529.40        32.76974
529.83        32.76503
530.27        32.82344
530.71        32.87896
531.15        32.82882
531.59        32.65849
532.03        32.40279
532.46        32.14299
532.90        32.02993
533.34        32.08218
533.78        32.24614
534.22        32.43866
534.66        32.53109
535.09        32.48699
535.53        32.36312
535.97        32.19874
536.41        32.05185
536.85        31.94843
537.28        31.88243
537.72        31.87656
538.16        31.87121
538.60        32.01566
539.04        32.16375
539.47        32.29949
539.91        32.41144
540.35          32.508
540.79        32.32312
541.22        32.32129
541.66        32.34543
542.10        32.56304
542.54        32.42687
542.97        32.77066
543.41           32.95
543.85        33.18268
544.29        33.39283
544.72        33.54578
545.16        33.68521
545.60        33.80374
546.04        33.79064
546.47        33.74765
546.91        34.05579
547.35        34.63496
547.79        35.01515
548.22        35.15214
548.66        35.26898
549.10        35.40332
549.53        35.66911
549.97        36.07782
550.41        36.09974
550.84        36.40216
551.28        36.55776
551.72         36.7861
552.15        37.02308
552.59        37.27322
553.03        37.53974
553.46        37.77209
553.90        37.93513
554.34        38.01817
554.77         38.0356
555.21        38.04424
555.65        38.11791
556.08        38.26748
556.52        38.46547
556.96        38.67042
557.39        38.86439
557.83        39.02239
558.27         39.0655
558.70        39.03078
559.14         39.0637
559.57        39.16921
560.01        39.30832
560.45        39.44972
560.88        39.52541
561.32        39.58061
561.75        39.67134
562.19        39.93474
562.63        40.01575
563.06        39.98433
563.50        40.08003
563.93        40.26957
564.37         40.4537
564.80        40.43958
565.24        40.49104
565.68        40.55519
566.11        40.65426
566.55        40.82436
566.98         40.9562
567.42        41.00768
567.85        41.52475
568.29        41.40739
568.72        41.73726
569.16        42.11359
569.60        42.59922
570.03        42.63587
570.47        42.82546
570.90        42.82542
571.34        43.26156
571.77        42.91064
572.21        43.47255
572.64        43.43926
573.08        43.80075
573.51        43.85075
573.95        44.28695
574.38         44.8525
574.82        45.14737
575.25        45.41709
575.69        45.18712
576.12        45.08012
576.56        44.89108
576.99        44.83233
577.42        45.18189
577.86        45.28811
578.29        45.30941
578.73         46.1678
579.16        45.74619
579.60         45.2162
580.03        44.99509
580.47        44.90659
580.90        44.64167
581.33         44.6904
581.77        44.66061
582.20         45.2107
582.64        44.92844
583.07        44.49515
583.51        44.52874
583.94        43.86108
584.37        43.59254
584.81        43.19734
585.24        43.24617
585.68        43.53687
586.11         43.3749
586.54           43.24
586.98        42.93239
587.41        42.96587
587.85        43.06853
588.28        43.20935
588.71        43.06303
589.15        42.71728
589.58         42.2005
590.01        42.30083
590.45        42.82166
590.88        42.50158
591.31        42.64603
591.75        41.92494
592.18        42.20822
592.61         42.2965
593.05        42.55869
593.48        42.21306
593.91        43.50156
594.35        43.07264
594.78        42.94447
595.21        43.56819
595.65        43.79747
596.08        43.63427
596.51        43.68339
596.94        43.91948
597.38        43.89373
597.81        44.10337
598.24        44.23047
598.68        45.00563
599.11        45.09948
599.54        46.29036
599.97         46.0582
600.41         46.1339
600.84        46.60442
601.27        47.14648
601.70        47.66018
602.14        48.05577
602.57        48.55532
603.00        49.18665
603.43        49.54908
603.87        49.69789
604.30        50.24443
604.73        51.17867
605.16        51.04756
605.60        51.62464
606.03        51.99677
606.46        52.46981
606.89        53.50714
607.32        53.69745
607.76         53.6423
608.19        54.28705
608.62          55.139
609.05        55.32501
609.48        55.43545
609.92        55.72453
610.35         55.5642
610.78        56.64997
611.21        57.35798
611.64        56.98022
612.07        57.29725
612.50        57.77218
612.94         57.6487
613.37         58.2165
613.80         58.5403
614.23         59.0163
614.66          59.236
615.09        59.55388
615.52        60.02821
615.96        60.45839
616.39        60.89531
616.82        61.32313
617.25        60.86609
617.68        60.89051
618.11        61.50337
618.54        61.88316
618.97        61.98334
619.40        61.55199
619.84        61.38301
620.27        61.15597
620.70        61.71291
621.13        62.68535
621.56        62.88628
621.99        62.47866
622.42        62.46689
622.85        62.93449
623.28        63.18164
623.71        63.17923
624.14        63.31537
624.57        63.02205
625.00        63.17509
625.43         63.1522
625.86        62.47599
626.29        62.52176
626.72        62.27623
627.15        62.21886
627.58        62.22322
628.01        62.23038
628.44        62.20734
628.87        62.13052
629.30        61.54679
629.73        61.48214
630.16        60.94351
630.59        60.84342
631.02        60.49184
631.45        60.08081
631.88        59.70055
632.31        59.34361
632.74        58.94635
633.17        58.49681
633.60        58.02733
634.03        57.54214
634.46        57.04097
634.89        56.53075
635.32        56.02042
635.75        55.52073
636.18        55.04007
636.61         54.5909
637.04        54.18676
637.47         53.8239
637.89        53.49609
638.32         53.1773
638.75         52.8591
639.18         52.5362
639.61        52.21688
640.04         51.8862
640.47        51.51774
640.90        51.11684
641.33        50.70077
641.76        50.31882
642.18         50.0553
642.61        49.91961
643.04        49.88681
643.47        49.91777
643.90        49.94464
644.33        49.94266
644.76        49.93319
645.18        49.91332
645.61        49.87825
646.04        49.84081
646.47        49.80489
646.90        49.81419
647.33        49.94781
647.75        50.21581
648.18        50.57119
648.61        50.97428
649.04        51.36764
649.47        51.71877
649.89        52.03989
650.32        52.33974
650.75        52.62058
651.18        52.97797
651.61        53.45252
652.03        54.03905
652.46         55.0088
652.89        56.17543
653.32        56.40019
653.74         55.8875
654.17        56.74435
654.60        57.42858
655.03        58.68657
655.46        58.08968
655.88        59.71693
656.31        61.06555
656.74        67.62438
657.16        66.41622
657.59        63.14732
658.02        62.56564
658.45        62.07504
658.87        63.01958
659.30        63.09919
659.73        63.92667
660.15        64.34359
660.58        64.51933
661.01        64.28281
661.44        63.85676
661.86        63.94944
662.29        64.57678
662.72         65.5194
663.14        66.47617
663.57        66.58503
664.00        66.02326
664.42        65.96189
664.85        66.48801
665.27        66.84119
665.70        66.95372
666.13        67.13263
666.55        67.37663
666.98         67.5844
667.41        67.77201
667.83         67.9652
668.26        68.15398
668.69        68.35278
669.11        68.54264
669.54        68.67482
669.96        68.75465
670.39        68.85066
670.82        68.91118
671.24        69.10799
671.67        69.42254
672.09         69.7451
672.52        70.03457
672.94        70.39075
673.37        70.71549
673.80        70.62103
674.22        70.23948
674.65        70.12522
675.07        70.35368
675.50        70.63016
675.92        70.87003
676.35        71.01228
676.77        71.03223
677.20        70.96587
677.62        70.88393
678.05        70.90186
678.47        71.04407
678.90        71.27785
679.32        71.56918
679.75        71.85249
680.17        72.09194
680.60        72.34655
681.02        72.60303
681.45        72.67921
681.87        72.64146
682.30        72.83489
682.72        73.19321
683.15        73.23736
683.57        73.05452
684.00        73.02826
684.42        73.22956
684.85        73.79538
685.27        73.69257
685.70        73.98922
686.12        74.29918
686.54        74.50183
686.97        74.57773
687.39        74.40786
687.82        74.26723
688.24        74.41582
688.66        74.83819
689.09        75.00301
689.51        74.90742
689.94        74.93179
690.36        75.09763
690.78        75.14766
691.21        75.09187
691.63        75.17429
692.06        75.42544
692.48        75.51163
692.90        75.58095
693.33        76.17915
693.75        76.03101
694.17        76.26015
694.60        76.42931
695.02        76.28227
695.44        75.86411
695.87        75.80536
696.29        76.07352
696.71        75.81814
697.14        75.33221
697.56        75.79006
697.98        76.87479
698.41        77.97721
698.83        77.65823
699.25        77.00624
699.68        77.15304
700.10        76.98573
700.52         76.9801
700.94        77.12695
701.37        77.34564
701.79        77.51913
702.21        77.57266
702.64        77.52493
703.06        77.46313
703.48        77.60571
703.90        77.93978
704.33        78.27157
704.75        78.50993
705.17         78.5371
705.59        78.30667
706.01         78.1366
706.44        77.62218
706.86        77.60319
707.28        77.95324
707.70        78.56232
708.12         79.2131
708.55        79.57232
708.97        79.56281
709.39        79.29498
709.81        78.90714
710.23        78.64117
710.66        78.58672
711.08         78.6756
711.50        78.84519
711.92        79.01858
712.34        79.16486
712.76        79.32198
713.19        79.45932
713.61        79.58577
714.03         79.6697
714.45        79.70525
714.87        79.73356
715.29        79.82961
715.71        80.00516
716.13        80.23788
716.56        80.45787
716.98        80.63736
717.40        80.72356
717.82        80.73689
718.24        80.70924
718.66        80.69377
719.08        80.70815
719.50        80.73558
719.92        80.76557
720.34        80.77925
720.76        80.77311
721.19        80.75726
721.61        80.75073
722.03        80.73833
722.45        80.74641
722.87        80.75896
723.29         80.7987
723.71        80.88912
724.13        81.03382
724.55        81.23531
724.97        81.46831
725.39        81.66697
725.81        81.80803
726.23        81.98681
726.65        82.06563
727.07        82.23299
727.49        82.44657
727.91         82.6935
728.33         82.9104
728.75        82.99591
729.17        82.93367
729.59        82.76043
730.01        82.56387
730.43        82.48219
730.85         82.5502
731.27        82.72242
731.69        82.93192
732.10        83.09123
732.52        83.14993
732.94        83.11687
733.36         83.0259
733.78        82.96074
734.20        82.96309
734.62        82.98206
735.04        82.97822
735.46         83.0274
735.88        83.10323
736.30        82.78838
736.72         82.9085
737.13        82.97398
737.55        83.15346
737.97        83.57932
738.39         84.0572
738.81        83.88703
739.23        83.25945
739.65        83.18468
740.06        83.54796
740.48        84.12708
740.90        84.00583
741.32        83.44214
741.74        83.15272
742.16        83.36739
742.57        83.35413
742.99        83.68108
743.41        83.96413
743.83        84.16754
744.25        84.23261
744.67        84.18078
745.08        84.05712
745.50        83.87457
745.92         83.6808
746.34        83.46838
746.75        83.28082
747.17        83.19183
747.59        83.22294
748.01        83.37347
748.42        83.59555
748.84        83.81615
749.26        84.02372
749.68        84.03759
750.09        83.93786
750.51         84.2771
750.93        84.87215
751.35        84.75418
751.76        84.02943
752.18        83.70356
752.60        83.82619
753.01        83.85571
753.43        83.77433
753.85        83.86037
754.27        84.11054
754.68        84.48254
755.10        84.84103
755.52        84.93205
755.93        84.75037
756.35        84.47807
756.77        84.24339
757.18        84.23682
757.60        84.58444
758.02        84.95731
758.43        85.09793
758.85        85.80563
759.26        86.35925
759.68        84.85593
760.10        85.28286
760.51        85.17755
760.93        84.82628
761.34         84.3777
761.76        84.42354
762.18         84.2634
762.59        84.17407
763.01        84.16955
763.42        84.34836
763.84        84.75782
764.26        85.31091
764.67        85.45945
765.09        85.34154
765.50        85.60199
765.92         86.1594
766.33         86.3796
766.75        86.12057
767.16        85.55118
767.58        84.85101
768.00        84.50848
768.41        84.69272
768.83        85.18578
769.24        85.79756
769.66        86.39144
770.07         86.7531
770.49        86.49107
770.90        85.85332
771.32        85.82049
771.73        86.36739
772.15        86.64049
772.56        86.54572
772.97        86.30558
773.39        85.95319
773.80        85.79894
774.22         85.6786
774.63        85.41033
775.05        85.05372
775.46        85.05116
775.88         85.4117
776.29        86.00417
776.70        86.58585
777.12        86.82443
777.53        86.65015
777.95        86.12868
778.36        85.52402
778.77        85.28954
779.19        85.53494
779.60        86.17966
780.02        86.89413
780.43        87.33097
780.84        87.38198
781.26        86.77338
781.67        85.93285
782.09        86.47103
782.50         88.0341
782.91        88.30567
783.33        87.30068
783.74        86.98724
784.15         87.4126
784.57        87.44334
784.98        87.06365
785.39        86.76946
785.81        86.59512
786.22        86.42859
786.63        86.29942
787.04        86.27155
787.46        86.34844
787.87        86.51647
788.28        86.75441
788.70         86.9705
789.11         87.1246
789.52        87.30416
789.93        87.49391
790.35         87.5096
790.76        87.41895
791.17        87.54314
791.58         87.8238
792.00        87.79588
792.41        87.41825
792.82        87.10395
793.23        86.86227
793.65        86.22314
794.06        85.60493
794.47        86.09673
794.88        87.30447
795.29        89.06024
795.71        88.59039
796.12        88.44117
796.53        88.68997
796.94        88.02147
797.35        86.96915
797.76        86.76656
798.18        87.40221
798.59        87.72943
799.00        87.67353
799.41        87.95196
799.82        88.47562
800.23        88.77741
800.64        88.80725
801.06         88.3901
801.47        88.16949
801.88        88.00044
802.29        88.07339
802.70        88.26747
803.11        88.45916
803.52        88.43958
803.93        88.18835
804.34        87.84402
804.75         87.4542
805.17        87.21088
805.58        87.20913
805.99        86.92589
806.40        86.59613
806.81        87.62704
807.22        89.50166
807.63        89.87663
808.04        88.83044
808.45        88.12703
808.86         88.1601
809.27        88.85841
809.68        89.95543
810.09        90.43102
810.50        90.11539
810.91        89.73538
811.32        89.48495
811.73        89.19138
812.14        88.89944
812.55        88.90418
812.96        89.06756
813.37         88.5925
813.78        87.69796
814.19        87.66627
814.60        88.38139
815.01         88.6524
815.42        88.42126
815.83        88.33801
816.24        88.46366
816.65        88.57553
817.05        88.67413
817.46        88.75641
817.87        88.81054
818.28        88.76508
818.69        88.64458
819.10        88.49552
819.51        88.35852
819.92        88.45612
820.33        88.85246
820.74        89.02975
821.14        89.10039
821.55        90.25375
821.96        91.99043
822.37        91.90394
822.78        90.22704
823.19        89.49982
823.60        89.92633
824.00        90.09048
824.41        89.81909
824.82        89.66544
825.23        89.62427
825.64        89.58782
826.04        89.57645
826.45        89.55455
826.86        89.53163
827.27         89.5271
827.68        89.56538
828.08        89.70895
828.49        89.89088
828.90        90.11501
829.31        90.33462
829.72        90.46786
830.12        90.50518
830.53        90.43895
830.94        90.28042
831.35        90.01283
831.75        89.68509
832.16        89.26846
832.57        88.90359
832.97        88.80363
833.38        88.98439
833.79        89.38114
834.20        89.84528
834.60        90.12999
835.01        90.18804
835.42        90.09968
835.82        89.92461
836.23        89.70802
836.64        89.51352
837.04        89.30153
837.45        89.16251
837.86        89.30186
838.26        89.75755
838.67        90.45078
839.08        91.12629
839.48        91.28819
839.89        90.82873
840.29         89.9369
840.70        89.03986
841.11        88.67705
841.51        88.98601
841.92        89.73687
842.33        90.73111
842.73        91.61832
843.14        92.12955
843.54        92.43783
843.95        92.46313
844.35        92.18281
844.76         91.6567
845.17        90.91738
845.57        90.17964
845.98        89.81786
846.38         89.9089
846.79        90.36195
847.19         91.0654
847.60        91.61587
848.00        91.94247
848.41        92.06611
848.81        92.11185
849.22        92.20081
849.62        92.41245
850.03        92.60765
850.43        92.79577
850.84        92.86245
851.24        92.86716
851.65        92.81336
852.05        92.73157
852.46        92.62001
852.86          92.522
853.27         92.1971
853.67        91.78333
854.07        92.26814
854.48        93.34596
854.88        93.53751
855.29        92.79801
855.69        92.54969
856.10        92.77453
856.50        92.73341
856.90        92.35394
857.31        92.02853
857.71        91.88562
858.12        91.75711
858.52        91.71545
858.92        91.75275
859.33        91.82851
859.73        92.00732
860.13        92.22904
860.54        92.37585
860.94        92.48141
861.34        92.49937
861.75        92.38591
862.15        92.19472
862.55        91.90608
862.96        91.55572
863.36        91.19623
863.76        90.86311
864.17        90.59058
864.57        90.40557
864.97        90.37057
865.38        90.55292
865.78        90.99113
866.18        91.56646
866.58        92.11288
866.99        92.33755
867.39        92.21249
867.79         91.7969
868.19        91.09087
868.60        90.08102
869.00        88.80865
869.40        87.32902
869.80        86.04958
870.21        85.63872
870.61        86.27766
871.01        87.70454
871.41        89.28421
871.81        89.99348
872.22        89.60242
872.62        88.44757
873.02        87.00036
873.42        86.12863
873.82        85.98729
874.22        86.07668
874.63         86.3526
875.03        86.82972
875.43         87.3701
875.83        88.39639
876.23        88.65352
876.63        88.62959
877.03        88.10537
877.44        87.03523
877.84        112.2833
878.24        86.67989
878.64        87.24496
879.04         88.9641
879.44        87.70571
879.84        86.63375
880.24        87.78321
880.64        87.04197
881.04          84.875
881.44        83.60811
881.84        83.75244
882.24         84.8821
882.65        86.31215
883.05         86.9614
883.45        86.45519
883.85        85.27715
884.25        84.06871
884.65        83.65866
885.05        84.24015
885.45        85.51529
885.85        86.97153
886.25        87.76659
886.65        87.64338
887.05        86.87738
887.45        85.87859
887.85          85.243
888.25        85.15135
888.65        85.45066
889.04        85.91817
889.44        86.09005
889.84        85.88364
890.24        85.43255
890.64        85.02096
891.04        85.06259
891.44         85.5873
891.84        86.39232
892.24        87.10344
892.64            87.1
893.04         86.2855
893.44        85.00169
893.83        83.54054
894.23        82.35139
894.63        81.55741
895.03        81.00975
895.43        80.87153
895.83        81.41705
896.23         82.6021
896.63        84.32268
897.02        86.03046
897.42        86.70324
897.82        86.13183
898.22        84.62891
898.62         82.7984
899.01        81.58984
899.41        81.31255
899.81        81.66689
900.21        82.43604
900.61        83.28094
901.00        84.04003
901.40        84.79293
901.80        85.45953
902.20        85.86999
902.59        85.99829
902.99        85.83982
903.39        85.46081
903.79        85.01028
904.18        84.56448
904.58        84.15868
904.98        83.91125
905.38        83.99703
905.77        84.40834
906.17        85.09624
906.57        85.82232
906.96        86.23286
907.36        86.19699
907.76        85.79279
908.15        85.22224
908.55        84.76846
908.95         84.5402
909.34        84.50474
909.74         84.4732
910.14         84.1355
910.53        83.44677
910.93        82.59972
911.33         81.9411
911.72        82.01402
912.12        82.86143
912.52        84.18668
912.91        85.58533
913.31        86.36683
913.70        86.41006
914.10        85.91351
914.49        84.99414
914.89        83.96481
915.29        83.05859
915.68        82.23179
916.08        81.76907
916.47        82.01211
916.87        82.91653
917.26        84.33584
917.66         85.8119
918.05        86.61739
918.45        86.52406
918.84        85.78938
919.24         84.6322
919.64         83.4564
920.03        82.47703
920.42        81.62887
920.82        81.15308
921.21        81.35851
921.61        82.19753
922.00        83.61282
922.40        85.10764
922.79        86.07893
923.19         86.2837
923.58        85.76437
923.98        84.72279
924.37        83.87455
924.77        83.60012
925.16        82.00094
925.55        82.34098
925.95        81.98808
926.34        81.95267
926.74        82.12495
927.13        82.56989
927.52        83.23653
927.92        84.04645
928.31        85.04128
928.70        85.94299
929.10          86.298
929.49        86.01365
929.89        85.18949
930.28        84.25738
930.67          83.921
931.07        84.31871
931.46        85.29427
931.85        86.40017
932.24        86.96349
932.64        86.80262
933.03        86.06088
933.42        85.04942
933.82        84.43204
934.21        84.38546
934.60        84.70143
934.99        84.93046
935.39        84.58109
935.78        83.57937
936.17        81.83226
936.56        79.57189
936.96        79.55129
937.35         78.9716
937.74        80.03703
938.13        81.33839
938.53        82.47218
938.92        83.37257
939.31        84.20905
939.70        84.88389
940.09        85.09625
940.49        84.80821
940.88         84.1104
941.27        83.39392
941.66        83.28931
942.05        83.89941
942.44        85.03537
942.84        86.33392
943.23        87.19481
943.62        87.40244
944.01         87.1673
944.40        86.65004
944.79        86.11512
945.18        85.67889
945.57        85.22662
945.97        84.90015
946.36        84.92184
946.75        85.32852
947.14        86.05296
947.53         86.7375
947.92        86.86496
948.31        86.36491
948.70        85.38551
949.09        84.26108
949.48        83.59605
949.87        83.57675
950.26        84.03223
950.65        84.68892
951.04        85.08463
951.43        85.06316
951.82        84.75548
952.21        84.32365
952.60         84.0195
952.99        83.92071
953.38        83.94448
953.77        83.97208
954.16         83.8335
954.55        83.49954
954.94        83.04556
955.33        82.63551
955.72        82.51354
956.11        82.75448
956.50        83.31598
956.89        84.00523
957.28        84.45363
957.66        84.53713
958.05        84.27382
958.44        83.93829
958.83        83.91076
959.22        84.24367
959.61        84.84056
960.00        85.33811
960.39        85.10365
960.78         84.0219
961.16        82.31236
961.55        80.60199
961.94        79.69762
962.33        79.78194
962.72        80.63211
963.11        81.75413
963.49        82.30679
963.88        81.95204
964.27        80.99203
964.66        79.87776
965.04        79.35328
965.43        79.60968
965.82        80.40973
966.21         81.4072
966.60        82.05377
966.98        82.20175
967.37        82.00908
967.76        81.73602
968.15        81.76917
968.53        82.20919
968.92        82.79736
969.31        83.35817
969.69        83.61929
970.08        83.43092
970.47        82.95835
970.86        82.21103
971.24        81.15475
971.63        79.92178
972.02         78.5893
972.40        77.44152
972.79        76.96239
973.17        77.30026
973.56        78.19333
973.95        79.49004
974.33         80.8595
974.72        81.97022
975.11        82.89649
975.49        83.33747
975.88        82.85255
976.26        81.48846
976.65        79.45538
977.04        77.35982
977.42        76.27361
977.81         76.5074
978.19        77.75791
978.58        79.64514
978.96        81.52955
979.35        82.99889
979.74        84.28444
980.12        85.12817
980.51        84.84894
980.89        83.57542
981.28        81.48462
981.66         79.4109
982.05         78.5715
982.43        79.10551
982.82         80.6888
983.20        82.70376
983.59        83.67227
983.97        83.25098
984.35        81.74271
984.74        79.87263
985.12        78.70245
985.51        78.51923
985.89        79.04376
986.28        79.78224
986.66         79.9548
987.04        79.23106
987.43         78.0817
987.81        76.83266
988.20        75.83681
988.58        75.10374
988.96        74.44118
989.35        73.86921
989.73        73.72553
990.12        74.03489
990.50        74.81413
990.88        75.58878
991.27        75.82024
991.65        75.56389
992.03        74.94013
992.42         74.3222
992.80        74.47594
993.18        75.56977
993.56        77.16995
993.95        78.79475
994.33        80.14194
994.71        80.93835
995.10        81.31322
995.48        81.21829
995.86        80.47967
996.24        79.15606
996.63        77.32833
997.01        75.27686
997.39        73.82423
997.77        73.41628
998.15        73.74738
998.54        74.76161
998.92        76.45058
999.30        78.88226
999.68         82.4666
1000.06        86.12658
1000.45        86.25857
1000.83        81.91992
1001.21        75.07802
1001.59         69.0061
1001.97        66.15813
1002.35        66.30769
1002.73        68.75737
1003.12        72.48714
1003.50        75.07696
1003.88        75.11685
1004.26        73.32786
1004.64        70.78204
1005.02        69.02076
1005.40        68.51984
1005.78         68.7886
1006.16         69.5751
1006.54        70.43791
1006.92        71.02743
1007.30        71.40672
1007.69        71.72672
1008.07        72.31409
1008.45        73.25712
1008.83        74.75795
1009.21        76.32041
1009.59        75.96084
1009.97        72.32147
1010.35        65.93214
1010.73        60.11769
1011.11         58.7999
1011.49        62.00559
1011.86        68.39436
1012.24        74.61681
1012.62        77.35694
1013.00        76.32018
1013.38        72.78242
1013.76        68.49448
1014.14        66.46657
1014.52        67.58309
1014.90         70.8179
1015.28        74.69886
1015.66        76.86485
1016.04        76.45498
1016.41        74.06677
1016.79        70.24446
1017.17        66.95436
1017.55        65.37521
1017.93        64.95091
1018.31        65.12823
1018.69        65.29317
1019.06        65.26148
1019.44        65.11842
1019.82        64.83385
1020.20        64.24871
1020.58        63.34427
1020.95        62.06406
1021.33        60.42108
1021.71        57.84831
1022.09        53.60201
1022.46        45.76719
1022.84        33.60843
1023.22        27.27898
1023.60        34.85719
1023.97        45.54521
1024.35        52.06129
1024.73        54.58245
