SpectraSmart Spectrum 2.9.0.0
--------- Device Information -----------
Spectrum Name :  反射率_0
Saving Time :  2024/04/20 00:11:24
Spectro-Module Model Name : SE2030-DUVN
Spectro-Module Serial Number : OS361AC55029948
Wavelength Start : 200
Wavelength End : 1025
Wavelength Unit : Wavelength(nm)
Spectrum Unit : Reflectance(%)
-----------Spectrum Setting ------------
Integration Time : 30ms
Average : 10
Boxcar : 0
Background removal :  enabled
linearity correction :  enabled
SC :  disabled
Intensity correction :  disabled
DWT denoise :  enabled
savitzky-golay :  disabled
FFT :  disabled
Running average :  disabled
Kalman :  disabled
High pass :  disabled
---------------BEGIN--------------------
Wavelength(nm)             Reflectance(%)
200.29               0
200.75        53.29637
201.21        52.97775
201.67        55.16409
202.13        60.40162
202.58        68.64696
203.04        80.26945
203.50         91.5999
203.96        93.67982
204.42        86.35995
204.88        75.52399
205.34        65.95827
205.80        59.66944
206.26        55.55645
206.72        51.89587
207.18        48.98702
207.64        49.53558
208.10        55.03872
208.55        64.17905
209.01        71.23575
209.47        72.47751
209.93        68.96818
210.39        62.60185
210.85        56.15825
211.31        52.64901
211.77        52.43158
212.23        54.81671
212.69        59.42643
213.14        63.44905
213.60        64.27686
214.06        63.67319
214.52        62.78415
214.98        62.43285
215.44        62.59631
215.90        62.58104
216.36        62.69213
216.81        63.65313
217.27         65.3178
217.73         67.6299
218.19        68.81107
218.65        66.24088
219.11        59.51136
219.57        48.88032
220.02        36.85386
220.48        30.46074
220.94        32.20715
221.40        40.79275
221.86        51.69334
222.32        57.80807
222.77        57.34241
223.23        52.55173
223.69        46.73126
224.15        44.65529
224.61        46.54086
225.06        49.91995
225.52        52.61238
225.98         52.8517
226.44        50.59684
226.90        46.79889
227.36        42.30703
227.81        38.65778
228.27        36.92095
228.73        36.51624
229.19        37.18421
229.65        38.60416
230.10        40.39936
230.56        42.42435
231.02        44.33931
231.48        45.73417
231.93        46.53934
232.39        46.91113
232.85        46.87013
233.31        46.48918
233.77        45.87568
234.22        45.05454
234.68        44.31388
235.14        44.04548
235.60        44.37218
236.05        45.21392
236.51        46.42308
236.97        47.78831
237.43        49.34821
237.88        51.45587
238.34        53.98999
238.80        56.54478
239.26        58.49792
239.71        59.49986
240.17        59.78522
240.63        60.59943
241.08        62.35935
241.54        64.73729
242.00        66.98948
242.46        67.62061
242.91        65.94554
243.37        61.47964
243.83        54.69268
244.28        50.38734
244.74        53.16037
245.20        62.03407
245.66        70.58883
246.11        73.22665
246.57        69.24513
247.03        59.01233
247.48        44.75269
247.94        40.01504
248.40        47.00234
248.85        56.27295
249.31        63.18316
249.77        66.79918
250.22        68.08128
250.68        68.22473
251.14        67.57173
251.59        66.51929
252.05        65.66379
252.51        64.99765
252.96        64.65531
253.42        65.15862
253.88        66.51968
254.33        68.35184
254.79         71.1485
255.25        75.12054
255.70         79.7653
256.16        84.45415
256.62        88.00255
257.07         89.1092
257.53        88.07337
257.99         85.4585
258.44        81.81618
258.90         78.8218
259.35        76.46752
259.81        75.10767
260.27        74.00631
260.72        72.51991
261.18        70.90205
261.63        68.86253
262.09        67.22316
262.55        66.53324
263.00        66.64191
263.46        67.37241
263.91        67.73101
264.37        66.92889
264.83        64.96066
265.28        62.18687
265.74        59.65919
266.19        58.32943
266.65        58.38031
267.11         59.2415
267.56        60.19664
268.02        60.24215
268.47        59.17285
268.93        57.36566
269.38        55.20813
269.84        53.55432
270.30        52.64512
270.75        52.22991
271.21        52.05707
271.66        51.73145
272.12        51.11812
272.57        50.32982
273.03        49.49014
273.48        48.67443
273.94        47.97607
274.39        47.31975
274.85        46.66537
275.31        45.90137
275.76        44.99527
276.22        44.02035
276.67        43.08969
277.13        42.50022
277.58         42.2073
278.04        42.15408
278.49        42.03107
278.95        41.49862
279.40        40.47525
279.86        39.19786
280.31        37.87423
280.77        36.96543
281.22        36.47532
281.68        36.29625
282.13        36.22119
282.59        36.00502
283.04        35.57222
283.50        35.05995
283.95        34.52155
284.41         34.0839
284.86        33.75265
285.32        33.50652
285.77        33.33555
286.22        33.30864
286.68        33.41253
287.13        33.59304
287.59        33.76655
288.04        33.76746
288.50        33.59394
288.95        33.25504
289.41        32.87217
289.86        32.55081
290.32         32.3795
290.77        32.32366
291.22        32.35799
291.68        32.40521
292.13        32.45714
292.59        32.56872
293.04        32.81825
293.50        33.34434
293.95        34.14417
294.40        35.14653
294.86        36.22999
295.31        37.21881
295.77        38.06099
296.22        38.79651
296.68        39.46774
297.13        40.13046
297.58        40.81506
298.04        41.50257
298.49        42.19874
298.95        42.96357
299.40        43.78039
299.85        44.63763
300.31        45.48684
300.76        46.23027
301.21        46.85245
301.67        47.41377
302.12        47.90641
302.58        48.40501
303.03        48.89802
303.48        49.38834
303.94        49.93024
304.39        50.55594
304.84         51.2649
305.30        52.02061
305.75         52.7022
306.20         53.1617
306.66        53.39534
307.11        53.43733
307.57        53.38505
308.02        53.29255
308.47        53.22503
308.93        53.16169
309.38         53.1414
309.83        53.28699
310.29        53.59324
310.74         54.0214
311.19        54.39524
311.65        54.42709
312.10        54.06411
312.55        53.40256
313.00        52.67841
313.46        52.25803
313.91        52.20742
314.36        52.43312
314.82        52.73605
315.27        52.81738
315.72        52.58117
316.18        52.14376
316.63        51.63444
317.08        51.26485
317.53        51.08706
317.99         51.0176
318.44        50.97808
318.89        50.83479
319.35        50.55017
319.80        50.17846
320.25        49.77615
320.70        49.42899
321.16        49.15633
321.61        48.93439
322.06          48.723
322.51        48.46684
322.97         48.1409
323.42        47.77485
323.87        47.38665
324.32        47.01171
324.78        46.65444
325.23        46.32234
325.68        45.98888
326.13        45.62173
326.59        45.21709
327.04        44.81696
327.49        44.45355
327.94        44.18431
328.39        44.01653
328.85        43.90178
329.30        43.85115
329.75        43.81001
330.20        43.75213
330.66        43.66829
331.11        43.54727
331.56        43.30824
332.01        42.94407
332.46        42.47058
332.92        41.96738
333.37        41.60166
333.82        41.41742
334.27        41.39585
334.72        41.45037
335.17        41.42254
335.63        41.25309
336.08        40.99588
336.53        40.73916
336.98        40.65276
337.43        40.76737
337.88         41.0217
338.34        41.24882
338.79        41.23117
339.24         40.9016
339.69        40.33608
340.14          39.721
340.59          39.368
341.05        39.35042
341.50        39.58151
341.95        39.89325
342.40        40.02386
342.85        39.90681
343.30        39.63486
343.75        39.30672
344.20        39.07987
344.66        39.00014
345.11        38.98822
345.56        39.02118
346.01        39.06526
346.46        39.09354
346.91        39.13037
347.36        39.11351
347.81        38.93754
348.26        38.60443
348.72          38.171
349.17        37.73634
349.62        37.53915
350.07         37.6298
350.52        37.92409
350.97        38.29391
351.42        38.54694
351.87        38.61945
352.32        38.55666
352.77        38.38499
353.22        38.15066
353.67        37.88538
354.13        37.59777
354.58        37.28617
355.03        36.99564
355.48        36.74664
355.93        36.54715
356.38        36.41535
356.83         36.3686
357.28        36.39376
357.73        36.46517
358.18        36.53241
358.63        36.51725
359.08        36.39376
359.53        36.18324
359.98        35.89902
360.43        35.56238
360.88        35.19639
361.33        34.80943
361.78        34.44593
362.23        34.17909
362.68        34.02159
363.13        33.94308
363.58        33.90281
364.03        33.83377
364.48        33.70215
364.93        33.51542
365.38        33.24763
365.83        32.86588
366.28        32.38451
366.73        31.83164
367.18        31.27772
367.63        30.83015
368.08         30.5197
368.53        30.32323
368.98        30.20918
369.43        30.11742
369.88        30.02304
370.33        29.94146
370.78        29.85326
371.23        29.73094
371.68        29.56796
372.13        29.35176
372.58        29.12737
373.03        28.98127
373.48        28.92455
373.93        28.93032
374.38        28.91321
374.83          28.738
375.28        28.38246
375.72        27.88708
376.17        27.36892
376.62        26.97593
377.07        26.75853
377.52         26.6746
377.97        26.66731
378.42        26.64653
378.87        26.57786
379.32         26.4812
379.77         26.3763
380.22         26.2887
380.67        26.22308
381.11        26.17271
381.56        26.09075
382.01        25.92945
382.46         25.6842
382.91         25.3688
383.36        25.06782
383.81        24.90403
384.26        24.89595
384.71        25.01679
385.15        25.13604
385.60        25.06006
386.05        24.75693
386.50        24.28983
386.95        23.83158
387.40        23.65593
387.85        23.80588
388.29        24.16919
388.74        24.56018
389.19        24.70108
389.64        24.53653
390.09         24.1524
390.54        23.69338
390.98        23.38289
391.43        23.30393
391.88        23.37081
392.33        23.47312
392.78        23.45405
393.23         23.2889
393.67         23.0264
394.12        22.78942
394.57         22.6663
395.02        22.67607
395.47        22.77849
395.91         22.9101
396.36        22.93953
396.81        22.84343
397.26        22.65844
397.71        22.46311
398.15        22.35566
398.60          22.381
399.05        22.48854
399.50        22.60124
399.95        22.60952
400.39        22.49136
400.84        22.27709
401.29        22.04531
401.74        21.94064
402.18        22.00542
402.63        22.18269
403.08        22.36978
403.53        22.40047
403.97        22.24097
404.42        21.96084
404.87        21.66032
405.32        21.50422
405.76        21.53223
406.21        21.68715
406.66         21.8925
407.11        22.02917
407.55        22.06367
408.00        22.03915
408.45        21.98126
408.90        21.87604
409.34        21.76153
409.79        21.73826
410.24        21.77607
410.68        21.73788
411.13        21.62354
411.58        21.51821
412.03        21.43462
412.47         21.3641
412.92        21.30984
413.37        21.26843
413.81        21.26278
414.26        21.34241
414.71        21.49926
415.15        21.72394
415.60        21.91713
416.05        21.94758
416.49        21.78546
416.94        21.47461
417.39        21.12326
417.83         20.9075
418.28         20.8789
418.73        20.98054
419.17        21.12676
419.62        21.17225
420.07        21.08603
420.51        20.91947
420.96        20.73607
421.41        20.60988
421.85         20.5567
422.30        20.55874
422.74        20.59252
423.19        20.66016
423.64        20.74362
424.08         20.8569
424.53        20.95078
424.98        20.97198
425.42         20.9131
425.87        20.78893
426.31         20.6405
426.76        20.54163
427.21        20.49844
427.65        20.48413
428.10         20.4954
428.54         20.4962
428.99        20.48288
429.44         20.5617
429.88        20.65111
430.33        20.48309
430.77        20.13573
431.22        19.99726
431.66        20.09391
432.11        20.23294
432.56        20.36826
433.00         20.6035
433.45        20.76278
433.89        20.59834
434.34        20.26571
434.78        19.98881
435.23        19.71227
435.67         20.6236
436.12        19.86395
436.57        19.77784
437.01        19.59762
437.46        19.53312
437.90         19.5951
438.35        19.71131
438.79        19.82041
439.24        19.86298
439.68        19.82256
440.13        19.56109
440.57        19.22396
441.02        19.35203
441.46        19.77283
441.91        19.85865
442.35        19.13252
442.80        18.91259
443.24        19.00231
443.69        18.98858
444.13        18.84372
444.58        18.73672
445.02        18.68011
445.47         18.6791
445.91        18.70931
446.36        18.68843
446.80        18.60269
447.24        18.49998
447.69        18.41137
448.13        18.34404
448.58        18.31147
449.02        18.30435
449.47         18.3033
449.91        18.27004
450.36        18.20342
450.80         18.1139
451.25        18.03103
451.69        17.98131
452.13          17.977
452.58        17.99983
453.02        18.03841
453.47        18.07752
453.91        18.10979
454.36        18.13774
454.80        18.14629
455.24        18.10962
455.69        18.03396
456.13        17.91024
456.58        17.78743
457.02        17.72835
457.46        17.74061
457.91        17.76463
458.35        17.77534
458.79        17.77949
459.24        17.76558
459.68        17.73887
460.13        17.75485
460.57         17.7302
461.01        17.65059
461.46        17.99425
461.90        18.06065
462.34        17.86765
462.79        18.01024
463.23        17.88419
463.68         17.7725
464.12        17.66509
464.56        17.71485
465.01        17.79311
465.45        17.86546
465.89        17.89768
466.34        17.88587
466.78        17.78526
467.22        17.64576
467.67        17.67369
468.11        17.82779
468.55        17.75961
468.99        17.51603
469.44        17.45586
469.88        17.59669
470.32        17.74606
470.77        17.83977
471.21        17.86775
471.65        17.81425
472.10        17.68459
472.54        17.53744
472.98        17.50498
473.42        17.60717
473.87        17.75126
474.31        17.88184
474.75        18.02469
475.20        18.12347
475.64        18.00982
476.08        17.77274
476.52        17.70071
476.97        17.81907
477.41        18.00531
477.85        18.18518
478.29        18.26917
478.74        18.27064
479.18        18.15177
479.62        18.01719
480.06        18.01492
480.50        18.14793
480.95        18.28627
481.39        18.37103
481.83        18.40095
482.27        18.36557
482.72        18.26736
483.16        18.16022
483.60        18.13132
484.04        18.20287
484.48        18.39648
484.93        18.70447
485.37        18.85155
485.81        19.03605
486.25        19.34779
486.69        19.97615
487.14        19.59139
487.58        19.21431
488.02        19.92572
488.46        19.36225
488.90        19.46466
489.34        19.42474
489.79        19.56816
490.23        19.82455
490.67        20.03313
491.11        20.15873
491.55        20.12135
491.99        19.97146
492.43          19.908
492.88        19.96556
493.32        20.02108
493.76        20.09176
494.20        20.25258
494.64        20.50078
495.08        20.83431
495.52        21.18745
495.96        21.40771
496.41        21.50588
496.85        21.60897
497.29        21.74113
497.73         21.9228
498.17        22.12947
498.61        22.20422
499.05        22.18089
499.49         22.2995
499.93        22.57753
500.37        22.82443
500.82        23.01179
501.26        23.28302
501.70         23.5707
502.14        23.57156
502.58        23.35628
503.02        23.30478
503.46        23.45075
503.90        23.60337
504.34        23.71009
504.78        23.76451
505.22        23.75059
505.66         23.6859
506.10        23.61577
506.54        23.57881
506.98        23.59019
507.42        23.69178
507.86        23.88328
508.30        23.88134
508.74        24.11734
509.18        24.23104
509.62        24.35437
510.06        24.47441
510.50        24.59159
510.94        24.70278
511.38        24.77764
511.82        24.78343
512.26        24.71948
512.70          24.599
513.14        24.48687
513.58        24.48034
514.02        24.58972
514.46        24.78718
514.90        24.99656
515.34        25.03063
515.78        24.90122
516.22        24.71484
516.66        24.56546
517.10        24.26712
517.54        23.84906
517.98        24.37744
518.42        24.24889
518.86        24.48896
519.30        24.59908
519.74        24.73451
520.18        24.85369
520.62        24.86928
521.06        24.78811
521.50         24.6186
521.93        24.40903
522.37        24.24953
522.81        24.16589
523.25        24.13947
523.69        24.14466
524.13        24.13834
524.57        24.10472
525.01        24.05429
525.45        23.99963
525.89        23.95796
526.32         23.9323
526.76        23.91886
527.20        23.89184
527.64        23.81742
528.08        23.69104
528.52        23.52042
528.96        23.35466
529.40        23.26722
529.83        23.26789
530.27        23.34054
530.71        23.40916
531.15        23.35513
531.59        23.16021
532.03        22.86646
532.46        22.56556
532.90        22.41912
533.34        22.45143
533.78        22.60605
534.22        22.79396
534.66        22.87839
535.09         22.8201
535.53         22.6722
535.97        22.48212
536.41        22.32079
536.85        22.21702
537.28        22.16097
537.72        22.15357
538.16        22.12959
538.60        22.19028
539.04         22.2432
539.47        22.30512
539.91        22.40857
540.35        22.56221
540.79        22.56151
541.22        22.68923
541.66        22.77321
542.10        22.91734
542.54        22.75792
542.97        22.91177
543.41        22.97731
543.85        23.12393
544.29        23.28557
544.72        23.42705
545.16        23.56111
545.60        23.67498
546.04        23.69632
546.47        23.69693
546.91        23.93937
547.35        24.36398
547.79        24.65276
548.22        24.76834
548.66        24.82179
549.10        24.86107
549.53        25.05513
549.97        25.40201
550.41        25.43467
550.84        25.61835
551.28        25.70478
551.72        25.87186
552.15        26.08925
552.59        26.36088
553.03        26.67928
553.46        26.97176
553.90        27.15672
554.34        27.21779
554.77        27.18198
555.21        27.12377
555.65        27.14954
556.08        27.28074
556.52        27.48104
556.96        27.69714
557.39        27.88136
557.83        28.00399
558.27        28.01791
558.70        27.96344
559.14        27.95966
559.57        28.01672
560.01        28.11531
560.45        28.21881
560.88        28.23646
561.32        28.21774
561.75        28.25128
562.19        28.44425
562.63        28.55691
563.06        28.61269
563.50        28.68857
563.93        28.77998
564.37        28.93453
564.80        29.01619
565.24        29.13947
565.68        29.24596
566.11        29.34591
566.55        29.45875
566.98        29.52882
567.42        29.54563
567.85        29.86517
568.29        29.72217
568.72        30.03089
569.16        30.48273
569.60        30.79103
570.03        30.90595
570.47        31.02918
570.90         31.0352
571.34        31.41871
571.77        31.20388
572.21        31.70823
572.64        31.89394
573.08        32.17742
573.51        32.23974
573.95        32.49086
574.38        32.92907
574.82        33.19702
575.25        33.28173
575.69        33.12518
576.12        33.09528
576.56        32.98128
576.99        32.92717
577.42        33.14951
577.86        33.14358
578.29        33.22361
578.73         33.6591
579.16        33.38305
579.60           32.95
580.03        32.88805
580.47         32.8588
580.90        32.51967
581.33        32.46838
581.77        32.53426
582.20        33.07697
582.64        32.54293
583.07        32.13586
583.51        32.23183
583.94         31.4754
584.37         31.4269
584.81         31.0414
585.24        31.01787
585.68        31.03586
586.11        31.14894
586.54        30.94168
586.98         30.5921
587.41        30.67042
587.85        30.66456
588.28        30.70221
588.71        30.54197
589.15        30.26562
589.58        29.84554
590.01         30.1593
590.45        30.32429
590.88        29.95609
591.31        30.06642
591.75         29.7505
592.18        29.91981
592.61        29.70833
593.05        30.16331
593.48        30.05367
593.91        30.97376
594.35        30.45819
594.78        30.36829
595.21        30.75014
595.65        31.06239
596.08        30.96757
596.51        31.00925
596.94        31.11433
597.38         31.0938
597.81        31.04949
598.24         31.4079
598.68        32.28834
599.11        32.38498
599.54        33.22922
599.97        33.15281
600.41        33.41948
600.84        33.62733
601.27        34.48898
601.70        34.77295
602.14        35.03121
602.57        35.42156
603.00        36.06396
603.43        36.47182
603.87        36.64851
604.30        37.09569
604.73        37.78366
605.16        37.85104
605.60        38.50235
606.03        39.01932
606.46        39.59091
606.89        40.33858
607.32        40.93788
607.76        40.75841
608.19        41.41323
608.62        41.85992
609.05        42.07317
609.48        42.33257
609.92        42.54007
610.35        42.73172
610.78        43.60388
611.21        44.18449
611.64         44.0803
612.07        44.44902
612.50        44.59407
612.94        44.92915
613.37        45.22923
613.80        45.66363
614.23        46.18057
614.66        46.38677
615.09        46.72819
615.52        47.03384
615.96        47.35801
616.39        47.63578
616.82        47.94692
617.25        47.60813
617.68        48.00793
618.11        48.47806
618.54         48.7689
618.97        48.92769
619.40        48.84563
619.84        48.52299
620.27        48.32842
620.70        48.74333
621.13         49.6445
621.56        49.90236
621.99        49.62326
622.42        49.56764
622.85        49.92636
623.28         50.0626
623.71        50.02588
624.14        50.10344
624.57        50.01535
625.00        50.09555
625.43        50.11329
625.86        49.45261
626.29         49.4161
626.72        49.29158
627.15        49.15951
627.58        49.12907
628.01        49.01263
628.44         49.1045
628.87        48.79834
629.30        48.21308
629.73        48.04136
630.16        47.45599
630.59        47.20885
631.02        46.86302
631.45        46.54468
631.88        46.17874
632.31        45.74526
632.74        45.26688
633.17        44.75533
633.60        44.24236
634.03        43.73986
634.46        43.24287
634.89        42.74606
635.32        42.23974
635.75        41.72765
636.18         41.2244
636.61        40.74149
637.04        40.29028
637.47        39.87089
637.89        39.47782
638.32        39.10351
638.75        38.76075
639.18        38.44962
639.61        38.17009
640.04        37.89761
640.47        37.58963
640.90         37.2424
641.33        36.87419
641.76        36.52596
642.18        36.26865
642.61        36.11423
643.04         36.0424
643.47        36.02874
643.90        36.03008
644.33        36.03171
644.76        36.05175
645.18        36.08309
645.61        36.11746
646.04        36.15929
646.47        36.20525
646.90         36.2984
647.33        36.51845
647.75        36.87971
648.18        37.33587
648.61         37.8185
649.04        38.27477
649.47        38.66262
649.89         38.8706
650.32        39.00959
650.75        39.44839
651.18         40.2053
651.61        40.92099
652.03        41.55244
652.46        42.42884
652.89        43.45674
653.32        43.91113
653.74        43.90601
654.17        44.64837
654.60        45.24656
655.03        46.26477
655.46        45.96502
655.88        47.63804
656.31        49.12382
656.74        55.47848
657.16        54.44484
657.59        51.72222
658.02        50.92167
658.45        50.86987
658.87        51.52256
659.30        52.09988
659.73        52.81452
660.15        53.19094
660.58         53.5077
661.01        53.39938
661.44        53.16762
661.86        53.45939
662.29         54.2417
662.72        55.05778
663.14        55.69509
663.57        55.80546
664.00        55.54758
664.42        55.60647
664.85        56.05185
665.27        56.45808
665.70        56.75667
666.13         56.8895
666.55          57.182
666.98        57.31478
667.41        57.42301
667.83        57.55349
668.26        57.71443
668.69        57.89846
669.11        58.07507
669.54        58.20205
669.96        58.27777
670.39        58.31654
670.82        58.36245
671.24        58.48711
671.67        58.70219
672.09        58.95373
672.52        59.19082
672.94        59.39259
673.37        59.51047
673.80         59.3937
674.22        59.14178
674.65        59.06007
675.07        59.20217
675.50        59.40819
675.92        59.61676
676.35        59.74598
676.77        59.76759
677.20        59.72995
677.62        59.67136
678.05         59.6134
678.47        59.56269
678.90        59.68623
679.32        59.68246
679.75        59.80175
680.17        59.93938
680.60        60.15654
681.02        60.40968
681.45        60.46563
681.87         60.3939
682.30         60.5486
682.72        60.87571
683.15         60.9662
683.57        60.81284
684.00        60.56634
684.42        60.45729
684.85        60.45539
685.27        60.63197
685.70        60.93771
686.12        61.25258
686.54        61.50575
686.97        61.66979
687.39        61.41677
687.82        61.33144
688.24        61.35743
688.66        61.40263
689.09        61.39414
689.51         61.2665
689.94        61.27958
690.36        61.28708
690.78        61.30627
691.21        61.28929
691.63        61.37041
692.06        61.67473
692.48        61.60664
692.90        61.76076
693.33        62.18833
693.75         61.9887
694.17        62.01258
694.60        61.96487
695.02        61.85138
695.44        61.65632
695.87        61.62008
696.29        61.71018
696.71        61.35964
697.14        60.83462
697.56        61.19566
697.98        62.20021
698.41        62.81402
698.83        62.71021
699.25        62.06553
699.68         62.2615
700.10        62.11082
700.52        62.04627
700.94        62.31389
701.37         62.3946
701.79        62.56157
702.21        62.61213
702.64         62.5985
703.06        62.55883
703.48        62.57413
703.90        62.66886
704.33        62.80566
704.75        62.92826
705.17        62.92048
705.59        62.76483
706.01        62.50624
706.44        62.26926
706.86        62.22538
707.28        62.39487
707.70        62.76514
708.12        63.22791
708.55        63.35086
708.97        63.40534
709.39        63.39469
709.81        63.13008
710.23        62.99951
710.66        62.94815
711.08        62.94975
711.50        62.98809
711.92        63.07103
712.34        63.19296
712.76        63.35966
713.19        63.51879
713.61        63.63022
714.03        63.65577
714.45          63.609
714.87        63.54803
715.29         63.5665
715.71        63.68066
716.13        63.86837
716.56        64.07198
716.98        64.19219
717.40        64.16462
717.82        64.15946
718.24        64.25884
718.66        63.85546
719.08        64.13676
719.50        64.14981
719.92        64.19305
720.34        64.19941
720.76        64.15897
721.19        64.07887
721.61        63.98329
722.03        63.90839
722.45        63.88501
722.87        63.89253
723.29         63.9301
723.71        63.98641
724.13        64.05795
724.55        64.14712
724.97         64.2598
725.39        64.40483
725.81        64.57468
726.23        64.75322
726.65         64.9174
727.07        65.03656
727.49        65.10376
727.91        65.13033
728.33        65.12543
728.75        65.10551
729.17          65.084
729.59        65.06293
730.01        65.06107
730.43        65.10522
730.85        65.19715
731.27        65.32452
731.69        65.46228
732.10        65.58115
732.52          65.658
732.94        65.68781
733.36        65.65129
733.78        65.61179
734.20        65.61462
734.62        65.48416
735.04        65.17279
735.46        65.54082
735.88        65.33656
736.30        65.03483
736.72        65.18402
737.13         65.3502
737.55        65.68513
737.97        66.01373
738.39        66.23205
738.81        66.09683
739.23        65.71355
739.65        65.60629
740.06        65.74928
740.48        65.82463
740.90        65.79705
741.32        65.44592
741.74         65.4956
742.16        65.45076
742.57        65.53304
742.99         65.6318
743.41        65.72044
743.83         65.7658
744.25        65.74294
744.67        65.65463
745.08        65.53487
745.50        65.41838
745.92        65.33942
746.34        65.27563
746.75        65.21602
747.17        65.18477
747.59        65.19539
748.01        65.09598
748.42        65.19159
748.84         65.2767
749.26        65.44937
749.68        65.56203
750.09        65.62885
750.51        65.92574
750.93        66.30986
751.35        66.22001
751.76        65.73971
752.18        65.46138
752.60        65.40652
753.01        65.50443
753.43        65.30351
753.85        65.33408
754.27        65.44228
754.68        65.78905
755.10        66.27116
755.52        65.96294
755.93        65.87875
756.35        65.69437
756.77        65.76436
757.18        65.79804
757.60        65.84639
758.02          66.109
758.43         66.4672
758.85        66.55104
759.26        66.79158
759.68        66.26605
760.10         66.2293
760.51        65.95708
760.93        65.90036
761.34        65.60163
761.76        66.25505
762.18        65.94642
762.59        65.23073
763.01        65.10065
763.42        65.65285
763.84        66.06854
764.26        66.25442
764.67         66.3625
765.09        66.45308
765.50        66.72095
765.92        67.08844
766.33        67.03093
766.75         66.5388
767.16         66.1806
767.58        66.00781
768.00         65.7687
768.41        65.55756
768.83        65.66544
769.24        66.03037
769.66        66.36564
770.07        66.56879
770.49        66.57623
770.90        66.47143
771.32        66.61229
771.73        66.93743
772.15        66.98278
772.56        66.74902
772.97        66.48229
773.39        66.22874
773.80        66.09901
774.22        66.04286
774.63        65.78024
775.05        65.40946
775.46        65.37596
775.88        65.69016
776.29        66.16574
776.70        66.59815
777.12        66.75889
777.53        66.59274
777.95        66.13955
778.36        65.61947
778.77        65.41527
779.19        65.61794
779.60        66.15745
780.02        66.76126
780.43        67.14428
780.84        67.22772
781.26        66.75785
781.67        66.06717
782.09        66.56586
782.50        67.95345
782.91        67.91662
783.33        67.07807
783.74        66.78442
784.15        67.24157
784.57        67.50725
784.98         67.4515
785.39        67.07502
785.81        66.49531
786.22         66.2551
786.63        66.37807
787.04        66.41266
787.46        66.36024
787.87        66.51465
788.28        66.83025
788.70        67.04167
789.11        67.10286
789.52        67.12561
789.93        67.12848
790.35         67.0465
790.76         66.9212
791.17        66.93179
791.58        67.06168
792.00        66.96255
792.41        66.61731
792.82         66.6964
793.23        66.67593
793.65        66.30569
794.06         65.7101
794.47        66.03036
794.88        67.07474
795.29        67.76945
795.71        67.83713
796.12        67.64565
796.53        67.62415
796.94        67.13306
797.35        66.51245
797.76        66.43334
798.18        66.84801
798.59        67.06846
799.00        67.03127
799.41        67.19704
799.82        67.51888
800.23        67.67564
800.64        67.62765
801.06         67.4253
801.47        67.19643
801.88        67.09106
802.29        67.14869
802.70         67.3152
803.11        67.47934
803.52        67.46181
803.93        67.23324
804.34        66.86428
804.75        66.48222
805.17        66.33166
805.58        66.49431
805.99        66.72129
806.40        66.94186
806.81        67.47236
807.22        68.05805
807.63        67.74598
808.04        66.79821
808.45        66.52994
808.86        67.07518
809.27        67.74717
809.68        68.32156
810.09        68.70434
810.50        68.77486
810.91        68.55959
811.32        68.19222
811.73        67.84306
812.14        67.57214
812.55        67.47726
812.96        67.49734
813.37        67.16959
813.78         66.6453
814.19        66.77594
814.60        67.40921
815.01        67.62839
815.42        67.36929
815.83        67.08804
816.24        66.91521
816.65        66.86933
817.05        67.01123
817.46        67.30485
817.87        67.61377
818.28        67.68086
818.69        67.46432
819.10        67.03655
819.51        66.60797
819.92         66.5584
820.33        66.97968
820.74        67.72707
821.14        68.57386
821.55        69.13631
821.96        69.31188
822.37        69.20133
822.78        68.91154
823.19        68.62405
823.60        68.41876
824.00        68.27068
824.41        68.13544
824.82        68.03522
825.23        67.96687
825.64        67.94468
826.04        67.99635
826.45        68.10326
826.86        68.26232
827.27        68.46942
827.68        68.63579
828.08         68.6424
828.49        68.41776
828.90        68.01477
829.31        67.58948
829.72        67.42385
830.12        67.60435
830.53        68.00917
830.94          68.464
831.35        68.66969
831.75         68.5743
832.16        68.22861
832.57        67.78551
832.97        67.48543
833.38        67.39618
833.79        67.44752
834.20        67.56825
834.60        67.64142
835.01        67.64701
835.42        67.63591
835.82        67.62843
836.23         67.5986
836.64        67.56643
837.04        67.51286
837.45        67.47893
837.86        67.58292
838.26         67.8528
838.67        68.23996
839.08        68.61134
839.48        68.70276
839.89        68.46328
840.29        68.00001
840.70         67.5712
841.11        67.49497
841.51        67.84986
841.92        68.47825
842.33        69.25028
842.73         69.9371
843.14        70.34236
843.54        70.58231
843.95         70.5723
844.35        70.26481
844.76        69.70557
845.17        68.94532
845.57        68.19051
845.98        67.77438
846.38        67.76928
846.79        68.09668
847.19        68.64453
847.60        69.06412
848.00        69.28572
848.41        69.33034
848.81        69.32365
849.22        69.38598
849.62        69.59183
850.03        69.84566
850.43        70.09771
850.84        70.18719
851.24        70.11703
851.65        69.88268
852.05        69.62836
852.46        69.47464
852.86        69.46377
853.27        69.57508
853.67        69.65844
854.07        69.61023
854.48        69.38361
854.88        69.05502
855.29        68.67112
855.69        68.45179
856.10        68.38326
856.50        68.48528
856.90        68.67859
857.31         68.8473
857.71        69.01395
858.12        69.14937
858.52        69.27604
858.92         69.3225
859.33        69.26707
859.73        69.13477
860.13        68.98907
860.54        68.97215
860.94        69.16425
861.34        69.49356
861.75        69.77096
862.15        69.77975
862.55        69.43956
862.96        68.86623
863.36        68.23975
863.76        67.83891
864.17        67.74492
864.57        67.87867
864.97        68.17803
865.38        68.53304
865.78        68.92065
866.18        69.28562
866.58        69.48942
866.99        69.30209
867.39        68.72578
867.79        67.82999
868.19        66.70222
868.60        65.46456
869.00        64.17911
869.40        62.90389
869.80        61.93922
870.21        61.74776
870.61        62.44628
871.01        63.83149
871.41        65.40781
871.81         66.3807
872.22        66.57627
872.62        66.21707
873.02        65.56613
873.42        65.32545
873.82        65.43677
874.22        65.10108
874.63        64.60854
875.03        64.64229
875.43        65.26633
875.83        67.42725
876.23        67.55609
876.63        66.88946
877.03        64.76536
877.44        61.31544
877.84        136.6543
878.24        60.35725
878.64        62.21117
879.04        67.43658
879.44        64.16776
879.84        62.33189
880.24        67.25185
880.64        67.17802
881.04        63.38824
881.44        60.97755
881.84        60.83637
882.24        62.08942
882.65         63.9508
883.05        64.84225
883.45         64.2742
883.85        63.11345
884.25        61.98248
884.65        61.46239
885.05        61.74045
885.45        62.58086
885.85        63.56459
886.25        64.03859
886.65        63.81738
887.05        63.12471
887.45        62.33987
887.85        62.01489
888.25        62.28503
888.65        62.98043
889.04        63.81127
889.44        64.21651
889.84         64.0703
890.24        63.54706
890.64        62.94126
891.04        62.68909
891.44        62.86375
891.84        63.27607
892.24         63.6971
892.64        63.74474
893.04         63.3401
893.44        62.70892
893.83        61.93752
894.23        61.15075
894.63         60.4087
895.03        59.64212
895.43        59.09661
895.83        59.19138
896.23        59.95514
896.63        61.26611
897.02         62.5913
897.42        62.96424
897.82        62.19104
898.22         60.5995
898.62        58.81231
899.01        57.79077
899.41        57.79831
899.81        58.50458
900.21        59.59158
900.61        60.57709
901.00        61.27137
901.40        61.79309
901.80        62.14869
902.20        62.31921
902.59        62.32748
902.99        62.14615
903.39        61.80641
903.79         61.4019
904.18        60.98433
904.58         60.5999
904.98        60.37086
905.38        60.46652
905.77        60.88901
906.17        61.58956
906.57        62.31508
906.96        62.69038
907.36        62.58332
907.76        62.07736
908.15        61.45956
908.55        61.14644
908.95        61.26619
909.34          61.745
909.74        62.24505
910.14        62.16293
910.53        61.37266
910.93         60.1285
911.33        58.98951
911.72        58.83973
912.12        59.78069
912.52        61.43668
912.91        63.17617
913.31        63.94151
913.70         63.5383
914.10        62.28294
914.49        60.55533
914.89        59.24773
915.29        58.72122
915.68        58.72249
916.08         59.1479
916.47        59.84568
916.87         60.6572
917.26        61.62579
917.66         62.4882
918.05        62.83108
918.45        62.55332
918.84        61.80612
919.24          60.786
919.64        59.85847
920.03        59.18818
920.42        58.71069
920.82        58.57702
921.21        58.96758
921.61        59.79863
922.00        61.02975
922.40         62.2049
922.79        62.81414
923.19        62.73893
923.58        61.84863
923.98        60.33134
924.37        59.47807
924.77        59.82998
925.16        56.86239
925.55        58.44629
925.95        58.29461
926.34        58.74487
926.74        59.50819
927.13        60.50139
927.52        61.36313
927.92        61.95292
928.31        62.42686
928.70        62.68885
929.10        62.64275
929.49        62.29657
929.89        61.65463
930.28        61.03395
930.67        60.95501
931.07        61.47609
931.46        62.50988
931.85        63.55555
932.24        63.84914
932.64        63.21817
933.03        61.76543
933.42        59.99345
933.82         58.9466
934.21        58.92507
934.60        59.65735
934.99         60.3369
935.39        60.21317
935.78         59.1941
936.17        56.80638
936.56        53.46434
936.96        54.89078
937.35        54.46263
937.74        57.19993
938.13        59.92698
938.53         61.6747
938.92          62.326
939.31        62.24753
939.70        61.78989
940.09        61.42579
940.49        61.38719
940.88        61.51911
941.27        61.75874
941.66        62.06894
942.05         62.3939
942.44        62.73928
942.84        63.08718
943.23        63.38389
943.62        63.58445
944.01        63.74264
944.40        63.66207
944.79        63.03687
945.18         61.8508
945.57        60.16486
945.97        58.59043
946.36        58.14987
946.75        59.11807
947.14        61.07989
947.53        63.14268
947.92         64.0888
948.31         63.7066
948.70        62.38486
949.09        60.65942
949.48        59.48445
949.87        59.19248
950.26        59.47633
950.65         60.1033
951.04        60.68779
951.43        61.05464
951.82        61.35714
952.21        61.51754
952.60        61.38208
952.99        60.95373
953.38        60.23518
953.77         59.4462
954.16        58.96854
954.55        58.89144
954.94        59.14994
955.33        59.51577
955.72        59.58208
956.11         59.2559
956.50        58.65725
956.89        58.05165
957.28        57.93889
957.66         58.4473
958.05        59.26869
958.44        60.12286
958.83        60.64887
959.22        60.76239
959.61        60.61324
960.00        60.17106
960.39        59.40427
960.78        58.40261
961.16        57.16927
961.55        56.10935
961.94        55.72224
962.33        56.08481
962.72        57.08975
963.11        58.25406
963.49        58.73007
963.88        58.22028
964.27        56.98526
964.66         55.5695
965.04        54.88896
965.43        55.17876
965.82        56.17382
966.21        57.39861
966.60        58.07486
966.98        58.00669
967.37        57.42986
967.76        56.75475
968.15        56.60873
968.53        57.15165
968.92        58.05836
969.31        59.01333
969.69        59.52034
970.08        59.36006
970.47        58.73024
970.86        57.75055
971.24         56.5656
971.63         55.3539
972.02         54.1311
972.40        53.00726
972.79         52.2109
973.17        51.82938
973.56        51.75333
973.95        52.06664
974.33        52.85174
974.72        53.90982
975.11        55.14999
975.49        56.11686
975.88         56.1253
976.26        55.09733
976.65        53.30083
977.04        51.22136
977.42         49.7277
977.81        49.15262
978.19        49.24997
978.58        49.92307
978.96        50.95169
979.35        52.12403
979.74        53.60254
980.12        55.03489
980.51        55.54397
980.89        55.09488
981.28        53.83683
981.66        52.55243
982.05        52.37008
982.43        53.44629
982.82        55.41156
983.20        57.64719
983.59        58.73187
983.97         58.3099
984.35        56.73004
984.74        54.68132
985.12        53.13239
985.51        52.40149
985.89        52.17954
986.28        52.24461
986.66        52.19152
987.04         51.8531
987.43        51.50244
987.81        51.09874
988.20        50.48617
988.58        49.57354
988.96        48.18966
989.35        46.68408
989.73        46.04881
990.12        46.73816
990.50        48.45594
990.88        50.16867
991.27        50.66646
991.65        49.99718
992.03        48.46218
992.42        46.82965
992.80        46.53148
993.18        48.01778
993.56        50.57145
993.95        53.33635
994.33        55.59584
994.71        56.93494
995.10        57.59233
995.48        57.64378
995.86        57.09124
996.24        56.01188
996.63         54.4081
997.01        52.35244
997.39        50.45932
997.77        49.22983
998.15        48.69496
998.54        48.81625
998.92        49.50734
999.30        50.70723
999.68        52.60468
1000.06        54.83054
1000.45        55.79776
1000.83        54.78435
1001.21        52.44802
1001.59        49.97239
1001.97        48.27921
1002.35        47.28751
1002.73        46.63015
1003.12         46.1692
1003.50        45.78882
1003.88        45.43179
1004.26         45.3138
1004.64        45.22019
1005.02        44.71688
1005.40        43.74683
1005.78        42.31927
1006.16        41.01681
1006.54        41.08447
1006.92        42.54041
1007.30        44.54227
1007.69        46.17977
1008.07        46.75535
1008.45         45.9857
1008.83        43.96984
1009.21        40.00788
1009.59        33.70705
1009.97        26.22699
1010.35         18.8098
1010.73        14.53152
1011.11        15.76139
1011.49        21.62198
1011.86        30.99021
1012.24        39.68819
1012.62        43.58281
1013.00        42.40679
1013.38        37.67225
1013.76        31.70222
1014.14         28.6158
1014.52        29.67514
1014.90        33.61061
1015.28         38.6604
1015.66        41.92527
1016.04        42.37553
1016.41        40.79781
1016.79        37.87277
1017.17        35.33592
1017.55        34.26406
1017.93        34.01016
1018.31        34.19774
1018.69         34.5687
1019.06         34.8821
1019.44        34.95879
1019.82         34.6827
1020.20        33.62108
1020.58        31.69065
1020.95        29.32372
1021.33        25.93012
1021.71        19.38055
1022.09        7.524954
1022.46       -15.49764
1022.84       -50.40198
1023.22       -62.72946
1023.60       -32.16878
1023.97        3.977431
1024.35        24.98737
1024.73        32.41817
