SpectraSmart Spectrum 2.9.0.0
--------- Device Information -----------
Spectrum Name :  反射率_0
Saving Time :  2024/04/20 00:29:49
Spectro-Module Model Name : SE2030-DUVN
Spectro-Module Serial Number : OS361AC55029948
Wavelength Start : 200
Wavelength End : 1025
Wavelength Unit : Wavelength(nm)
Spectrum Unit : Reflectance(%)
-----------Spectrum Setting ------------
Integration Time : 30ms
Average : 10
Boxcar : 0
Background removal :  enabled
linearity correction :  enabled
SC :  disabled
Intensity correction :  disabled
DWT denoise :  enabled
savitzky-golay :  disabled
FFT :  disabled
Running average :  disabled
Kalman :  disabled
High pass :  disabled
---------------BEGIN--------------------
Wavelength(nm)             Reflectance(%)
200.29               0
200.75        65.15487
201.21        67.23254
201.67        71.79957
202.13        78.55096
202.58         86.8955
203.04        97.08727
203.50        105.4555
203.96        104.1738
204.42        94.37261
204.88        81.90775
205.34        71.60054
205.80        65.27189
206.26        61.65737
206.72        59.43071
207.18        58.28534
207.64        57.99504
208.10        58.57135
208.55        60.48222
209.01        62.34901
209.47         63.8276
209.93        64.84637
210.39        65.29797
210.85        65.16202
211.31        64.49802
211.77        63.28185
212.23        61.42648
212.69        59.18629
213.14        58.17508
213.60        58.77138
214.06        60.49252
214.52        62.38718
214.98        64.11472
215.44        65.75758
215.90         67.2878
216.36        68.88924
216.81        70.56291
217.27        71.93512
217.73        73.15708
218.19        73.15925
218.65        70.39959
219.11        64.70553
219.57        56.07364
220.02        46.79598
220.48        43.15385
220.94        47.07336
221.40        57.28849
221.86        68.90967
222.32        74.41556
222.77        72.22826
223.23        65.04915
223.69        57.01156
224.15          54.078
224.61        56.58061
225.06        61.42709
225.52        66.07217
225.98        68.48051
226.44        68.58753
226.90        67.38737
227.36        65.46591
227.81        63.68194
228.27        62.74567
228.73        62.19266
229.19        61.95498
229.65        61.99723
230.10        62.15995
230.56        62.51266
231.02        62.86811
231.48        63.00509
231.93        62.86518
232.39        62.57102
232.85        62.13186
233.31        61.62209
233.77        61.10533
234.22        60.57857
234.68        60.17551
235.14        60.03288
235.60        60.19636
236.05        60.63377
236.51        61.30208
236.97        62.15751
237.43        63.25327
237.88        64.87162
238.34        66.77791
238.80          68.617
239.26        69.85014
239.71        70.25343
240.17        69.99673
240.63         70.0955
241.08        70.91557
241.54          72.255
242.00        73.44262
242.46        73.06216
242.91        70.45174
243.37        64.88161
243.83        57.10871
244.28        53.27494
244.74        58.67882
245.20        71.40446
245.66        83.09566
246.11        87.06862
246.57        82.68506
247.03        70.30637
247.48        51.78638
247.94        42.51782
248.40        47.36555
248.85        56.25047
249.31        63.58537
249.77        67.94379
250.22        70.24094
250.68        71.86011
251.14        73.20863
251.59        74.45091
252.05        75.73941
252.51        76.79056
252.96        77.31879
253.42        77.42739
253.88        77.26508
254.33        76.90938
254.79        77.32864
255.25        79.05645
255.70        81.76812
256.16        84.90412
256.62        87.59357
257.07        88.86922
257.53        88.85932
257.99        87.78008
258.44        85.65124
258.90        83.49488
259.35        81.28249
259.81        79.75068
260.27        78.42419
260.72        76.87843
261.18        75.39321
261.63        73.56143
262.09        72.16235
262.55        71.66706
263.00        71.88554
263.46        72.67883
263.91        73.04732
264.37        72.22942
264.83        70.21317
265.28        67.35342
265.74        64.70474
266.19          63.194
266.65        63.03281
267.11        63.67641
267.56        64.43391
268.02        64.34247
268.47        63.19857
268.93        61.35975
269.38        59.21957
269.84        57.64491
270.30         56.8514
270.75        56.55443
271.21        56.43808
271.66        56.01025
272.12        55.12831
272.57        53.95454
273.03        52.65859
273.48        51.38763
273.94        50.29095
274.39        49.29178
274.85        48.41105
275.31        47.61361
275.76        46.84861
276.22        46.13813
276.67        45.48727
277.13        45.03845
277.58        44.70664
278.04        44.48702
278.49        44.11337
278.95        43.31999
279.40        42.05981
279.86        40.56496
280.31        39.06458
280.77        38.05366
281.22        37.53377
281.68         37.3858
282.13        37.37774
282.59        37.22522
283.04        36.83256
283.50         36.3401
283.95        35.78989
284.41        35.29833
284.86        34.87434
285.32        34.50613
285.77        34.20137
286.22        34.06113
286.68        34.08179
287.13        34.19781
287.59        34.32919
288.04        34.30983
288.50        34.13349
288.95        33.81281
289.41        33.43653
289.86        33.05941
290.32        32.76474
290.77        32.52867
291.22        32.38779
291.68         32.3587
292.13        32.44487
292.59         32.6726
293.04        33.03756
293.50        33.54921
293.95        34.18497
294.40        34.92154
294.86         35.7313
295.31        36.58507
295.77        37.46487
296.22        38.36329
296.68        39.24952
297.13        40.05827
297.58        40.78601
298.04         41.4579
298.49        42.12175
298.95        42.90192
299.40        43.80322
299.85        44.78674
300.31        45.80035
300.76        46.74403
301.21        47.59309
301.67        48.41096
302.12        49.16415
302.58        49.88842
303.03        50.56995
303.48        51.22768
303.94        51.95191
304.39        52.82837
304.84        53.86894
305.30         55.0203
305.75        56.12944
306.20        57.00145
306.66        57.61441
307.11        58.00274
307.57        58.28173
308.02        58.52933
308.47        58.81409
308.93        59.10515
309.38        59.40558
309.83        59.79329
310.29        60.26123
310.74        60.78815
311.19        61.24822
311.65        61.42868
312.10        61.28866
312.55        60.89988
313.00        60.45059
313.46        60.23417
313.91        60.29643
314.36        60.56425
314.82        60.86846
315.27        60.96238
315.72        60.76355
316.18         60.3751
316.63         59.8995
317.08         59.5148
317.53        59.26838
317.99        59.09182
318.44        58.93892
318.89        58.72292
319.35        58.41893
319.80         58.0701
320.25        57.70096
320.70        57.34616
321.16        57.01197
321.61          56.691
322.06        56.37546
322.51        56.06396
322.97        55.74282
323.42        55.42499
323.87        55.09206
324.32        54.72312
324.78        54.30471
325.23        53.86316
325.68        53.39943
326.13        52.93094
326.59        52.46742
327.04        52.03813
327.49        51.65061
327.94        51.32332
328.39        51.05466
328.85        50.81199
329.30        50.62951
329.75        50.48021
330.20         50.3491
330.66        50.20997
331.11        50.05833
331.56        49.82005
332.01        49.48079
332.46        49.05542
332.92        48.57408
333.37        48.12924
333.82         47.7484
334.27        47.43358
334.72        47.17599
335.17        46.95418
335.63        46.74794
336.08        46.58258
336.53        46.47062
336.98        46.45205
337.43        46.51831
337.88        46.64479
338.34        46.71648
338.79        46.60299
339.24        46.25977
339.69        45.72892
340.14        45.15913
340.59        44.80508
341.05         44.7233
341.50         44.8497
341.95        45.03914
342.40         45.0599
342.85        44.85581
343.30        44.51025
343.75         44.1137
344.20        43.81306
344.66        43.65081
345.11        43.55078
345.56        43.49844
346.01        43.47212
346.46        43.44492
346.91        43.43541
347.36        43.36317
347.81        43.09459
348.26        42.62736
348.72         42.0288
349.17          41.423
349.62        41.09003
350.07        41.09536
350.52        41.34611
350.97        41.69881
351.42        41.93534
351.87        41.98275
352.32        41.89148
352.77        41.69379
353.22        41.44584
353.67        41.17897
354.13        40.89339
354.58        40.57471
355.03        40.25283
355.48        39.94497
355.93        39.66493
356.38        39.44124
356.83        39.30685
357.28        39.25383
357.73        39.25392
358.18        39.25416
358.63         39.1711
359.08        38.98059
359.53        38.71136
359.98         38.3782
360.43        38.00344
360.88         37.6078
361.33        37.19143
361.78        36.80652
362.23        36.53901
362.68        36.40139
363.13        36.36396
363.58        36.35194
364.03        36.24599
364.48        36.00708
364.93        35.65547
365.38        35.23059
365.83        34.81004
366.28        34.42784
366.73        34.07372
367.18        33.72766
367.63        33.35526
368.08        32.95702
368.53        32.55816
368.98        32.20328
369.43        31.94798
369.88        31.79965
370.33        31.74035
370.78        31.70993
371.23        31.61319
371.68        31.42193
372.13        31.14746
372.58         30.8632
373.03        30.69827
373.48        30.67383
373.93        30.74291
374.38        30.79095
374.83        30.64352
375.28        30.26944
375.72        29.72188
376.17        29.14163
376.62        28.71491
377.07        28.50108
377.52        28.44424
377.97        28.46803
378.42        28.45125
378.87        28.35567
379.32        28.21983
379.77        28.07529
380.22        27.96351
380.67        27.89521
381.11        27.85357
381.56        27.80301
382.01        27.71544
382.46        27.57982
382.91         27.3971
383.36        27.20716
383.81        27.06695
384.26        26.98389
384.71        26.95181
385.15         26.8883
385.60        26.67611
386.05        26.30531
386.50        25.82386
386.95        25.37369
387.40         25.1773
387.85        25.26863
388.29        25.55525
388.74        25.88461
389.19        26.02119
389.64        25.91259
390.09        25.62206
390.54        25.25858
390.98        24.99097
391.43        24.88956
391.88        24.88826
392.33        24.90089
392.78         24.8057
393.23         24.5894
393.67        24.29028
394.12         24.0281
394.57        23.88234
395.02        23.86932
395.47        23.95377
395.91        24.07243
396.36        24.09185
396.81        23.98876
397.26          23.797
397.71        23.59862
398.15        23.49714
398.60        23.53825
399.05        23.66937
399.50        23.80233
399.95        23.81185
400.39        23.67382
400.84        23.42078
401.29        23.14935
401.74        23.03619
402.18         23.1309
402.63        23.36765
403.08        23.61373
403.53        23.65714
403.97        23.45562
404.42        23.09175
404.87        22.69988
405.32        22.50063
405.76        22.54432
406.21        22.75435
406.66         23.0168
407.11        23.15385
407.55        23.11924
408.00        22.97773
408.45         22.7867
408.90        22.58653
409.34        22.43819
409.79         22.4298
410.24        22.51284
410.68        22.52098
411.13        22.44157
411.58        22.36413
412.03        22.30321
412.47        22.25018
412.92        22.20719
413.37         22.1721
413.81        22.15225
414.26        22.17557
414.71        22.23588
415.15        22.33277
415.60        22.41175
416.05        22.41533
416.49         22.3282
416.94        22.17165
417.39         21.9931
417.83        21.86968
418.28        21.82831
418.73        21.84034
419.17         21.8707
419.62        21.85561
420.07        21.78403
420.51        21.67861
420.96        21.56895
421.41        21.47727
421.85        21.40593
422.30        21.35883
422.74        21.33184
423.19        21.35351
423.64        21.41274
424.08        21.51344
424.53        21.60013
424.98        21.61067
425.42        21.53705
425.87        21.40407
426.31        21.25234
426.76        21.15323
427.21         21.1122
427.65        21.09535
428.10        21.11521
428.54        21.16277
428.99         21.2311
429.44        21.41679
429.88        21.59243
430.33         21.4181
430.77        20.97561
431.22        20.69549
431.66        20.65246
432.11        20.73747
432.56        20.93043
433.00        21.28207
433.45        21.57958
433.89        21.58252
434.34        21.36925
434.78        20.98748
435.23        20.48815
435.67        21.29052
436.12        20.76538
436.57        20.72564
437.01        20.46101
437.46        20.38453
437.90        20.50725
438.35        20.63754
438.79        20.71939
439.24        20.76349
439.68        20.75581
440.13        20.53171
440.57        20.21898
441.02        20.34964
441.46        20.73824
441.91        20.74581
442.35        19.91251
442.80        19.65612
443.24        19.77732
443.69        19.83142
444.13        19.76935
444.58        19.73488
445.02        19.72758
445.47        19.75866
445.91        19.80412
446.36        19.78055
446.80        19.67634
447.24        19.54155
447.69        19.41016
448.13        19.29306
448.58        19.20919
449.02        19.15351
449.47        19.11572
449.91        19.06986
450.36        19.01558
450.80        18.95598
451.25        18.91194
451.69        18.89509
452.13        18.91227
452.58        18.95008
453.02        18.99072
453.47        19.01116
453.91        19.00523
454.36        18.97607
454.80        18.93127
455.24        18.88306
455.69        18.84409
456.13        18.79272
456.58        18.74384
457.02        18.70918
457.46        18.68815
457.91        18.63645
458.35        18.56239
458.79        18.52616
459.24        18.52571
459.68        18.54747
460.13        18.62221
460.57        18.62064
461.01        18.51731
461.46        18.83057
461.90        18.84288
462.34        18.60058
462.79        18.73112
463.23        18.59635
463.68        18.48808
464.12        18.39189
464.56        18.46301
465.01        18.56995
465.45        18.66921
465.89        18.71452
466.34        18.70065
466.78        18.58148
467.22        18.42028
467.67         18.4511
468.11        18.63517
468.55        18.60455
468.99        18.38964
469.44         18.3385
469.88        18.46393
470.32        18.57065
470.77        18.61594
471.21        18.62726
471.65         18.5955
472.10        18.51486
472.54        18.41737
472.98        18.39369
473.42        18.45646
473.87        18.52761
474.31        18.58235
474.75        18.69607
475.20         18.8207
475.64        18.76353
476.08        18.59175
476.52        18.57249
476.97        18.72201
477.41        18.91623
477.85        19.08512
478.29        19.17209
478.74         19.1583
479.18        19.03072
479.62        18.88183
480.06        18.85881
480.50        18.96612
480.95        19.07633
481.39        19.13973
481.83        19.17012
482.27        19.15539
482.72        19.08754
483.16        19.01769
483.60        19.01214
484.04        19.08047
484.48        19.31149
484.93         19.6919
485.37        19.73812
485.81        19.69122
486.25        20.12637
486.69        20.90533
487.14        20.41132
487.58        20.13095
488.02         20.9211
488.46        20.34148
488.90        20.43728
489.34        20.33702
489.79        20.44514
490.23        20.68803
490.67        20.83772
491.11        20.88705
491.55        20.87707
491.99        20.84231
492.43        20.84565
492.88        20.90644
493.32        20.97446
493.76        21.06003
494.20        21.20444
494.64        21.40909
495.08        21.66153
495.52        21.92551
495.96        22.14964
496.41        22.32858
496.85        22.45468
497.29        22.55546
497.73        22.76121
498.17         23.0457
498.61        23.17877
499.05        23.17677
499.49         23.2964
499.93        23.55357
500.37        23.74633
500.82        23.87451
501.26        24.13313
501.70        24.46128
502.14        24.53361
502.58        24.39013
503.02        24.37287
503.46        24.50694
503.90        24.61192
504.34        24.66284
504.78        24.70183
505.22        24.72539
505.66        24.73039
506.10        24.73857
506.54        24.78003
506.98        24.86405
507.42        24.98626
507.86        25.13003
508.30        25.26677
508.74        25.38456
509.18        25.48316
509.62        25.57722
510.06        25.69126
510.50        25.82837
510.94        25.98241
511.38        26.11363
511.82         26.1595
512.26        26.11103
512.70        25.98803
513.14        25.85936
513.58        25.82873
514.02        25.91197
514.46        26.08305
514.90        26.26907
515.34        26.28694
515.78        26.15441
516.22         25.9719
516.66        25.84026
517.10        25.58664
517.54        25.23792
517.98        25.83422
518.42        25.77932
518.86        26.04455
519.30        26.13467
519.74        26.21218
520.18         26.2614
520.62        26.23701
521.06        26.15724
521.50        26.02074
521.93        25.85742
522.37        25.72627
522.81         25.6445
523.25        25.60308
523.69         25.5913
524.13        25.58837
524.57        25.58256
525.01        25.57467
525.45        25.56065
525.89        25.53343
526.32        25.48953
526.76        25.43204
527.20        25.35122
527.64        25.23847
528.08         25.0966
528.52        24.92855
528.96        24.76764
529.40        24.66223
529.83         24.6188
530.27        24.63128
530.71         24.6469
531.15        24.58296
531.59        24.42765
532.03        24.20989
532.46        23.99406
532.90        23.89964
533.34        23.94047
533.78        24.07296
534.22        24.22894
534.66         24.3049
535.09        24.26853
535.53        24.15924
535.97        24.01051
536.41         23.8721
536.85        23.76612
537.28        23.69267
537.72        23.65561
538.16        23.58875
538.60        23.60567
539.04         23.6087
539.47        23.62663
539.91        23.71098
540.35        23.87346
540.79        23.89266
541.22        24.05756
541.66        24.16866
542.10        24.33048
542.54        24.16147
542.97        24.31872
543.41        24.37999
543.85        24.52788
544.29        24.69082
544.72         24.8352
545.16        24.98117
545.60        25.11556
546.04        25.15941
546.47         25.1847
546.91        25.46223
547.35        25.92724
547.79        26.24597
548.22        26.37776
548.66        26.44104
549.10          26.488
549.53        26.69642
549.97        27.07491
550.41        27.14354
550.84         27.3996
551.28        27.57305
551.72        27.82832
552.15        28.09122
552.59        28.35892
553.03        28.63586
553.46        28.87983
553.90         29.0582
554.34        29.16406
554.77        29.21103
555.21        29.24239
555.65        29.31414
556.08        29.43615
556.52        29.58718
556.96        29.74815
557.39        29.92604
557.83        30.10118
558.27         30.2037
558.70        30.23766
559.14        30.27272
559.57        30.30794
560.01        30.34046
560.45        30.36908
560.88        30.36215
561.32        30.38046
561.75        30.48075
562.19         30.7526
562.63        30.91163
563.06         30.9728
563.50         31.0265
563.93        31.08222
564.37         31.2176
564.80        31.29362
565.24         31.4234
565.68        31.54318
566.11        31.66485
566.55        31.80582
566.98        31.90554
567.42         31.9425
567.85        32.28516
568.29        32.10624
568.72        32.40036
569.16        32.84246
569.60         33.1506
570.03        33.28725
570.47        33.40965
570.90        33.38677
571.34        33.87115
571.77        33.78045
572.21        34.09879
572.64        34.49913
573.08        34.52386
573.51        34.57078
573.95        35.17083
574.38         35.4541
574.82        35.72522
575.25         35.8064
575.69        35.58874
576.12        35.54227
576.56        35.45981
576.99        35.46914
577.42        35.87965
577.86         35.9507
578.29        35.71889
578.73        36.40011
579.16        35.85017
579.60        35.68357
580.03        35.18579
580.47        35.13513
580.90        35.04669
581.33        34.76572
581.77        34.96113
582.20        35.42699
582.64        35.30379
583.07        34.67628
583.51        34.68024
583.94        34.02839
584.37        33.92961
584.81        33.46448
585.24        33.45689
585.68        33.62974
586.11        33.50977
586.54        33.44582
586.98        33.13633
587.41        33.08892
587.85        33.08241
588.28        33.14132
588.71        32.99874
589.15        32.74804
589.58        32.20273
590.01        32.33372
590.45        32.80046
590.88        32.69587
591.31        32.57495
591.75        32.12466
592.18        32.25891
592.61        32.26117
593.05        32.57584
593.48         32.2898
593.91        33.30624
594.35        32.74087
594.78        32.89077
595.21        33.29395
595.65        33.63538
596.08        33.42638
596.51        33.43043
596.94        33.56019
597.38        33.72774
597.81        33.97695
598.24        34.11093
598.68        34.70021
599.11        34.82474
599.54        35.97151
599.97        35.74601
600.41        35.95948
600.84        36.54956
601.27        37.13253
601.70        37.63332
602.14        37.81841
602.57        38.24806
603.00        38.90707
603.43        39.42479
603.87        39.78753
604.30        40.23299
604.73        40.79874
605.16        41.02645
605.60        41.62797
606.03        42.11133
606.46        42.60505
606.89         43.3323
607.32        43.82962
607.76        44.06352
608.19        44.47121
608.62        45.02725
609.05        45.12095
609.48        45.44751
609.92        45.77861
610.35        46.08629
610.78         46.7576
611.21        47.42813
611.64        47.27147
612.07        47.69158
612.50        48.15879
612.94         47.9562
613.37        48.62608
613.80        48.95717
614.23        49.42365
614.66        49.65915
615.09        49.99097
615.52        50.42529
615.96        50.92504
616.39        51.27375
616.82        51.47014
617.25        51.33022
617.68        51.48536
618.11        52.07837
618.54        52.43461
618.97        52.62271
619.40        52.47198
619.84        52.22768
620.27        52.04966
620.70        52.51167
621.13        53.42744
621.56        53.67475
621.99        53.37459
622.42        53.37347
622.85        53.75571
623.28        53.88717
623.71        53.80033
624.14        53.79841
624.57        53.68836
625.00        53.72244
625.43        53.86242
625.86        53.03595
626.29        53.25351
626.72        53.01497
627.15         52.9434
627.58        52.87753
628.01        52.74208
628.44        52.76889
628.87        52.53692
629.30        51.97112
629.73        51.59829
630.16        51.42105
630.59        50.92317
631.02        50.64428
631.45        50.35239
631.88        50.01492
632.31          49.605
632.74        49.15085
633.17        48.66113
633.60        48.12892
634.03        47.56526
634.46        46.97725
634.89        46.38237
635.32        45.80815
635.75        45.26862
636.18        44.76765
636.61        44.30175
637.04        43.85729
637.47        43.42517
637.89        43.00725
638.32        42.59727
638.75        42.21276
639.18        41.85804
639.61        41.53318
640.04        41.21684
640.47        40.87248
640.90        40.49848
641.33        40.11187
641.76        39.75726
642.18         39.5104
642.61        39.38063
643.04        39.34503
643.47        39.36475
643.90        39.37342
644.33        39.35215
644.76        39.32653
645.18        39.30592
645.61        39.30842
646.04        39.34562
646.47         39.4067
646.90         39.5262
647.33        39.76259
647.75        40.12238
648.18        40.58507
648.61        41.08267
649.04        41.51027
649.47        41.85394
649.89        42.12059
650.32        42.38994
650.75        42.88752
651.18        43.63276
651.61        44.31003
652.03        44.89968
652.46        45.87805
652.89        47.10387
653.32        47.45974
653.74        47.13911
654.17        47.93965
654.60         48.8773
655.03        49.99437
655.46        49.56527
655.88        51.65283
656.31        53.16773
656.74        60.93747
657.16        58.67881
657.59        54.73404
658.02        54.66099
658.45        54.50326
658.87        55.64231
659.30        56.20369
659.73         56.8792
660.15        57.87178
660.58        57.61044
661.01        57.59899
661.44         57.5188
661.86         57.8161
662.29        58.45565
662.72        59.20999
663.14        59.90012
663.57        60.03589
664.00        59.77271
664.42        59.86232
664.85        60.37682
665.27        60.82624
665.70        61.12725
666.13        61.41671
666.55        61.67798
666.98        61.86254
667.41        61.99854
667.83        62.12796
668.26        62.26027
668.69        62.40672
669.11          62.554
669.54        62.67681
669.96        62.77793
670.39         62.8583
670.82         62.9735
671.24        63.19815
671.67        63.52957
672.09        63.95127
672.52        64.35516
672.94        64.51624
673.37        64.43594
673.80          64.255
674.22        64.08524
674.65        64.01027
675.07        64.08662
675.50        64.30836
675.92        64.58721
676.35        64.71738
676.77        64.66558
677.20        64.50765
677.62        64.33971
678.05         64.2914
678.47        64.38634
678.90        64.62534
679.32         64.9632
679.75        65.05112
680.17        65.26315
680.60        65.36942
681.02        65.49664
681.45        65.43002
681.87        65.27827
682.30        65.47295
682.72        65.93328
683.15           66.08
683.57        65.92052
684.00        65.82121
684.42        65.94772
684.85        66.05616
685.27        66.18789
685.70        66.39345
686.12        66.59252
686.54        66.83396
686.97        66.78912
687.39         66.7232
687.82        66.59408
688.24        66.57203
688.66        66.65182
689.09         66.6801
689.51        66.66879
689.94        66.70522
690.36        66.80482
690.78        66.88549
691.21        66.92612
691.63        66.98076
692.06        67.24802
692.48        67.04444
692.90        67.07087
693.33        67.43213
693.75        67.17118
694.17        67.21429
694.60        67.22101
695.02        67.14599
695.44        66.97773
695.87        67.00668
696.29        67.19743
696.71        66.97782
697.14        66.57873
697.56         66.9512
697.98        67.86585
698.41        68.48737
698.83        68.36852
699.25        67.75586
699.68         67.8357
700.10        67.71365
700.52        67.61396
700.94        67.68242
701.37        67.80444
701.79        67.92241
702.21        67.97515
702.64        67.96714
703.06        67.95329
703.48        68.09416
703.90        68.37393
704.33        68.59904
704.75        68.70097
705.17        68.68449
705.59         68.5309
706.01        68.19064
706.44         67.8204
706.86        67.70824
707.28        67.89625
707.70        68.32806
708.12         68.8376
708.55        69.05753
708.97        68.97048
709.39        68.89935
709.81        68.89137
710.23        68.81709
710.66        68.71085
711.08        68.68047
711.50        68.73048
711.92        68.82365
712.34        68.95536
712.76        69.14555
713.19        69.33266
713.61        69.46616
714.03        69.50161
714.45        69.45473
714.87        69.38524
715.29        69.39182
715.71        69.49451
716.13        69.66315
716.56        69.82735
716.98        69.94729
717.40        69.97169
717.82        69.93451
718.24        69.87699
718.66        69.83714
719.08          69.827
719.50        69.93404
719.92         69.9472
720.34        69.98377
720.76        69.97672
721.19        69.94048
721.61        69.89709
722.03        69.84695
722.45        69.82047
722.87        69.80457
723.29        69.80716
723.71        69.83046
724.13        69.87901
724.55         69.9537
724.97        70.06836
725.39        70.24376
725.81        70.47205
726.23         70.7314
726.65        70.98355
727.07        71.17475
727.49        71.28871
727.91        71.33694
728.33        71.33297
728.75        71.30391
729.17        71.26811
729.59        71.22713
730.01        71.19403
730.43         71.1925
730.85        71.22891
731.27        71.28016
731.69         71.3433
732.10        71.46653
732.52        71.60766
732.94        71.65433
733.36        71.60693
733.78        71.57635
734.20         71.6043
734.62        71.58454
735.04        71.47855
735.46        71.49865
735.88        71.68796
736.30        71.03922
736.72        71.28778
737.13        71.37228
737.55        71.68054
737.97        72.11688
738.39        72.50478
738.81        72.20731
739.23        71.43168
739.65        71.44789
740.06        72.14028
740.48        72.41769
740.90        72.16614
741.32        71.77515
741.74        71.50407
742.16        71.38844
742.57        71.52303
742.99        71.73909
743.41        71.96551
743.83        72.14288
744.25        72.22374
744.67        72.22222
745.08         72.1685
745.50        72.03866
745.92        71.85475
746.34        71.80493
746.75         71.5742
747.17        71.49088
747.59        71.47379
748.01        71.53544
748.42        71.64883
748.84         71.7925
749.26        71.97012
749.68        71.98801
750.09        71.90586
750.51        72.24443
750.93        72.80887
751.35        72.63095
751.76        71.84244
752.18        71.49123
752.60          71.634
753.01        71.70921
753.43        71.68007
753.85        71.77068
754.27          71.963
754.68        72.27388
755.10        72.59409
755.52        72.59194
755.93        72.32484
756.35        72.22591
756.77        72.33858
757.18        72.41743
757.60        72.50042
758.02        72.67806
758.43        72.86308
758.85        73.11449
759.26        73.31189
759.68        72.88947
760.10        73.00854
760.51        72.71629
760.93        72.46093
761.34        72.11021
761.76        72.18616
762.18        71.99284
762.59        71.77756
763.01        71.72014
763.42        71.94379
763.84        72.56349
764.26        73.36925
764.67        73.51115
765.09        73.13737
765.50        73.12088
765.92        73.49233
766.33        73.70479
766.75        73.59015
767.16        73.21562
767.58        72.62837
768.00        72.04519
768.41        71.71471
768.83        71.88095
769.24        72.45886
769.66        73.13731
770.07        73.66571
770.49        73.67381
770.90        73.30527
771.32        73.37228
771.73         73.8494
772.15        73.93288
772.56         73.6214
772.97        73.42754
773.39        73.34218
773.80        73.14461
774.22        72.82481
774.63        72.47237
775.05        72.19929
775.46        72.19729
775.88         72.4724
776.29         72.9999
776.70        73.54973
777.12        73.76451
777.53        73.57427
777.95        73.05564
778.36        72.45621
778.77        72.20309
779.19        72.39794
779.60         72.9548
780.02        73.58682
780.43        73.98324
780.84        74.04749
781.26        73.57517
781.67        72.90894
782.09        73.35098
782.50        74.61028
782.91        74.78062
783.33        73.91721
783.74        73.69939
784.15        74.16161
784.57        74.37594
784.98        74.25866
785.39        73.91302
785.81        73.42252
786.22        73.05594
786.63        72.91197
787.04        72.87782
787.46        72.97611
787.87        73.32994
788.28        73.82157
788.70        74.15875
789.11        74.26604
789.52        74.21355
789.93        74.09338
790.35        74.07966
790.76        74.19533
791.17        74.30754
791.58        74.35248
792.00        74.23852
792.41         73.9755
792.82        73.73864
793.23         73.5121
793.65        73.17088
794.06        72.97327
794.47        73.18915
794.88        73.52396
795.29        75.35918
795.71        74.56367
796.12        74.65094
796.53        74.49111
796.94        74.09787
797.35        73.61784
797.76         73.5126
798.18        73.78699
798.59        73.94109
799.00        73.93637
799.41        74.10744
799.82        74.39766
800.23        74.53594
800.64        74.48395
801.06        74.27386
801.47        74.05379
801.88        74.00276
802.29        74.15913
802.70         74.4569
803.11        74.74214
803.52        74.76288
803.93         74.4785
804.34        73.98887
804.75        73.46529
805.17        73.23953
805.58        73.42478
805.99         73.6953
806.40        73.97847
806.81        74.71819
807.22         75.5808
807.63        75.30673
808.04        74.19505
808.45        73.89348
808.86        74.55753
809.27        75.30779
809.68        75.87772
810.09        76.19806
810.50        76.14097
810.91        75.73649
811.32        75.16345
811.73        74.65649
812.14        74.29803
812.55        74.18359
812.96         74.2317
813.37        73.93015
813.78        73.41795
814.19        73.56899
814.60        74.24662
815.01        74.54684
815.42        74.40919
815.83        74.28827
816.24        74.27558
816.65         74.3176
817.05        74.45161
817.46        74.64903
817.87        74.84117
818.28        74.87448
818.69        74.73401
819.10        74.47142
819.51        74.21168
819.92        74.21222
820.33        74.53678
820.74        74.98834
821.14        75.47145
821.55        76.04049
821.96        76.52982
822.37        76.45456
822.78        75.92092
823.19        75.59418
823.60        75.56373
824.00        75.50188
824.41        75.35446
824.82        75.29691
825.23        75.33308
825.64        75.44053
826.04        75.60061
826.45        75.72742
826.86        75.80716
827.27        75.84615
827.68        75.85851
828.08        75.89939
828.49        75.92207
828.90        75.93864
829.31        75.92127
829.72        75.82793
830.12        75.67621
830.53        75.45874
830.94        75.23462
831.35        75.05564
831.75         74.9603
832.16         74.8951
832.57        74.87384
832.97        74.89156
833.38        74.91855
833.79        74.95432
834.20        74.98534
834.60        74.98235
835.01        74.95778
835.42        74.92827
835.82        74.89102
836.23        74.79074
836.64         74.6488
837.04        74.46909
837.45        74.33936
837.86        74.44711
838.26        74.82932
838.67        75.40157
839.08        75.96443
839.48        76.13484
839.89        75.82739
840.29        75.19778
840.70        74.55324
841.11         74.2719
841.51         74.4613
841.92        74.94412
842.33        75.63055
842.73        76.36429
843.14        76.94576
843.54        77.46949
843.95        77.76186
844.35         77.6272
844.76        77.07768
845.17        76.21771
845.57        75.30603
845.98        74.76655
846.38        74.70337
846.79         74.9986
847.19         75.5875
847.60        76.18732
848.00        76.72302
848.41        77.18848
848.81        77.56735
849.22        77.75583
849.62        77.78871
850.03        77.61562
850.43        77.35857
850.84        77.15372
851.24        77.11407
851.65        77.16345
852.05        77.30085
852.46        77.38851
852.86        77.39715
853.27        77.38762
853.67        77.32882
854.07        77.30537
854.48         77.2988
854.88        77.30814
855.29        77.25893
855.69        77.18616
856.10        77.00873
856.50        76.82641
856.90        76.63258
857.31        76.45003
857.71        76.37757
858.12        76.35048
858.52        76.41214
858.92        76.51663
859.33        76.62482
859.73        76.76934
860.13        76.92243
860.54        77.04507
860.94        77.17061
861.34        77.25338
861.75        77.20407
862.15        76.99019
862.55        76.58662
862.96        76.06524
863.36        75.55337
863.76        75.22628
864.17        75.13832
864.57        75.25623
864.97        75.55658
865.38        75.97927
865.78        76.52275
866.18         77.1136
866.58        77.59512
866.99        77.70432
867.39        77.42104
867.79        76.79068
868.19        75.89962
868.60        74.87688
869.00        73.78177
869.40        72.66312
869.80        71.75877
870.21        71.43544
870.61          71.811
871.01        72.72073
871.41        73.79489
871.81        74.43151
872.22        74.48723
872.62        74.13303
873.02        73.53662
873.42        73.18204
873.82        73.02755
874.22        72.48524
874.63        71.81069
875.03        71.64333
875.43        72.07608
875.83        73.83656
876.23        74.08268
876.63        73.86777
877.03         72.6797
877.44        70.64398
877.84        127.2829
878.24        70.71077
878.64        71.90429
879.04        75.38164
879.44        72.33578
879.84        70.46537
880.24        74.14039
880.64        74.04363
881.04        71.08706
881.44        69.19467
881.84        69.02856
882.24        69.94817
882.65        71.33825
883.05        72.00213
883.45        71.55057
883.85        70.65824
884.25         69.8342
884.65        69.57493
885.05         70.0281
885.45        70.98418
885.85        72.08047
886.25        72.73996
886.65        72.78242
887.05        72.39423
887.45        71.85823
887.85        71.59095
888.25        71.71063
888.65        72.09172
889.04        72.57153
889.44        72.80223
889.84        72.71465
890.24        72.40777
890.64        72.04826
891.04        71.87556
891.44        71.91821
891.84         72.0629
892.24        72.14286
892.64        71.88905
893.04        71.27665
893.44        70.48929
893.83        69.64043
894.23        68.90712
894.63        68.33521
895.03        67.85691
895.43        67.60956
895.83        67.82191
896.23        68.49146
896.63        69.55006
897.02        70.62723
897.42        71.03454
897.82        70.63659
898.22        69.63645
898.62        68.48863
899.01        67.90209
899.41        68.06757
899.81        68.73123
900.21        69.60857
900.61        70.26729
901.00         70.5623
901.40        70.60748
901.80        70.49224
902.20        70.33856
902.59        70.21435
902.99        70.08207
903.39        69.90112
903.79        69.61583
904.18         69.2353
904.58        68.84367
904.98        68.61956
905.38        68.82913
905.77         69.4771
906.17        70.45131
906.57        71.43755
906.96          71.977
907.36        71.91363
907.76        71.36892
908.15        70.62785
908.55        70.09822
908.95        69.92924
909.34        70.06119
909.74        70.24764
910.14        70.05474
910.53         69.3927
910.93        68.46661
911.33         67.7127
911.72        67.81322
912.12        68.82529
912.52        70.42922
912.91        72.06227
913.31        72.78577
913.70        72.43774
914.10         71.2775
914.49         69.6788
914.89         68.4921
915.29        68.06114
915.68        68.15488
916.08        68.62908
916.47        69.25441
916.87         69.8822
917.26        70.56654
917.66        71.15998
918.05        71.44474
918.45        71.35579
918.84         70.9931
919.24        70.38308
919.64        69.61472
920.03        68.78726
920.42        67.91688
920.82        67.34621
921.21        67.53828
921.61         68.4817
922.00        70.07214
922.40        71.67719
922.79        72.49049
923.19        72.28896
923.58        71.08778
923.98        69.31156
924.37        68.43762
924.77        69.01443
925.16        67.41485
925.55        69.31258
925.95        69.44266
926.34        69.44829
926.74        69.29912
927.13         69.2395
927.52        69.41949
927.92        69.82255
928.31        70.44553
928.70        71.02134
929.10        71.13801
929.49        70.70771
929.89        69.86408
930.28        69.00798
930.67        68.77261
931.07        69.26383
931.46        70.32265
931.85        71.48922
932.24        72.08893
932.64        71.94203
933.03        71.15453
933.42        70.05251
933.82        69.32401
934.21        69.17321
934.60        69.43738
934.99        69.59632
935.39        69.19299
935.78         68.1842
936.17        66.17996
936.56        63.49133
936.96         64.5873
937.35        64.25835
937.74        66.43268
938.13        68.61076
938.53        70.01866
938.92        70.56342
939.31        70.53641
939.70        70.15477
940.09        69.69257
940.49        69.34579
940.88        69.06745
941.27        68.95927
941.66         69.2098
942.05        69.80666
942.44        70.66974
942.84        71.66913
943.23        72.56929
943.62        73.23298
944.01        73.73809
944.40        73.90067
944.79        73.45168
945.18        72.38816
945.57        70.74243
945.97        69.10191
946.36        68.49626
946.75        69.22105
947.14        70.91686
947.53        72.74517
947.92        73.53832
948.31        73.08707
948.70        71.74866
949.09        70.06091
949.48        68.97739
949.87        68.81042
950.26        69.25368
950.65        69.96954
951.04        70.40553
951.43        70.36935
951.82         70.0724
952.21        69.64317
952.60        69.25047
952.99        68.97728
953.38        68.75069
953.77        68.58504
954.16        68.53356
954.55         68.5931
954.94        68.75787
955.33        68.99614
955.72        69.23505
956.11        69.45094
956.50        69.66518
956.89        69.82945
957.28           69.87
957.66        69.79555
958.05        69.56301
958.44        69.32323
958.83        69.27512
959.22        69.43661
959.61        69.76514
960.00        70.04042
960.39        69.87248
960.78        69.17945
961.16        68.06693
961.55         66.9229
961.94        66.21312
962.33        66.05088
962.72        66.32738
963.11        66.73476
963.49         66.7578
963.88        66.19836
964.27        65.26905
964.66        64.35879
965.04        64.09576
965.43        64.61675
965.82        65.71902
966.21        67.00864
966.60        67.85241
966.98        68.07792
967.37        67.83466
967.76        67.44014
968.15        67.39584
968.53        67.83279
968.92        68.48193
969.31        69.10178
969.69        69.30406
970.08         68.9283
970.47        68.18216
970.86        67.18375
971.24        66.06609
971.63        64.99965
972.02        63.99687
972.40        63.20908
972.79        62.91644
973.17        63.18631
973.56        63.83106
973.95        64.77107
974.33        65.82048
974.72        66.71575
975.11        67.48032
975.49        67.81182
975.88        67.26302
976.26        65.85793
976.65        63.81599
977.04        61.68076
977.42        60.40864
977.81        60.30095
978.19        61.07639
978.58        62.45066
978.96        63.90383
979.35        65.11186
979.74        66.31136
980.12        67.22492
980.51        67.14487
980.89        66.16057
981.28        64.40311
981.66        62.76015
982.05        62.51155
982.43        63.79348
982.82         66.2233
983.20        68.98442
983.59        70.24978
983.97        69.57163
984.35        67.39743
984.74        64.68234
985.12        62.84072
985.51        62.29359
985.89        62.62559
986.28        63.40977
986.66        63.84793
987.04        63.56995
987.43        63.01856
987.81        62.25407
988.20        61.24791
988.58        59.94083
988.96        58.08422
989.35        56.07787
989.73        55.25999
990.12        56.18697
990.50        58.46977
990.88        60.80153
991.27        61.69435
991.65          61.154
992.03        59.57681
992.42        57.79055
992.80        57.40368
993.18        58.91632
993.56        61.54976
993.95        64.44141
994.33        66.84743
994.71        68.34335
995.10        69.17561
995.48        69.38719
995.86        68.93004
996.24        67.88845
996.63        66.28775
997.01        64.22993
997.39        62.31282
997.77        61.02961
998.15        60.35627
998.54         60.4262
998.92        61.34617
999.30        63.11516
999.68        66.00443
1000.06        69.22518
1000.45        69.92011
1000.83        67.09528
1001.21        62.17192
1001.59        57.50471
1001.97        54.84822
1002.35        54.02522
1002.73         54.4601
1003.12        55.56492
1003.50        56.12107
1003.88         55.5162
1004.26        54.27612
1004.64        52.88372
1005.02        51.93602
1005.40        51.62443
1005.78        51.66641
1006.16        52.16113
1006.54        53.29516
1006.92        54.74503
1007.30        56.16391
1007.69        57.16099
1008.07        57.54103
1008.45         57.2111
1008.83        56.23394
1009.21          54.125
1009.59        50.41312
1009.97        45.57796
1010.35        40.32277
1010.73        37.09924
1011.11        38.08583
1011.49        42.70619
1011.86        50.07137
1012.24        56.54472
1012.62         58.5128
1013.00        55.83532
1013.38        49.86787
1013.76        43.03308
1014.14        39.66544
1014.52        41.01558
1014.90        45.75959
1015.28        51.70124
1015.66         55.1701
1016.04        54.90413
1016.41        51.81981
1016.79        46.91171
1017.17        43.05624
1017.55        41.82534
1017.93        42.08981
1018.31        43.17503
1018.69        44.56839
1019.06        46.01149
1019.44        47.64468
1019.82        48.95261
1020.20        48.41736
1020.58        45.59441
1020.95         41.0514
1021.33        35.60244
1021.71        29.39344
1022.09        21.50503
1022.46        8.415349
1022.84       -8.997005
1023.22       -11.41974
1023.60        8.732216
1023.97        29.94559
1024.35        41.51894
1024.73         45.0964
