SpectraSmart Spectrum 2.9.0.0
--------- Device Information -----------
Spectrum Name :  反射率_0
Saving Time :  2024/04/20 00:35:20
Spectro-Module Model Name : SE2030-DUVN
Spectro-Module Serial Number : OS361AC55029948
Wavelength Start : 200
Wavelength End : 1025
Wavelength Unit : Wavelength(nm)
Spectrum Unit : Reflectance(%)
-----------Spectrum Setting ------------
Integration Time : 30ms
Average : 10
Boxcar : 0
Background removal :  enabled
linearity correction :  enabled
SC :  disabled
Intensity correction :  disabled
DWT denoise :  enabled
savitzky-golay :  disabled
FFT :  disabled
Running average :  disabled
Kalman :  disabled
High pass :  disabled
---------------BEGIN--------------------
Wavelength(nm)             Reflectance(%)
200.29               0
200.75        48.24204
201.21        48.42667
201.67        50.96716
202.13        56.11946
202.58        63.82141
203.04         74.2631
203.50         85.0657
203.96        89.74413
204.42        87.13518
204.88        80.84636
205.34        74.38132
205.80        69.35137
206.26        64.93535
206.72        59.51047
207.18        52.60195
207.64        46.85967
208.10        46.00141
208.55        50.35873
209.01        55.35003
209.47        56.96752
209.93        55.36377
210.39        52.21719
210.85         48.9086
211.31        46.89208
211.77        46.35137
212.23        46.59132
212.69        48.00047
213.14        51.06172
213.60         54.2009
214.06        57.04507
214.52        58.76661
214.98        59.13228
215.44        58.44079
215.90        56.53942
216.36        54.37595
216.81        54.24652
217.27        56.76496
217.73         61.2463
218.19        65.18381
218.65        65.17464
219.11        60.61642
219.57        51.92782
220.02        41.59839
220.48         36.4948
220.94        38.92774
221.40        47.50294
221.86        57.50856
222.32        61.68794
222.77        58.56562
223.23        50.89429
223.69        42.96702
224.15         40.7947
224.61        44.44285
225.06          50.603
225.52        56.28019
225.98         59.1392
226.44        59.20333
226.90        57.63924
227.36        55.37893
227.81        53.88039
228.27        53.92203
228.73        54.70664
229.19        55.80557
229.65        56.80083
230.10        57.48905
230.56        58.06776
231.02        58.45712
231.48        58.54978
231.93        58.32643
232.39         57.8632
232.85         57.1808
233.31         56.3736
233.77        55.50864
234.22        54.59384
234.68        53.74508
235.14        53.06431
235.60        52.61768
236.05        52.41933
236.51        52.45155
236.97        52.65188
237.43         53.0279
237.88         53.7716
238.34        54.70612
238.80         55.6829
239.26        56.38491
239.71        56.59136
240.17        56.37921
240.63        56.47586
241.08        57.09668
241.54        58.08612
242.00        58.63517
242.46        57.06053
242.91        52.40912
243.37         43.5551
243.83        30.92193
244.28        22.00957
244.74         24.9257
245.20        38.89627
245.66        53.65104
246.11        59.89592
246.57        56.84632
247.03        45.42723
247.48        28.90463
247.94        24.52429
248.40        34.47561
248.85        46.69056
249.31        55.43386
249.77        59.67896
250.22        60.69246
250.68        59.88463
251.14        57.90288
251.59         55.8836
252.05        54.83438
252.51         54.5707
252.96        54.45834
253.42        53.73301
253.88        52.38468
254.33        50.94958
254.79        51.05033
255.25        53.91904
255.70        59.02469
256.16        65.19941
256.62        70.42054
257.07        72.48559
257.53        71.59075
257.99        68.60195
258.44        64.85181
258.90        62.75328
259.35        62.00212
259.81        62.23009
260.27         62.1514
260.72        60.67417
261.18        58.20932
261.63        54.90378
262.09        52.05697
262.55        50.92987
263.00        51.45728
263.46        53.07974
263.91        54.47732
264.37        54.40527
264.83        52.84045
265.28        50.30579
265.74        47.98837
266.19        47.07482
266.65        47.72604
267.11        49.26316
267.56        50.84103
268.02        51.27555
268.47        50.35024
268.93         48.5127
269.38        46.23656
269.84        44.51297
270.30        43.63337
270.75        43.31322
271.21        43.27153
271.66         43.0789
272.12         42.5839
272.57        41.92603
273.03         41.2286
273.48        40.56409
273.94        40.02014
274.39          39.528
274.85        39.03564
275.31        38.43987
275.76        37.70882
276.22        36.89306
276.67        36.12807
277.13        35.72621
277.58        35.64368
278.04        35.80978
278.49        35.86459
278.95        35.37672
279.40        34.27762
279.86        32.83826
280.31        31.37054
280.77        30.46041
281.22        30.13696
281.68        30.23597
282.13        30.46974
282.59         30.4578
283.04        30.09646
283.50        29.55291
283.95        28.94462
284.41         28.4798
284.86        28.18608
285.32         28.0078
285.77        27.88539
286.22        27.80909
286.68        27.75535
287.13        27.71273
287.59         27.6579
288.04        27.51939
288.50        27.30489
288.95        26.99609
289.41        26.65293
289.86        26.29266
290.32        25.98001
290.77        25.71147
291.22        25.50941
291.68        25.36711
292.13        25.29139
292.59        25.30113
293.04        25.43254
293.50        25.75569
293.95         26.2548
294.40        26.88109
294.86        27.54356
295.31        28.11336
295.77        28.55523
296.22        28.90286
296.68        29.19226
297.13        29.46589
297.58        29.76222
298.04        30.08151
298.49        30.45349
298.95         30.9615
299.40        31.59389
299.85          32.319
300.31        33.06821
300.76         33.7281
301.21        34.26372
301.67        34.72594
302.12        35.09565
302.58        35.41054
303.03        35.66679
303.48        35.87174
303.94        36.10929
304.39        36.46945
304.84        36.96741
305.30          37.564
305.75        38.12561
306.20        38.46605
306.66         38.5741
307.11        38.50437
307.57        38.38426
308.02        38.33286
308.47        38.41045
308.93        38.56217
309.38        38.76897
309.83        39.05306
310.29        39.38551
310.74        39.76046
311.19        40.05353
311.65        40.06435
312.10        39.76592
312.55        39.22363
313.00        38.63177
313.46        38.29383
313.91        38.26192
314.36        38.46542
314.82          38.736
315.27        38.81621
315.72        38.62617
316.18        38.26413
316.63        37.84465
317.08        37.54995
317.53        37.42408
317.99        37.39225
318.44        37.38958
318.89        37.30626
319.35        37.10809
319.80        36.83751
320.25        36.52615
320.70        36.22125
321.16         35.9357
321.61        35.65466
322.06        35.37094
322.51        35.08049
322.97        34.77643
323.42        34.47768
323.87        34.17338
324.32        33.84691
324.78        33.49442
325.23        33.13137
325.68        32.77766
326.13        32.47405
326.59         32.2304
327.04        32.05572
327.49        31.92171
327.94        31.78568
328.39        31.63142
328.85        31.44725
329.30        31.28644
329.75        31.19366
330.20        31.17432
330.66        31.18823
331.11        31.19587
331.56        31.07964
332.01        30.81318
332.46        30.42748
332.92        29.98841
333.37         29.6201
333.82        29.36824
334.27        29.22033
334.72        29.13327
335.17        29.02917
335.63        28.87372
336.08        28.69222
336.53        28.53983
336.98        28.51734
337.43        28.63614
337.88        28.86418
338.34        29.04613
338.79        28.97841
339.24        28.60712
339.69        27.99526
340.14         27.3665
340.59        27.09635
341.05        27.25609
341.50        27.73377
341.95        28.27809
342.40        28.49816
342.85        28.30578
343.30        27.83751
343.75        27.26882
344.20         26.8879
344.66        26.77582
345.11        26.80471
345.56        26.91855
346.01        27.02829
346.46        27.08295
346.91         27.1357
347.36        27.09394
347.81        26.79958
348.26         26.2623
348.72        25.56038
349.17        24.88326
349.62         24.6283
350.07        24.87539
350.52        25.48174
350.97        26.21676
351.42        26.73315
351.87        26.92509
352.32        26.88206
352.77        26.66762
353.22        26.39094
353.67        26.10818
354.13        25.80191
354.58        25.48147
355.03        25.20774
355.48         25.0004
355.93         24.8704
356.38         24.8098
356.83        24.78752
357.28        24.78303
357.73        24.78695
358.18        24.78153
358.63        24.74311
359.08        24.66234
359.53        24.54501
359.98        24.38118
360.43        24.15866
360.88        23.88741
361.33        23.57843
361.78        23.28721
362.23        23.10414
362.68        23.04107
363.13        23.06019
363.58        23.09379
364.03        23.03494
364.48        22.85249
364.93        22.57929
365.38        22.23804
365.83        21.87315
366.28        21.51893
366.73        21.17448
367.18        20.87837
367.63        20.68801
368.08        20.60568
368.53        20.60981
368.98        20.65219
369.43        20.65171
369.88        20.58506
370.33        20.47649
370.78         20.3289
371.23        20.15481
371.68         19.9686
372.13        19.75916
372.58        19.57993
373.03        19.52328
373.48        19.59497
373.93        19.75978
374.38        19.91611
374.83        19.90575
375.28        19.69668
375.72        19.33112
376.17         18.9153
376.62        18.58224
377.07        18.38486
377.52        18.28968
377.97        18.26823
378.42        18.27492
378.87        18.28365
379.32        18.29868
379.77        18.31986
380.22        18.34185
380.67        18.35989
381.11        18.37708
381.56        18.34509
382.01        18.20956
382.46        17.96802
382.91        17.63412
383.36        17.31311
383.81        17.16174
384.26         17.2036
384.71        17.40224
385.15        17.60405
385.60         17.5722
386.05        17.26931
386.50        16.77524
386.95        16.28285
387.40        16.09697
387.85        16.26929
388.29        16.67832
388.74        17.12504
389.19        17.33053
389.64         17.2338
390.09        16.92047
390.54          16.522
390.98         16.2418
391.43        16.15587
391.88        16.18963
392.33        16.24817
392.78        16.19754
393.23        16.02108
393.67        15.76874
394.12        15.54991
394.57        15.45523
395.02        15.50152
395.47        15.64877
395.91        15.83072
396.36        15.91582
396.81        15.87184
397.26        15.73192
397.71        15.56575
398.15        15.46479
398.60         15.4696
399.05        15.54127
399.50        15.61635
399.95        15.60446
400.39        15.48799
400.84         15.2935
401.29        15.09839
401.74        15.04221
402.18        15.16136
402.63        15.39901
403.08        15.64029
403.53        15.70369
403.97        15.55302
404.42        15.25758
404.87        14.93178
405.32        14.76445
405.76        14.80138
406.21        14.97856
406.66        15.20467
407.11        15.33632
407.55        15.33626
408.00        15.25734
408.45        15.14393
408.90        15.03209
409.34        14.96268
409.79        14.98431
410.24        15.06687
410.68        15.10491
411.13        15.09038
411.58        15.08857
412.03        15.08884
412.47        15.05005
412.92        14.96994
413.37        14.85506
413.81        14.75934
414.26        14.77926
414.71        14.92118
415.15        15.16401
415.60        15.39641
416.05        15.45945
416.49        15.31338
416.94        15.01283
417.39        14.67018
417.83        14.46781
418.28        14.45954
418.73         14.5845
419.17         14.7564
419.62        14.82849
420.07        14.76914
420.51        14.62868
420.96        14.47007
421.41        14.37021
421.85        14.34665
422.30        14.37922
422.74        14.43754
423.19        14.50663
423.64        14.56871
424.08        14.63691
424.53        14.68933
424.98        14.71207
425.42        14.70499
425.87        14.67398
426.31        14.61849
426.76        14.54945
427.21        14.46362
427.65        14.35185
428.10        14.26033
428.54        14.24236
428.99        14.30898
429.44        14.50675
429.88        14.71643
430.33        14.65373
430.77        14.36299
431.22        14.15427
431.66        14.10097
432.11        14.15578
432.56        14.31178
433.00        14.61907
433.45         14.9032
433.89        14.89636
434.34        14.67558
434.78         14.4068
435.23         14.1043
435.67        14.74105
436.12        14.26302
436.57        14.19677
437.01        13.99007
437.46        13.90829
437.90         13.9604
438.35        14.02622
438.79        14.07247
439.24        14.10739
439.68        14.12024
440.13        13.99515
440.57        13.80791
441.02        13.90496
441.46        14.15553
441.91        14.12724
442.35         13.5195
442.80        13.31723
443.24        13.38383
443.69        13.41465
444.13        13.36551
444.58        13.31989
445.02        13.27423
445.47        13.24382
445.91        13.22221
446.36        13.16919
446.80        13.08101
447.24        12.98571
447.69        12.90193
448.13        12.82767
448.58        12.77385
449.02        12.74085
449.47        12.72034
449.91        12.69187
450.36         12.6564
450.80        12.61524
451.25        12.59136
451.69        12.60605
452.13        12.66442
452.58        12.74802
453.02        12.83344
453.47        12.88353
453.91        12.89074
454.36        12.86495
454.80        12.81548
455.24        12.76014
455.69        12.71373
456.13        12.65883
456.58        12.61633
457.02        12.60915
457.46        12.63732
457.91        12.66573
458.35        12.68098
458.79        12.69038
459.24        12.68848
459.68        12.67416
460.13        12.69353
460.57        12.69425
461.01        12.66786
461.46        12.95436
461.90        13.04054
462.34        12.91678
462.79         13.0105
463.23        12.88889
463.68        12.77552
464.12         12.6918
464.56        12.75554
465.01        12.86424
465.45        12.97089
465.89        13.01822
466.34        12.99942
466.78        12.89295
467.22        12.75914
467.67        12.78604
468.11        12.95268
468.55         12.9938
468.99        12.91282
469.44        12.92761
469.88        13.04102
470.32        13.12281
470.77         13.1504
471.21         13.1579
471.65        13.14363
472.10        13.10155
472.54        13.05176
472.98        13.05878
473.42         13.1304
473.87        13.20945
474.31        13.27903
474.75        13.39144
475.20        13.51054
475.64        13.49617
476.08         13.3907
476.52        13.37913
476.97        13.47363
477.41        13.59108
477.85        13.68728
478.29        13.73204
478.74        13.71597
479.18        13.62445
479.62        13.52824
480.06        13.54067
480.50        13.66143
480.95        13.79394
481.39        13.88253
481.83        13.90697
482.27        13.85805
482.72        13.74537
483.16        13.62788
483.60        13.59883
484.04        13.66961
484.48         13.8796
484.93        14.23638
485.37        14.37642
485.81        14.35588
486.25        14.87675
486.69        15.24945
487.14        14.63737
487.58        14.50072
488.02        15.41152
488.46        14.99031
488.90        15.09213
489.34        14.87462
489.79        14.97229
490.23        15.32369
490.67        15.56901
491.11        15.66111
491.55        15.60359
491.99        15.45151
492.43        15.39163
492.88        15.45733
493.32        15.50821
493.76        15.55833
494.20        15.70377
494.64         15.9443
495.08        16.24211
495.52        16.54123
495.96        16.76977
496.41        16.90964
496.85        16.94973
497.29        16.94045
497.73        17.04525
498.17        17.25928
498.61        17.38625
499.05        17.42646
499.49        17.55684
499.93         17.7814
500.37        17.95497
500.82        18.07372
501.26        18.28023
501.70        18.52863
502.14        18.57146
502.58        18.44997
503.02        18.44259
503.46        18.57056
503.90        18.69004
504.34        18.76834
504.78         18.8142
505.22        18.81983
505.66        18.79334
506.10        18.75834
506.54        18.74891
506.98        18.77909
507.42         18.8426
507.86        18.93785
508.30        19.06077
508.74        19.20154
509.18        19.35237
509.62        19.50134
510.06        19.62954
510.50         19.7313
510.94        19.81481
511.38        19.86623
511.82        19.86657
512.26        19.81985
512.70         19.7318
513.14        19.65664
513.58          19.676
514.02        19.79557
514.46        19.99252
514.90        20.19315
515.34        20.21985
515.78        20.07451
516.22        19.87799
516.66        19.72882
517.10        19.43559
517.54        19.02712
517.98        19.63347
518.42        19.53667
518.86        19.80431
519.30        19.90335
519.74        20.00815
520.18        20.08692
520.62        20.06639
521.06        19.96243
521.50        19.78041
521.93        19.57469
522.37        19.44463
522.81        19.41407
523.25        19.45879
523.69        19.53975
524.13        19.59286
524.57        19.59592
525.01        19.56377
525.45        19.51195
525.89        19.46484
526.32        19.42918
526.76        19.39838
527.20        19.35393
527.64        19.27332
528.08        19.15448
528.52        19.00547
528.96        18.86376
529.40        18.78269
529.83        18.77069
530.27        18.81831
530.71        18.86837
531.15        18.83107
531.59        18.69323
532.03        18.48519
532.46        18.27979
532.90        18.20797
533.34        18.28441
533.78        18.45888
534.22         18.6518
534.66        18.74178
535.09        18.69514
535.53        18.56006
535.97        18.37746
536.41        18.20949
536.85        18.08398
537.28        17.99298
537.72        17.95025
538.16        17.92152
538.60        17.99163
539.04        18.08265
539.47        18.18728
539.91         18.2979
540.35        18.41675
540.79        18.38773
541.22        18.46724
541.66        18.55573
542.10        18.74484
542.54        18.71858
542.97         18.9577
543.41          19.093
543.85        19.25241
544.29        19.39486
544.72        19.50091
545.16        19.59658
545.60        19.67932
546.04        19.68441
546.47        19.68048
546.91        19.90085
547.35        20.29712
547.79        20.60133
548.22        20.76451
548.66        20.85153
549.10        20.89826
549.53        21.05395
549.97        21.33237
550.41        21.36602
550.84        21.55232
551.28        21.67569
551.72        21.87308
552.15        22.09947
552.59        22.35159
553.03        22.62819
553.46        22.87896
553.90        23.04996
554.34        23.13118
554.77        23.14086
555.21        23.12876
555.65        23.16355
556.08        23.25993
556.52        23.39498
556.96        23.54356
557.39        23.69613
557.83        23.83285
558.27        23.90325
558.70        23.91868
559.14        23.94378
559.57        23.98005
560.01        24.02432
560.45        24.06601
560.88        24.05936
561.32        24.05486
561.75        24.11611
562.19        24.32205
562.63         24.4487
563.06        24.50921
563.50        24.57545
563.93        24.64868
564.37        24.77534
564.80        24.84193
565.24        24.94986
565.68         25.0503
566.11        25.13127
566.55        25.21014
566.98        25.28661
567.42        25.36542
567.85        25.59525
568.29        25.58323
568.72        25.89739
569.16           26.34
569.60        26.63872
570.03        26.75525
570.47        26.86428
570.90        26.85777
571.34        27.17788
571.77        26.97268
572.21         27.2751
572.64        27.65963
573.08        27.70739
573.51        27.82608
573.95        28.54758
574.38        28.45658
574.82        28.68091
575.25        28.75199
575.69        28.60924
576.12        28.58973
576.56        28.56099
576.99         28.5834
577.42        29.03941
577.86        28.75171
578.29        28.68342
578.73        29.18316
579.16        28.82837
579.60        28.58303
580.03        28.69419
580.47        28.64369
580.90        28.26111
581.33        28.15397
581.77         28.2895
582.20        28.55857
582.64        27.98604
583.07        27.67459
583.51        27.61677
583.94        27.33362
584.37         27.4506
584.81        26.97708
585.24        26.88225
585.68        26.92077
586.11        26.76949
586.54        26.71416
586.98        26.59235
587.41        26.67562
587.85        26.64363
588.28        26.52413
588.71        26.33999
589.15        26.16503
589.58        25.96848
590.01        25.89306
590.45         26.5265
590.88        26.23723
591.31        26.17342
591.75        25.90433
592.18        26.06799
592.61        26.02613
593.05        26.49665
593.48        26.38819
593.91        26.72152
594.35        26.52369
594.78        26.59923
595.21        26.98859
595.65        27.25943
596.08        27.13508
596.51        27.12627
596.94        27.19708
597.38        27.35919
597.81        27.65434
598.24        27.73716
598.68        28.36948
599.11        28.51049
599.54        29.52047
599.97        29.52188
600.41        29.57767
600.84        30.32965
601.27        30.78697
601.70        31.06263
602.14        31.33239
602.57        31.72452
603.00        32.31971
603.43        33.03252
603.87        33.05233
604.30        33.50554
604.73        34.14317
605.16        34.41936
605.60        34.78346
606.03        35.27419
606.46        35.89099
606.89        36.70791
607.32        37.18234
607.76        37.40974
608.19        37.81504
608.62        38.36444
609.05        38.39471
609.48        38.75141
609.92        39.22666
610.35        39.17839
610.78        40.16414
611.21        40.70747
611.64        40.52809
612.07        41.29226
612.50        41.48332
612.94        41.58485
613.37        42.09496
613.80        42.43379
614.23        42.62744
614.66        43.12238
615.09        43.40974
615.52        43.84498
615.96        44.23129
616.39        44.51002
616.82        44.70461
617.25        44.86752
617.68        45.05128
618.11        45.45128
618.54        45.95764
618.97        46.09111
619.40        45.81453
619.84        45.94449
620.27        45.61533
620.70          46.046
621.13        46.80616
621.56        47.08543
621.99        46.96947
622.42         47.1167
622.85        47.56939
623.28        47.72678
623.71        47.57128
624.14         47.7833
624.57        47.56651
625.00        47.39634
625.43        47.46573
625.86        46.77376
626.29        46.76624
626.72        46.51432
627.15         46.4318
627.58         46.4264
628.01        46.41476
628.44        46.35641
628.87         46.1149
629.30        45.71626
629.73        45.16373
630.16        45.01765
630.59        44.55865
631.02        44.26629
631.45        43.90806
631.88        43.54163
632.31         43.1517
632.74        42.71743
633.17        42.24189
633.60        41.72601
634.03        41.17775
634.46        40.60091
634.89        40.01702
635.32        39.46108
635.75        38.94701
636.18        38.47453
636.61        38.03346
637.04        37.59978
637.47        37.16293
637.89        36.72984
638.32        36.30117
638.75        35.90047
639.18        35.53706
639.61        35.21047
640.04         34.9049
640.47        34.59262
640.90        34.26997
641.33        33.94672
641.76        33.65588
642.18        33.45369
642.61        33.34456
643.04        33.31164
643.47        33.31406
643.90        33.28463
644.33        33.20847
644.76        33.11029
645.18        33.02392
645.61        33.00773
646.04        33.08101
646.47        33.22596
646.90        33.43533
647.33        33.70598
647.75         34.0321
648.18        34.38554
648.61        34.75258
649.04        35.17923
649.47        35.63745
649.89        35.96183
650.32        36.21032
650.75        36.69559
651.18        37.41604
651.61        38.01064
652.03        38.48495
652.46        39.29362
652.89        40.36069
653.32        40.88167
653.74        40.91789
654.17        41.79661
654.60        42.24869
655.03        43.42833
655.46        43.21692
655.88         45.0841
656.31        45.99788
656.74        52.41128
657.16        50.06235
657.59          46.452
658.02        47.13308
658.45        47.62605
658.87        48.66937
659.30        49.52943
659.73        50.01783
660.15        50.56824
660.58        51.02386
661.01         51.0233
661.44        50.76356
661.86        51.04302
662.29        51.84111
662.72        52.60955
663.14        53.18301
663.57         53.3176
664.00        53.15374
664.42        53.26145
664.85        53.70868
665.27        54.11077
665.70        54.40771
666.13        54.67756
666.55        54.99463
666.98        55.24554
667.41        55.46639
667.83        55.66562
668.26        55.84353
668.69        56.01477
669.11        56.17375
669.54        56.30748
669.96        56.41845
670.39          56.513
670.82        56.64042
671.24        56.82315
671.67        57.07124
672.09        57.48853
672.52        57.94818
672.94        58.04123
673.37        57.81404
673.80        57.66946
674.22        57.69855
674.65        57.74011
675.07        57.82947
675.50        58.09805
675.92         58.4603
676.35        58.64369
676.77        58.60776
677.20        58.49752
677.62        58.29649
678.05        58.25347
678.47        58.37323
678.90         58.6111
679.32        58.89403
679.75        59.11848
680.17        59.25109
680.60        59.31622
681.02        59.36591
681.45        59.46987
681.87        59.65643
682.30        59.88249
682.72         60.0897
683.15        60.21346
683.57        60.25373
684.00        60.10045
684.42        59.95168
684.85        60.13008
685.27        60.21869
685.70        60.53439
686.12        60.82046
686.54        61.07747
686.97        61.29258
687.39        60.95148
687.82         60.9955
688.24        61.03973
688.66        61.29628
689.09        61.33709
689.51        61.19079
689.94        61.19114
690.36        61.35637
690.78        61.47363
691.21        61.52347
691.63        61.67208
692.06        61.92303
692.48        61.97208
692.90        61.97121
693.33        62.40914
693.75        62.26182
694.17        62.41179
694.60        62.50903
695.02        62.41822
695.44        62.17549
695.87        62.15386
696.29        62.32885
696.71        62.25729
697.14        62.08792
697.56         62.2624
697.98        62.82959
698.41         63.5675
698.83        63.41862
699.25        63.27028
699.68        62.95362
700.10        62.91853
700.52        63.03798
700.94        63.23336
701.37        63.37943
701.79        63.52056
702.21        63.60732
702.64        63.62054
703.06        63.60518
703.48        63.65705
703.90        63.79861
704.33        63.97929
704.75        64.14575
705.17        64.22646
705.59        64.18248
706.01        63.95675
706.44         63.6841
706.86         63.6666
707.28          63.938
707.70        64.36145
708.12         64.8031
708.55        65.07564
708.97        65.12446
709.39        65.01905
709.81        64.82025
710.23        64.63908
710.66         64.5285
711.08         64.4623
711.50        64.45172
711.92        64.52852
712.34        64.69081
712.76        64.94357
713.19        65.20788
713.61        65.39674
714.03        65.45715
714.45        65.41295
714.87        65.34796
715.29         65.3987
715.71        65.59088
716.13        65.88221
716.56        66.17184
716.98        66.35658
717.40        66.37659
717.82        66.29388
718.24        66.16567
718.66        66.06618
719.08        66.02599
719.50        66.02782
719.92        66.05265
720.34        66.06248
720.76        66.04914
721.19        66.03411
721.61        66.03234
722.03         66.0277
722.45        66.04332
722.87        66.06306
723.29        66.11716
723.71        66.24842
724.13        66.46037
724.55        66.73544
724.97        67.02565
725.39        67.25242
725.81           67.39
726.23        67.45251
726.65        67.47588
727.07        67.52389
727.49        67.61392
727.91        67.72646
728.33        67.83317
728.75        67.88603
729.17        67.87518
729.59        67.82605
730.01        67.76498
730.43        67.72955
730.85         67.7338
731.27        67.76204
731.69        67.81232
732.10        67.89941
732.52        68.00414
732.94        68.10365
733.36        68.16768
733.78        68.21262
734.20        68.26492
734.62        68.21135
735.04        68.02237
735.46        68.27132
735.88        68.25753
736.30        67.93666
736.72        68.13269
737.13        68.32982
737.55        68.70324
737.97         69.0542
738.39        69.27347
738.81        69.09336
739.23        68.65176
739.65        68.62342
740.06        68.94798
740.48        69.11262
740.90        69.00473
741.32        68.68899
741.74        68.30333
742.16        68.21055
742.57         68.4742
742.99        68.83156
743.41        69.17788
743.83         69.4352
744.25        69.54974
744.67        69.52831
745.08        69.41743
745.50        69.27118
745.92        69.13283
746.34        68.98383
746.75        68.84471
747.17        68.74191
747.59         68.6925
748.01        68.74234
748.42        68.87005
748.84        68.98621
749.26        69.12325
749.68        69.24358
750.09        69.38231
750.51        69.86163
750.93        70.47968
751.35        70.42278
751.76        69.80412
752.18        69.52045
752.60        69.62228
753.01        69.66824
753.43        69.60511
753.85        69.51874
754.27         69.4598
754.68        69.64087
755.10        69.98563
755.52        70.15269
755.93         70.1124
756.35        70.04794
756.77        70.01766
757.18        70.04959
757.60        70.18152
758.02        70.32593
758.43        70.41204
758.85        70.51611
759.26        70.72851
759.68        70.27724
760.10        70.48223
760.51        70.15704
760.93        70.01234
761.34        68.98327
761.76        70.17985
762.18        70.21202
762.59        70.00403
763.01         69.8357
763.42        69.87896
763.84        70.24973
764.26        70.84126
764.67        70.96559
765.09        70.75025
765.50        70.97885
765.92        71.72266
766.33        71.83349
766.75        71.31525
767.16         70.9195
767.58         70.7205
768.00         70.4466
768.41         70.2347
768.83        70.40242
769.24        70.87016
769.66        71.36868
770.07        71.72376
770.49        71.65012
770.90        71.28674
771.32        71.35687
771.73        71.80303
772.15        71.83895
772.56        71.46085
772.97        71.17099
773.39        71.01066
773.80        70.84017
774.22        70.66187
774.63        70.53954
775.05        70.50569
775.46        70.62012
775.88        70.85979
776.29        71.24089
776.70        71.59701
777.12         71.6839
777.53        71.46955
777.95        70.99369
778.36        70.47932
778.77        70.31538
779.19        70.58958
779.60        71.23231
780.02        71.93497
780.43        72.37058
780.84         72.4434
781.26        71.87545
781.67        71.06226
782.09        71.57682
782.50        73.06128
782.91        73.19271
783.33         72.0635
783.74        71.77351
784.15        72.37959
784.57        72.69999
784.98         72.6067
785.39        72.35624
785.81        71.99457
786.22        71.67776
786.63        71.48329
787.04        71.35139
787.46        71.30821
787.87        71.44088
788.28        71.72033
788.70         71.9894
789.11        72.20019
789.52         72.4431
789.93        72.67668
790.35        72.72393
790.76        72.60857
791.17        72.54437
791.58        72.56416
792.00        72.39026
792.41        72.03294
792.82        72.04041
793.23         72.2831
793.65        71.63242
794.06        70.55286
794.47        70.97918
794.88        72.53274
795.29         73.6748
795.71        73.42283
796.12        72.69557
796.53         73.1853
796.94        72.82225
797.35        72.30206
797.76        72.13565
798.18        72.33652
798.59        72.52716
799.00        72.62656
799.41        72.80383
799.82        73.00848
800.23        73.13107
800.64        73.14281
801.06         72.9963
801.47        72.79771
801.88        72.69012
802.29        72.68714
802.70        72.77753
803.11        72.91544
803.52        72.84779
803.93        72.52796
804.34        72.75148
804.75        72.29536
805.17         72.2566
805.58        72.30472
805.99        72.22536
806.40        72.13432
806.81        72.67923
807.22        73.56244
807.63        73.99575
808.04        73.22167
808.45        72.90197
808.86        73.02123
809.27        73.59449
809.68        74.41162
810.09        74.77637
810.50        74.56516
810.91        74.21226
811.32         73.8935
811.73        73.58368
812.14        73.32785
812.55        73.36903
812.96        73.56483
813.37           73.11
813.78        72.22469
814.19         72.2217
814.60        72.96912
815.01        73.23006
815.42        72.94402
815.83        72.77831
816.24        72.83601
816.65        72.95712
817.05        73.16154
817.46        73.44579
817.87        73.70876
818.28        73.75138
818.69        73.55355
819.10        73.16853
819.51        72.75665
819.92        72.67174
820.33        73.00878
820.74         73.4861
821.14        73.97967
821.55        74.65549
821.96        75.25791
822.37        74.95542
822.78        73.96563
823.19        73.46532
823.60        73.60249
824.00        73.79337
824.41        73.86647
824.82        73.90106
825.23        73.84906
825.64         73.7158
826.04         73.5957
826.45        73.58008
826.86        73.70274
827.27        73.93014
827.68        74.17445
828.08        74.31525
828.49        74.25969
828.90        74.06631
829.31        73.83136
829.72        73.72449
830.12        73.81062
830.53          74.006
830.94         74.2085
831.35        74.23038
831.75        74.05982
832.16         73.7221
832.57        73.36613
832.97        73.21983
833.38        73.32277
833.79         73.5914
834.20         73.9174
834.60        74.12749
835.01        74.18557
835.42        74.15757
835.82        74.05683
836.23        73.85058
836.64        73.58205
837.04        73.24832
837.45        72.96993
837.86        72.99155
838.26        73.36449
838.67        73.99844
839.08        74.67001
839.48        74.94454
839.89        74.70985
840.29        74.12263
840.70        73.49197
841.11        73.20361
841.51        73.37061
841.92        73.82076
842.33        74.45336
842.73        75.09664
843.14        75.56151
843.54        75.95298
843.95        76.15878
844.35        76.07781
844.76        75.72544
845.17         75.1573
845.57        74.53885
845.98        74.15716
846.38        74.08405
846.79        74.24433
847.19        74.61156
847.60        74.98295
848.00        75.32999
848.41        75.63219
848.81        75.90134
849.22        76.07677
849.62         76.1876
850.03        76.16965
850.43        76.09064
850.84        75.98611
851.24        75.93984
851.65        75.90577
852.05        75.89316
852.46        75.84206
852.86        75.76324
853.27        75.56148
853.67        75.28832
854.07        75.48302
854.48        75.97853
854.88        75.98499
855.29        75.48862
855.69        75.33559
856.10        75.49777
856.50        75.56979
856.90        75.47625
857.31        75.37105
857.71        75.32709
858.12        75.25456
858.52        75.17209
858.92         74.9896
859.33        74.68505
859.73        74.32461
860.13        74.01855
860.54         73.9768
860.94        74.30468
861.34         74.8913
861.75        75.49348
862.15        75.81525
862.55        75.73193
862.96        75.36158
863.36        74.85957
863.76        74.46619
864.17         74.2763
864.57        74.24276
864.97        74.36947
865.38        74.64657
865.78        75.08861
866.18        75.62123
866.58        76.10769
866.99        76.30081
867.39        76.16653
867.79        75.73955
868.19        75.02083
868.60         74.0074
869.00        72.73276
869.40        71.27837
869.80        69.98849
870.21        69.42078
870.61        69.75391
871.01        70.78058
871.41        72.04798
871.81        72.81549
872.22        72.90312
872.62        72.52378
873.02        71.89872
873.42        71.60503
873.82        71.60697
874.22        71.25554
874.63        70.77292
875.03        70.73004
875.43        71.18371
875.83        72.90977
876.23        73.02226
876.63         72.6773
877.03        71.36487
877.44        69.21605
877.84        128.6121
878.24        69.21468
878.64        70.33255
879.04        73.85006
879.44        70.50362
879.84        68.60245
880.24        72.76886
880.64        73.03944
881.04        70.36272
881.44        68.63418
881.84        68.44304
882.24         69.1714
882.65        70.33514
883.05        70.94852
883.45        70.67403
883.85          70.128
884.25        69.66788
884.65        69.56566
885.05        69.92044
885.45        70.59254
885.85        71.33501
886.25        71.76505
886.65        71.76587
887.05        71.46938
887.45        71.06326
887.85        70.82221
888.25        70.82716
888.65        70.99122
889.04        71.24373
889.44        71.39008
889.84        71.39894
890.24        71.32381
890.64        71.19875
891.04        71.07115
891.44        70.93571
891.84        70.73191
892.24        70.45849
892.64        70.12663
893.04        69.76646
893.44        69.45816
893.83         69.1069
894.23        68.59322
894.63         67.9137
895.03        67.10031
895.43        66.45921
895.83        66.49792
896.23        67.28701
896.63           68.66
897.02        70.11791
897.42        70.75371
897.82        70.35846
898.22         69.2201
898.62        67.84836
899.01        67.02944
899.41        67.00113
899.81        67.49261
900.21        68.26633
900.61         68.9667
901.00        69.45343
901.40        69.81764
901.80        70.07695
902.20         70.2278
902.59        70.28735
902.99        70.22604
903.39        70.02962
903.79        69.70156
904.18        69.27126
904.58        68.81251
904.98        68.48026
905.38        68.50233
905.77        68.89864
906.17        69.60211
906.57        70.37135
906.96        70.85023
907.36        70.90258
907.76        70.60526
908.15        70.18564
908.55        69.96931
908.95        70.05594
909.34        70.37333
909.74        70.65402
910.14        70.43685
910.53        69.63657
910.93         68.4969
911.33        67.44643
911.72        67.15551
912.12        67.72417
912.52        68.86733
912.91        70.17458
913.31        70.92685
913.70        70.98764
914.10        70.55123
914.49        69.78154
914.89        69.10294
915.29        68.70253
915.68        68.46933
916.08        68.44161
916.47        68.65986
916.87        69.05515
917.26        69.60217
917.66        70.14167
918.05        70.44054
918.45        70.41528
918.84        70.18921
919.24        69.73834
919.64        69.05019
920.03        68.20066
920.42        67.22236
920.82        66.51233
921.21        66.62935
921.61         67.5851
922.00        69.24821
922.40        70.94822
922.79        71.81474
923.19        71.60927
923.58        70.36555
923.98         68.5377
924.37        67.67048
924.77         68.3276
925.16        66.78679
925.55        68.81841
925.95        69.02763
926.34        69.07892
926.74        68.95843
927.13        68.91368
927.52        69.09612
927.92        69.49698
928.31        70.10965
928.70        70.69529
929.10        70.89534
929.49        70.61818
929.89        69.96249
930.28         69.2716
930.67        69.08749
931.07        69.49781
931.46        70.39029
931.85         71.3223
932.24        71.63972
932.64        71.18777
933.03        70.06441
933.42        68.69909
933.82         67.9732
934.21        68.11371
934.60        68.86774
934.99        69.52114
935.39        69.37743
935.78          68.344
936.17        66.07996
936.56        62.96754
936.96        63.75094
937.35        63.22564
937.74        65.38873
938.13        67.60994
938.53        68.99561
938.92        69.43136
939.31        69.24427
939.70        68.75651
940.09        68.41949
940.49        68.44737
940.88        68.69475
941.27        69.07178
941.66         69.5052
942.05         69.9379
942.44        70.37827
942.84        70.83627
943.23        71.32204
943.62        71.79111
944.01        72.25826
944.40        72.49525
944.79        72.15424
945.18        71.19529
945.57        69.68606
945.97        68.18532
946.36        67.65126
946.75        68.36428
947.14        69.97516
947.53        71.69825
947.92         72.4501
948.31        72.04337
948.70        70.82058
949.09        69.30072
949.48        68.39763
949.87        68.40489
950.26        69.02115
950.65        69.91645
951.04         70.5518
951.43        70.72506
951.82        70.62055
952.21         70.3242
952.60        69.95156
952.99        69.57509
953.38        69.14211
953.77        68.70969
954.16        68.39377
954.55         68.2219
954.94        68.19951
955.33        68.28117
955.72        68.35667
956.11        68.40883
956.50         68.4853
956.89        68.60789
957.28        68.82206
957.66        69.12218
958.05         69.3478
958.44        69.54269
958.83        69.79025
959.22        70.07132
959.61        70.38641
960.00        70.44494
960.39        69.74772
960.78        68.26805
961.16        66.21561
961.55        64.22928
961.94        63.13497
962.33        63.11285
962.72        63.94202
963.11        65.14902
963.49        65.90056
963.88        65.84855
964.27         65.2662
964.66        64.48573
965.04        64.06953
965.43        64.18498
965.82        64.64579
966.21        65.26541
966.60         65.7644
966.98        66.06116
967.37        66.23293
967.76        66.41374
968.15        66.78178
968.53        67.36871
968.92        67.98436
969.31        68.49092
969.69        68.67977
970.08        68.43567
970.47        67.88716
970.86        67.06535
971.24        65.97796
971.63        64.76717
972.02        63.50673
972.40        62.41893
972.79        61.89473
973.17         62.0449
973.56        62.65051
973.95        63.62256
974.33         64.7552
974.72        65.76079
975.11        66.66599
975.49        67.11712
975.88        66.58384
976.26        65.08193
976.65        62.85722
977.04        60.51258
977.42        59.11469
977.81        58.99835
978.19        59.83887
978.58        61.32727
978.96        62.90155
979.35        64.19707
979.74        65.44084
980.12        66.29479
980.51        65.95522
980.89        64.53249
981.28        62.25457
981.66        60.08292
982.05        59.36322
982.43        60.25936
982.82        62.35886
983.20        64.95578
983.59        66.42246
983.97        66.32236
984.35        65.03162
984.74        63.22788
985.12        61.90413
985.51        61.36892
985.89        61.25927
986.28        61.36955
986.66        61.40788
987.04        61.19472
987.43        61.01517
987.81        60.67279
988.20        59.80051
988.58        58.26797
988.96        55.90683
989.35        53.27502
989.73        52.14309
990.12        53.30467
990.50        56.18591
990.88            59.2
991.27        60.58543
991.65        60.32846
992.03        58.91429
992.42        57.23714
992.80        57.00967
993.18        58.73573
993.56        61.54443
993.95        64.53262
994.33        66.91889
994.71         68.2722
995.10        68.88734
995.48        68.77259
995.86        67.79611
996.24         66.0328
996.63        63.50337
997.01        60.48517
997.39        58.07331
997.77        56.95138
998.15        56.91743
998.54         57.7293
998.92        59.07707
999.30        60.88553
999.68        63.52007
1000.06        66.23533
1000.45        66.46291
1000.83        63.47111
1001.21        58.60801
1001.59        54.18515
1001.97        51.96527
1002.35         51.7642
1002.73          53.021
1003.12        55.09196
1003.50         56.4511
1003.88         56.2467
1004.26        55.04306
1004.64        53.29503
1005.02        51.57531
1005.40        50.14059
1005.78        48.74153
1006.16        47.84872
1006.54        48.45581
1006.92        50.41571
1007.30        52.97543
1007.69        55.29565
1008.07        56.81051
1008.45        57.43289
1008.83        57.46134
1009.21        56.33294
1009.59        52.97521
1009.97        47.37586
1010.35        40.31626
1010.73        35.14197
1011.11        35.22602
1011.49        40.11738
1011.86        48.50242
1012.24        56.39195
1012.62        59.76532
1013.00        58.31289
1013.38        53.53072
1013.76        47.54912
1014.14        44.12633
1014.52        44.41691
1014.90        47.22324
1015.28        50.89794
1015.66        52.71453
1016.04        51.68073
1016.41        48.53477
1016.79         44.0565
1017.17        40.41508
1017.55        38.94533
1017.93        38.93248
1018.31        39.67759
1018.69         40.5679
1019.06        41.33456
1019.44        41.90575
1019.82        42.23335
1020.20        41.97801
1020.58        40.96714
1020.95        39.36633
1021.33        36.66074
1021.71        31.07258
1022.09        20.75551
1022.46       0.7501508
1022.84       -30.22179
1023.22       -43.54018
1023.60       -19.80245
1023.97        10.24998
1024.35        28.41311
1024.73        35.80627
