SpectraSmart Spectrum 2.9.0.0
--------- Device Information -----------
Spectrum Name :  反射率_0
Saving Time :  2024/04/20 00:10:28
Spectro-Module Model Name : SE2030-DUVN
Spectro-Module Serial Number : OS361AC55029948
Wavelength Start : 200
Wavelength End : 1025
Wavelength Unit : Wavelength(nm)
Spectrum Unit : Reflectance(%)
-----------Spectrum Setting ------------
Integration Time : 30ms
Average : 10
Boxcar : 0
Background removal :  enabled
linearity correction :  enabled
SC :  disabled
Intensity correction :  disabled
DWT denoise :  enabled
savitzky-golay :  disabled
FFT :  disabled
Running average :  disabled
Kalman :  disabled
High pass :  disabled
---------------BEGIN--------------------
Wavelength(nm)             Reflectance(%)
200.29               0
200.75        63.55758
201.21        63.24318
201.67        64.81826
202.13        68.89741
202.58        75.62677
203.04         85.2424
203.50        94.85905
203.96        97.18085
204.42        91.80695
204.88        83.30907
205.34        75.69595
205.80        70.75259
206.26        67.61163
206.72        64.94795
207.18        62.56178
207.64        61.30202
208.10        62.17244
208.55        65.46182
209.01        68.39332
209.47        69.17092
209.93        68.05524
210.39        65.77646
210.85        63.44053
211.31         62.3256
211.77        62.61478
212.23         64.1059
212.69        66.60576
213.14         68.7198
213.60        68.99461
214.06         68.5718
214.52        68.24279
214.98        68.67301
215.44        69.85071
215.90         71.3458
216.36        73.27777
216.81        75.55622
217.27        77.66429
217.73        79.79808
218.19        80.84312
218.65        79.22906
219.11        74.84721
219.57        67.73799
220.02        60.09982
220.48        57.87892
220.94        62.87973
221.40        73.87643
221.86        86.27974
222.32        93.13522
222.77        92.83011
223.23        87.64969
223.69        81.29546
224.15        79.10693
224.61        81.46347
225.06        85.76707
225.52        89.66868
225.98        91.02866
226.44         89.8222
226.90        86.93831
227.36         83.6377
227.81         81.9858
228.27         82.7827
228.73        85.00644
229.19        87.21339
229.65        87.75736
230.10        86.57189
230.56        84.59299
231.02        82.76569
231.48        82.33554
231.93        83.24722
232.39        84.92589
232.85        86.52559
233.31        86.84575
233.77        85.62418
234.22        83.38341
234.68        80.51727
235.14        77.66802
235.60        75.27708
236.05        73.24001
236.51        71.88527
236.97        71.66646
237.43        72.66763
237.88        75.24775
238.34        78.73948
238.80        81.30325
239.26        81.45423
239.71        79.25127
240.17        75.56326
240.63        72.51512
241.08        70.82125
241.54        70.06444
242.00        69.62846
242.46        68.14909
242.91        64.91181
243.37           59.29
243.83        52.26131
244.28        50.08631
244.74        57.65114
245.20        72.22237
245.66        84.72813
246.11        88.44046
246.57        82.81879
247.03         68.0415
247.48        46.09613
247.94        34.67647
248.40         39.8001
248.85        49.87609
249.31        58.51488
249.77        64.22016
250.22        67.97814
250.68        71.33202
251.14        74.36285
251.59        76.14614
252.05        76.25067
252.51        74.65556
252.96        71.66685
253.42        68.71353
253.88        66.70975
254.33        65.61025
254.79        66.42479
255.25        69.67561
255.70        74.68318
256.16        80.53868
256.62        85.69994
257.07        88.42529
257.53        88.90369
257.99        87.81595
258.44        85.50301
258.90        83.35725
259.35         81.4279
259.81        80.27412
260.27        79.49197
260.72        78.78988
261.18        78.38804
261.63        77.75735
262.09        77.46549
262.55        77.62537
263.00        77.99853
263.46        78.65885
263.91        78.72943
264.37        77.62135
264.83        75.38531
265.28        72.35364
265.74        69.65179
266.19        68.28336
266.65        68.44806
267.11        69.52946
267.56        70.76629
268.02         71.1148
268.47        70.33855
268.93        68.83211
269.38        66.92809
269.84        65.39237
270.30         64.4475
270.75        63.84927
271.21        63.46021
271.66         63.0481
272.12        62.51655
272.57        61.94132
273.03        61.31761
273.48        60.49813
273.94        59.56286
274.39        58.51567
274.85        57.50617
275.31        56.67017
275.76        55.98896
276.22         55.4207
276.67        54.89986
277.13        54.49485
277.58        54.09407
278.04        53.75299
278.49        53.21841
278.95         52.2614
279.40        50.84118
279.86        49.19647
280.31        47.56645
280.77        46.49026
281.22        45.95485
281.68        45.83326
282.13        45.84892
282.59        45.66969
283.04        45.18092
283.50        44.55036
283.95        43.83001
284.41        43.17212
284.86        42.58652
285.32        42.05446
285.77        41.58757
286.22        41.30524
286.68        41.20832
287.13         41.2253
287.59        41.25091
288.04        41.06036
288.50        40.64724
288.95        40.03667
289.41        39.36927
289.86        38.77907
290.32        38.36573
290.77        38.06924
291.22        37.87276
291.68        37.71344
292.13        37.56779
292.59        37.48675
293.04        37.49084
293.50         37.6341
293.95        37.90802
294.40        38.27977
294.86        38.70694
295.31        39.13794
295.77        39.55003
296.22        39.94274
296.68        40.31469
297.13        40.64698
297.58        40.94704
298.04        41.23134
298.49        41.50266
298.95        41.81101
299.40        42.15228
299.85        42.51771
300.31         42.9181
300.76         43.3518
301.21        43.81099
301.67        44.31812
302.12        44.78281
302.58           45.15
303.03        45.38181
303.48        45.51624
303.94        45.67146
304.39         45.9829
304.84        46.47846
305.30        47.09616
305.75        47.67111
306.20        47.98457
306.66        48.01791
307.11        47.83086
307.57         47.5764
308.02        47.39654
308.47        47.36128
308.93        47.41282
309.38        47.50663
309.83        47.63456
310.29        47.77013
310.74        47.92383
311.19        48.00876
311.65        47.88001
312.10        47.51868
312.55        46.96821
313.00        46.39648
313.46        46.06517
313.91        46.00917
314.36         46.1705
314.82        46.37423
315.27        46.35693
315.72        46.04549
316.18        45.54566
316.63        44.99913
317.08         44.6357
317.53         44.5058
317.99        44.51732
318.44        44.58032
318.89        44.53902
319.35        44.34327
319.80        44.05106
320.25        43.69556
320.70        43.32792
321.16        42.96943
321.61          42.607
322.06        42.25779
322.51        41.96032
322.97        41.71212
323.42        41.51705
323.87        41.33302
324.32         41.0916
324.78        40.76865
325.23        40.39588
325.68        39.99194
326.13        39.60246
326.59        39.24522
327.04        38.92946
327.49        38.65698
327.94        38.43553
328.39        38.26068
328.85        38.11442
329.30        38.01311
329.75         37.9196
330.20        37.81917
330.66        37.69035
331.11        37.55556
331.56        37.39322
332.01         37.1998
332.46        36.98058
332.92        36.72913
333.37        36.45525
333.82        36.17037
334.27        35.89479
334.72        35.66447
335.17        35.53798
335.63        35.51595
336.08        35.58344
336.53        35.71193
336.98        35.86891
337.43        36.02481
337.88         36.1857
338.34        36.25279
338.79        36.11744
339.24        35.75334
339.69        35.19294
340.14        34.62471
340.59        34.36758
341.05        34.48041
341.50        34.88066
341.95        35.34325
342.40        35.51152
342.85        35.30854
343.30        34.85627
343.75        34.32734
344.20        34.00697
344.66        33.96942
345.11        34.08724
345.56        34.28453
346.01           34.44
346.46        34.49756
346.91        34.51827
347.36        34.43673
347.81        34.13872
348.26        33.64306
348.72        33.01382
349.17        32.41798
349.62        32.21141
350.07        32.46158
350.52        33.03896
350.97        33.72973
351.42        34.21146
351.87        34.38522
352.32        34.33182
352.77         34.1071
353.22        33.80968
353.67        33.49285
354.13         33.1451
354.58        32.77975
355.03        32.46557
355.48        32.22554
355.93        32.07162
356.38        31.99139
356.83        31.94566
357.28        31.91508
357.73        31.89475
358.18          31.879
358.63         31.8645
359.08        31.84039
359.53        31.79548
359.98        31.70441
360.43        31.53317
360.88        31.28434
361.33        30.97972
361.78        30.66253
362.23        30.40463
362.68        30.22562
363.13        30.09868
363.58        30.00509
364.03        29.91193
364.48         29.7982
364.93        29.67177
365.38        29.49563
365.83        29.21339
366.28        28.82641
366.73        28.35696
367.18        27.88606
367.63        27.54014
368.08        27.34631
368.53        27.27184
368.98        27.24128
369.43        27.13084
369.88        26.91068
370.33        26.61974
370.78        26.31284
371.23        26.08493
371.68         25.9666
372.13        25.92276
372.58        25.92372
373.03        25.92423
373.48        25.89861
373.93        25.85302
374.38        25.78086
374.83        25.66982
375.28        25.51807
375.72        25.31964
376.17         25.0993
376.62         24.8586
377.07        24.61662
377.52        24.38682
377.97        24.20304
378.42         24.1131
378.87         24.1164
379.32        24.18389
379.77        24.27954
380.22         24.3482
380.67        24.36921
381.11        24.36126
381.56        24.29281
382.01        24.13695
382.46        23.89857
382.91        23.58218
383.36        23.26911
383.81        23.08249
384.26        23.04236
384.71        23.12544
385.15        23.21573
385.60        23.13594
386.05        22.85769
386.50        22.44329
386.95        22.04016
387.40        21.88107
387.85        22.00482
388.29        22.31309
388.74        22.65869
389.19        22.82483
389.64        22.76089
390.09        22.52653
390.54        22.21803
390.98        21.98169
391.43        21.88242
391.88        21.86684
392.33        21.85952
392.78        21.75343
393.23        21.54161
393.67        21.26077
394.12        21.02924
394.57         20.9353
395.02        20.99407
395.47        21.16673
395.91        21.37922
396.36        21.47785
396.81        21.42797
397.26        21.26765
397.71        21.07789
398.15        20.96569
398.60        20.97936
399.05        21.06773
399.50        21.16037
399.95        21.15745
400.39        21.03811
400.84        20.83178
401.29         20.6115
401.74         20.5095
402.18         20.5664
402.63         20.7329
403.08        20.90985
403.53        20.93675
403.97        20.78166
404.42        20.50758
404.87        20.22291
405.32        20.10634
405.76        20.19442
406.21        20.42242
406.66        20.68646
407.11         20.8249
407.55        20.79774
408.00        20.66287
408.45        20.47856
408.90        20.29425
409.34         20.1686
409.79         20.1783
410.24        20.27582
410.68        20.30411
411.13        20.25052
411.58        20.20017
412.03        20.16522
412.47        20.13579
412.92        20.11303
413.37        20.09196
413.81        20.08721
414.26        20.13804
414.71        20.24003
415.15        20.39059
415.60        20.51931
416.05        20.54055
416.49        20.43377
416.94        20.22856
417.39        19.99908
417.83        19.86607
418.28         19.8645
418.73        19.95156
419.17        20.06252
419.62        20.08539
420.07        20.00124
420.51        19.85401
420.96        19.69702
421.41        19.59002
421.85        19.54639
422.30        19.55307
422.74        19.60154
423.19        19.71448
423.64        19.87543
424.08        20.08914
424.53        20.28183
424.98        20.35466
425.42        20.28812
425.87        20.11367
426.31         19.8991
426.76        19.75955
427.21        19.71579
427.65        19.73113
428.10        19.79762
428.54        19.86918
428.99        19.93088
429.44        20.08446
429.88        20.24014
430.33        20.12048
430.77        19.79891
431.22        19.65966
431.66        19.73544
432.11        19.84882
432.56        19.96197
433.00         20.1779
433.45        20.32453
433.89        20.17039
434.34        19.87097
434.78        19.60884
435.23        19.34114
435.67        20.33073
436.12        19.72507
436.57        19.64819
437.01         19.3627
437.46        19.27359
437.90         19.4032
438.35        19.56975
438.79        19.69305
439.24        19.73496
439.68         19.6759
440.13        19.37679
440.57        19.00057
441.02        19.10851
441.46        19.53618
441.91        19.65719
442.35        18.98105
442.80        18.79011
443.24         18.8861
443.69        18.86445
444.13        18.70833
444.58        18.60233
445.02         18.5628
445.47        18.59056
445.91        18.64785
446.36        18.63175
446.80        18.52607
447.24        18.38708
447.69        18.26693
448.13        18.20419
448.58        18.21847
449.02         18.2908
449.47        18.37867
449.91        18.40698
450.36        18.36382
450.80        18.26755
451.25        18.16945
451.69        18.12974
452.13        18.16833
452.58        18.25848
453.02        18.36297
453.47        18.42766
453.91        18.43952
454.36        18.41374
454.80        18.37209
455.24        18.34877
455.69        18.35915
456.13        18.36813
456.58        18.37785
457.02        18.38441
457.46        18.38337
457.91        18.33896
458.35        18.25879
458.79        18.20049
459.24        18.16606
459.68        18.14349
460.13        18.17948
460.57        18.17346
461.01        18.10422
461.46        18.47192
461.90        18.55172
462.34        18.34993
462.79        18.47798
463.23         18.3172
463.68         18.1769
464.12        18.07967
464.56        18.18608
465.01        18.35162
465.45        18.51506
465.89        18.60581
466.34        18.61366
466.78        18.50581
467.22         18.3517
467.67        18.38337
468.11         18.5706
468.55        18.56684
468.99         18.3939
469.44        18.36583
469.88        18.49232
470.32        18.59571
470.77        18.63827
471.21        18.64791
471.65        18.61819
472.10        18.54392
472.54        18.45531
472.98        18.44044
473.42        18.51079
473.87        18.58737
474.31        18.64898
474.75        18.77677
475.20        18.92289
475.64        18.89268
476.08        18.74348
476.52        18.72952
476.97        18.86631
477.41        19.03362
477.85        19.17744
478.29        19.26831
478.74        19.29158
479.18        19.22171
479.62        19.13154
480.06          19.142
480.50        19.24853
480.95        19.32698
481.39        19.34058
481.83        19.32576
482.27        19.28235
482.72        19.20199
483.16        19.12504
483.60        19.12099
484.04        19.19114
484.48          19.381
484.93        19.71837
485.37        19.88339
485.81        19.98892
486.25        20.66047
486.69        20.79833
487.14        20.44536
487.58        20.15749
488.02        21.00748
488.46        20.46497
488.90        20.52604
489.34        20.38533
489.79        20.55707
490.23        20.95069
490.67        21.14228
491.11        21.12237
491.55        21.06826
491.99         21.0256
492.43        21.00197
492.88        21.02205
493.32        21.06269
493.76        21.13591
494.20        21.27691
494.64        21.48411
495.08        21.73849
495.52        21.99702
495.96        22.20981
496.41        22.36883
496.85        22.44777
497.29        22.48166
497.73        22.65717
498.17        22.95894
498.61        23.06819
499.05        23.02402
499.49        23.28166
499.93        23.78396
500.37        23.96502
500.82         23.8566
501.26         24.0123
501.70        24.39128
502.14        24.46647
502.58        24.27412
503.02        24.24418
503.46        24.40157
503.90        24.54219
504.34        24.63443
504.78        24.70788
505.22        24.75268
505.66        24.77043
506.10        24.77836
506.54        24.79855
506.98        24.84144
507.42        24.90608
507.86        24.98985
508.30        25.08639
508.74        25.19031
509.18         25.2984
509.62        25.41246
510.06         25.5344
510.50        25.66219
510.94        25.79641
511.38        25.91134
511.82        25.96696
512.26        25.95896
512.70        25.89856
513.14        25.83761
513.58        25.85484
514.02        25.95807
514.46        26.12505
514.90        26.29729
515.34        26.31555
515.78        26.20248
516.22        26.05191
516.66        25.94352
517.10        25.67141
517.54        25.25813
517.98        25.75802
518.42        25.60645
518.86        25.82476
519.30        25.92797
519.74        26.06387
520.18        26.18859
520.62        26.21139
521.06         26.1387
521.50        25.98398
521.93        25.79525
522.37        25.66085
522.81        25.60627
523.25        25.61013
523.69        25.65328
524.13        25.70377
524.57        25.74489
525.01        25.78165
525.45        25.80741
525.89        25.80992
526.32        25.78572
526.76        25.73859
527.20        25.66519
527.64        25.56823
528.08        25.45284
528.52        25.31842
528.96         25.1929
529.40        25.11587
529.83        25.09149
530.27        25.11705
530.71        25.14138
531.15        25.08423
531.59        24.93513
532.03         24.7217
532.46         24.5099
532.90        24.42274
533.34        24.47335
533.78        24.61604
534.22        24.77962
534.66        24.85512
535.09        24.81029
535.53        24.69006
535.97         24.5278
536.41        24.37287
536.85        24.24986
537.28        24.15847
537.72        24.11537
538.16        24.07343
538.60        24.14768
539.04        24.22805
539.47        24.31876
539.91        24.43421
540.35        24.58041
540.79         24.5456
541.22        24.64719
541.66         24.7122
542.10        24.85839
542.54        24.68479
542.97        24.86418
543.41         24.9667
543.85        25.17298
544.29        25.40783
544.72        25.61346
545.16        25.77515
545.60        25.87369
546.04        25.83726
546.47        25.76818
546.91        25.99024
547.35        26.44984
547.79        26.79536
548.22        26.96229
548.66        27.03503
549.10        27.05946
549.53        27.22981
549.97        27.57253
550.41        27.62872
550.84        27.91072
551.28        28.12882
551.72        28.43272
552.15        28.72009
552.59        28.97993
553.03        29.22659
553.46        29.42352
553.90        29.54659
554.34        29.59444
554.77        29.57982
555.21        29.55526
555.65        29.59104
556.08        29.70088
556.52        29.86287
556.96        30.04737
557.39        30.24264
557.83         30.4248
558.27        30.52775
558.70         30.5655
559.14        30.62383
559.57        30.70056
560.01        30.78557
560.45        30.86518
560.88        30.87243
561.32        30.86708
561.75        30.96058
562.19        31.23898
562.63        31.32888
563.06        31.27973
563.50        31.33371
563.93        31.48352
564.37        31.65543
564.80        31.70045
565.24           31.82
565.68        31.95021
566.11        32.06778
566.55        32.19124
566.98        32.26606
567.42        32.28155
567.85        32.62966
568.29         32.4739
568.72        32.80891
569.16        33.28999
569.60        33.59995
570.03        33.68619
570.47        33.76002
570.90        33.71378
571.34        34.11913
571.77        33.87951
572.21        34.43802
572.64        34.67464
573.08        34.73518
573.51        35.05116
573.95        35.50306
574.38         35.7903
574.82        36.11891
575.25        36.29398
575.69        36.08007
576.12        35.88732
576.56        35.67352
576.99        35.62526
577.42        35.87408
577.86        35.92949
578.29        36.12958
578.73        36.49692
579.16        36.36107
579.60        36.24676
580.03         35.7138
580.47        35.95711
580.90        35.42691
581.33        35.59407
581.77        35.56604
582.20         35.8639
582.64        35.39507
583.07         35.2851
583.51        35.17366
583.94        34.77055
584.37        34.61339
584.81        34.15783
585.24        34.08112
585.68         34.2001
586.11        34.02029
586.54        33.90102
586.98        33.79707
587.41        33.84635
587.85        33.91076
588.28        33.91093
588.71        33.71685
589.15        33.42914
589.58        32.93194
590.01        33.24139
590.45        33.41237
590.88        33.51373
591.31        33.31715
591.75        32.82819
592.18        32.98616
592.61        33.04098
593.05         33.3262
593.48        33.16177
593.91        33.88982
594.35        33.65546
594.78        33.79731
595.21        34.30831
595.65        34.68784
596.08        34.48153
596.51        34.45205
596.94        34.51871
597.38        34.67371
597.81        34.96848
598.24        35.02786
598.68        35.79931
599.11        35.81798
599.54        36.80684
599.97        36.70221
600.41        37.08776
600.84        37.28243
601.27        38.02392
601.70        38.38181
602.14        38.51083
602.57        39.04194
603.00        39.91775
603.43        40.49079
603.87        40.74747
604.30        41.19049
604.73        41.82846
605.16        42.13876
605.60        42.56602
606.03        43.08218
606.46        43.62868
606.89        44.62765
607.32        45.09948
607.76        45.22837
608.19        45.51833
608.62        46.31884
609.05        46.22607
609.48          46.632
609.92        47.08368
610.35        47.19249
610.78        48.29911
611.21        48.88427
611.64        48.69321
612.07        49.40705
612.50        49.61682
612.94        49.60034
613.37        50.26795
613.80        50.60109
614.23        50.94556
614.66         51.5266
615.09        51.83384
615.52        52.32719
615.96        52.76461
616.39        53.13437
616.82        53.49576
617.25        53.36094
617.68        53.88726
618.11        54.19995
618.54        54.49755
618.97         54.5619
619.40        54.39739
619.84        54.67766
620.27        54.37473
620.70        54.91065
621.13        55.78919
621.56        56.04782
621.99        55.82352
622.42        55.83456
622.85        56.19278
623.28        56.42332
623.71         56.4668
624.14        56.59314
624.57        56.49625
625.00        56.09932
625.43        56.42847
625.86         55.8511
626.29        55.83086
626.72        55.58794
627.15        55.48956
627.58        55.42354
628.01        55.32554
628.44        55.19374
628.87        55.01425
629.30        54.43274
629.73        54.19512
630.16         53.7652
630.59         53.5522
631.02        53.23227
631.45        52.86619
631.88        52.43216
632.31        51.89138
632.74        51.63197
633.17        50.89404
633.60        50.33646
634.03        49.74556
634.46        49.13651
634.89        48.51794
635.32        47.91674
635.75        47.35168
636.18        46.82142
636.61        46.32466
637.04        45.84862
637.47        45.38483
637.89        44.93575
638.32         44.4953
638.75         44.0836
639.18        43.70596
639.61        43.36164
640.04        43.03104
640.47        42.68006
640.90        42.30596
641.33        41.92442
641.76        41.57341
642.18         41.3177
642.61        41.16542
643.04        41.09895
643.47        41.08721
643.90        41.07688
644.33         41.0524
644.76        41.03316
645.18         41.0282
645.61        41.05381
646.04        41.11815
646.47        41.21205
646.90        41.35437
647.33        41.57653
647.75        41.88136
648.18         42.2597
648.61        42.67163
649.04        43.04072
649.47        43.35701
649.89        43.66263
650.32         44.0146
650.75        44.46713
651.18        45.07249
651.61        45.85027
652.03         46.7347
652.46        47.67685
652.89         48.5589
653.32        48.98311
653.74        49.11171
654.17        49.75706
654.60        50.36763
655.03        51.83901
655.46        51.33391
655.88        53.14264
656.31        54.68342
656.74        59.89861
657.16        58.77558
657.59        55.87503
658.02        55.88913
658.45         56.6803
658.87        57.54903
659.30        58.17149
659.73        59.06202
660.15        59.80815
660.58        59.41951
661.01        59.30214
661.44        59.32545
661.86        59.78732
662.29        60.61595
662.72        61.54968
663.14        62.36336
663.57        62.52795
664.00        62.22204
664.42        62.28043
664.85        62.79277
665.27        63.24604
665.70        63.57481
666.13        63.86253
666.55        64.24834
666.98        64.55629
667.41        64.82957
667.83        65.04832
668.26         65.2069
668.69         65.3295
669.11        65.43047
669.54        65.53481
669.96        65.65963
670.39        65.79076
670.82        65.96055
671.24        66.21026
671.67        66.53294
672.09        66.89461
672.52        67.31418
672.94        67.47214
673.37        67.42957
673.80        67.41032
674.22        67.48129
674.65        67.55989
675.07        67.67358
675.50         67.9006
675.92        68.20042
676.35        68.37557
676.77        68.39386
677.20        68.48767
677.62        68.44167
678.05        68.47424
678.47        68.50552
678.90        68.80462
679.32        68.87833
679.75        69.09458
680.17        69.28508
680.60        69.57414
681.02        69.90834
681.45        69.89536
681.87        69.66764
682.30        69.93307
682.72        70.59838
683.15         70.7746
683.57        70.49783
684.00        70.44025
684.42         70.7488
684.85        70.95853
685.27        71.10345
685.70        71.37056
686.12        71.67371
686.54        71.90482
686.97        72.07199
687.39        71.83552
687.82        71.80376
688.24        71.89423
688.66        72.27793
689.09        72.04118
689.51        72.26169
689.94        72.23033
690.36        72.27043
690.78        72.29173
691.21        72.34266
691.63        72.34351
692.06        72.66497
692.48        72.97421
692.90        73.03056
693.33        73.67319
693.75        73.52708
694.17        73.69206
694.60         73.7731
695.02        73.60513
695.44        73.24535
695.87        73.25043
696.29        73.57118
696.71        73.39692
697.14        73.00391
697.56        73.52647
697.98         74.6431
698.41        75.91191
698.83        75.36385
699.25        75.03239
699.68         74.6162
700.10        74.41763
700.52        74.53326
700.94        74.83463
701.37        75.19812
701.79        75.49802
702.21        75.64819
702.64        75.68842
703.06        75.68896
703.48        75.77374
703.90        75.97474
704.33        76.23973
704.75        76.49025
705.17         76.5695
705.59        76.45076
706.01        76.19192
706.44        75.94148
706.86        75.92977
707.28        76.19489
707.70        76.65466
708.12        77.16017
708.55        77.46933
708.97        77.52264
709.39        77.40992
709.81        77.21345
710.23        77.07256
710.66        77.04475
711.08        77.09451
711.50        77.19041
711.92        77.30231
712.34        77.41596
712.76        77.55254
713.19        77.67738
713.61        77.79339
714.03        77.86744
714.45        77.90245
714.87        77.93368
715.29        78.02477
715.71        78.18628
716.13        78.39233
716.56        78.58528
716.98         78.7793
717.40        78.88947
717.82        78.95992
718.24        78.99352
718.66        78.99706
719.08        78.97804
719.50        79.00259
719.92        78.95926
720.34        78.95114
720.76        78.95027
721.19        78.96333
721.61        79.00728
722.03        79.06646
722.45        79.16193
722.87        79.27229
723.29        79.40947
723.71        79.58024
724.13        79.78003
724.55        80.01275
724.97        80.26723
725.39         80.4351
725.81        80.48744
726.23        80.60641
726.65        80.87815
727.07         80.5528
727.49        81.06013
727.91        81.22341
728.33        81.41171
728.75        81.47807
729.17        81.41528
729.59        81.31268
730.01        81.16236
730.43        80.96491
730.85        80.83479
731.27        80.80692
731.69        80.83914
732.10        81.63161
732.52        81.74576
732.94        81.88335
733.36        81.68437
733.78        81.59611
734.20        81.67852
734.62        81.64236
735.04        81.44199
735.46        81.39249
735.88        81.55724
736.30        80.79547
736.72         80.8647
737.13        81.24665
737.55        82.05103
737.97        82.60447
738.39        82.68791
738.81        82.43095
739.23        82.03616
739.65          81.895
740.06        81.97433
740.48        82.30679
740.90         82.7999
741.32        81.85242
741.74        81.80467
742.16        81.78904
742.57         82.0554
742.99        82.49489
743.41        82.84304
743.83        83.05345
744.25        83.04835
744.67         82.8534
745.08        82.58427
745.50        82.39334
745.92        82.35124
746.34        82.40791
746.75         82.5002
747.17        82.53178
747.59        82.48533
748.01        82.41299
748.42        82.35703
748.84        82.39096
749.26        82.55137
749.68        82.63379
750.09         82.6616
750.51        83.05192
750.93        83.60095
751.35        83.48663
751.76        82.84446
752.18         82.5382
752.60        82.59351
753.01        82.96183
753.43        82.79401
753.85        82.93983
754.27         83.1424
754.68        83.47085
755.10        83.80187
755.52         83.7699
755.93        83.44996
756.35        83.32356
756.77         83.4679
757.18        83.60765
757.60        83.78914
758.02        84.17627
758.43        84.55959
758.85        84.73099
759.26        84.78951
759.68        83.87054
760.10        83.95953
760.51        83.83471
760.93        84.16523
761.34        82.96317
761.76        83.54933
762.18          83.174
762.59        82.94976
763.01        83.07425
763.42        83.58205
763.84        84.18192
764.26        84.68206
764.67        84.51031
765.09        83.98132
765.50        84.33092
765.92        85.39082
766.33        85.76231
766.75        85.28963
767.16        84.77018
767.58        84.34566
768.00        83.97852
768.41        83.86787
768.83        84.18269
769.24        84.79538
769.66        85.46326
770.07        85.93538
770.49        85.77644
770.90        85.18501
771.32        85.11482
771.73        85.56821
772.15        85.72061
772.56        85.53326
772.97        85.36808
773.39        85.22165
773.80        85.12309
774.22        85.01562
774.63        84.66573
775.05        84.22208
775.46        84.19449
775.88        84.61002
776.29        85.29245
776.70          85.964
777.12        86.25964
777.53        86.08836
777.95        85.51551
778.36        84.83326
778.77        84.54117
779.19        84.76797
779.60        85.42975
780.02         86.1516
780.43        86.55882
780.84         86.5491
781.26        85.71928
781.67        84.59113
782.09        85.31802
782.50        87.40137
782.91        87.62576
783.33         86.0528
783.74        85.81366
784.15        86.28384
784.57        86.70227
784.98        86.68201
785.39        86.48565
785.81        86.11768
786.22        85.70061
786.63        85.38916
787.04        85.27238
787.46        85.39032
787.87        85.74664
788.28        86.21011
788.70        86.54155
789.11        86.67771
789.52        86.64066
789.93        86.48215
790.35         86.6601
790.76        86.54336
791.17        86.67107
791.58        86.82397
792.00        86.79437
792.41        86.57166
792.82        86.63438
793.23        86.85795
793.65         86.2095
794.06        85.13452
794.47        85.31507
794.88        86.52761
795.29         87.4637
795.71        88.02667
796.12        86.95251
796.53        88.25306
796.94        87.51972
797.35        86.28456
797.76           86.02
798.18        86.73654
798.59        87.09117
799.00        86.95927
799.41        87.18594
799.82        87.70164
800.23        87.99521
800.64         88.0051
801.06        87.80873
801.47        87.55311
801.88        87.43186
802.29        87.48713
802.70        87.61617
803.11        87.72435
803.52        87.67225
803.93        87.45601
804.34        87.17597
804.75        86.86453
805.17        86.68739
805.58        86.72311
805.99        86.50025
806.40        86.23084
806.81        87.22398
807.22        88.93288
807.63        89.38412
808.04        87.68312
808.45        87.28111
808.86        88.04662
809.27        88.63436
809.68        88.87177
810.09        89.10777
810.50        89.28759
810.91        89.34225
811.32        89.31001
811.73        89.12974
812.14          88.798
812.55        88.58787
812.96        88.45799
813.37        87.76001
813.78          86.785
814.19        86.84289
814.60        87.73253
815.01        88.06932
815.42         87.7598
815.83        87.53533
816.24        87.51823
816.65         87.5645
817.05        87.71533
817.46        87.95707
817.87         88.2038
818.28         88.2747
818.69        88.15555
819.10        87.89863
819.51        87.66016
819.92        87.78273
820.33        88.33731
820.74        89.00971
821.14         89.6583
821.55        90.44698
821.96        91.10722
822.37        90.78046
822.78         89.6707
823.19        88.97553
823.60        88.85838
824.00        88.72716
824.41        88.50368
824.82        88.46495
825.23         88.6001
825.64        88.86607
826.04        89.19199
826.45        89.39635
826.86        89.45132
827.27        89.39572
827.68        89.29732
828.08        89.31647
828.49        89.42442
828.90        89.59475
829.31        89.79253
829.72        89.95877
830.12        90.07607
830.53        90.12955
830.94        90.08722
831.35        89.85799
831.75        89.47691
832.16        88.94281
832.57        88.41658
832.97        88.15363
833.38        88.19823
833.79        88.47672
834.20        88.88219
834.60        89.23014
835.01        89.47215
835.42        89.66729
835.82         89.7881
836.23        89.73009
836.64         89.5169
837.04        89.14653
837.45        88.78924
837.86        88.78711
838.26        89.21914
838.67        89.96954
839.08        90.74183
839.48        90.96331
839.89        90.50347
840.29         89.5891
840.70        88.66349
841.11        88.28538
841.51        88.59837
841.92        89.35108
842.33         90.3629
842.73        91.31915
843.14         91.9493
843.54        92.41821
843.95        92.57274
844.35        92.27154
844.76        91.55836
845.17        90.50662
845.57         89.4425
845.98        88.90438
846.38        89.00445
846.79          89.612
847.19        90.51962
847.60        91.14975
848.00        91.37978
848.41        91.28614
848.81        91.09489
849.22        91.07721
849.62        91.35643
850.03         91.7611
850.43        92.20674
850.84        92.41774
851.24        92.38461
851.65        92.13139
852.05        91.81741
852.46        91.58492
852.86        91.50113
853.27        91.47952
853.67        91.42738
854.07        91.52514
854.48        91.64784
854.88        91.46874
855.29        91.01437
855.69        90.85685
856.10        90.96066
856.50        91.14711
856.90        91.27956
857.31        91.28847
857.71        91.22403
858.12         91.0574
858.52        90.88397
858.92        90.73569
859.33        90.60556
859.73        90.51591
860.13        90.50915
860.54        90.67386
860.94        91.08105
861.34        91.63901
861.75        92.09233
862.15        92.13926
862.55        91.67686
862.96        90.83608
863.36        89.88816
863.76        89.24751
864.17        89.05322
864.57        89.21275
864.97        89.62057
865.38        90.08278
865.78        90.56269
866.18        91.02889
866.58        91.39716
866.99        91.51431
867.39        91.40607
867.79        91.07526
868.19        90.48807
868.60        89.59106
869.00        88.40324
869.40        86.99596
869.80        85.77309
870.21        85.38538
870.61        86.01614
871.01        87.41597
871.41         88.9488
871.81        89.59561
872.22        89.13423
872.62        87.89375
873.02        86.39568
873.42        85.58842
873.82         85.6252
874.22        85.98183
874.63        86.51077
875.03        87.01785
875.43        87.30791
875.83        87.88731
876.23        87.62833
876.63        87.24789
877.03        86.56911
877.44        85.53681
877.84        113.4554
878.24        85.44729
878.64        85.83268
879.04        87.40189
879.44        85.64787
879.84        84.47865
880.24        86.25879
880.64        86.05639
881.04        84.39616
881.44        83.54381
881.84        83.88605
882.24          85.038
882.65        86.37125
883.05        86.91869
883.45        86.34637
883.85        85.08687
884.25        83.80016
884.65        83.34456
885.05        83.91328
885.45        85.23295
885.85        86.72107
886.25        87.40047
886.65        87.01316
887.05        85.89615
887.45        84.60644
887.85        83.96578
888.25        84.18949
888.65        85.03312
889.04        86.14521
889.44        86.82602
889.84        86.89466
890.24        86.54996
890.64        86.08851
891.04        85.95219
891.44         86.2094
891.84        86.64429
892.24        87.00324
892.64        86.88272
893.04        86.21998
893.44        85.28621
893.83        84.20565
894.23        83.17113
894.63        82.26212
895.03        81.42635
895.43        80.92334
895.83        81.19196
896.23        82.24788
896.63        83.91911
897.02        85.67967
897.42        86.54639
897.82        86.28091
898.22        85.18131
898.62        83.69324
899.01        82.51847
899.41        81.94402
899.81        81.76389
900.21        81.95934
900.61        82.49914
901.00        83.29953
901.40        84.35267
901.80        85.45806
902.20        86.23997
902.59        86.59351
902.99        86.56033
903.39        86.24375
903.79        85.85754
904.18        85.49039
904.58        85.13509
904.98        84.87444
905.38        84.84272
905.77        85.04058
906.17          85.467
906.57        85.93344
906.96        86.15469
907.36        86.02481
907.76        85.59863
908.15          85.082
908.55        84.76293
908.95        84.73289
909.34        84.95039
909.74        85.15228
910.14        84.90079
910.53        84.12453
910.93        83.05854
911.33        82.13916
911.72        82.05273
912.12         82.8845
912.52         84.2987
912.91        85.85281
913.31        86.80136
913.70        86.99731
914.10        86.64604
914.49        85.85928
914.89        84.92579
915.29        84.07003
915.68        83.26141
916.08        82.76138
916.47        82.88285
916.87        83.59583
917.26         84.7638
917.66        86.04179
918.05        86.88538
918.45        87.09105
918.84        86.85498
919.24        86.20965
919.64        85.25471
920.03         84.1293
920.42        82.85294
920.82        81.85122
921.21        81.71563
921.61        82.47662
922.00        84.01501
922.40        85.69515
922.79        86.68045
923.19         86.6731
923.58        85.79337
923.98        84.42252
924.37        83.58589
924.77        83.71353
925.16        82.82586
925.55        83.83588
925.95        83.83974
926.34        83.69717
926.74        83.44349
927.13        83.34818
927.52        83.66577
927.92        84.39281
928.31        85.46782
928.70        86.53843
929.10        87.01614
929.49         86.7552
929.89        85.92728
930.28        84.94226
930.67         84.4559
931.07        84.61914
931.46        85.27316
931.85        86.09848
932.24        86.63206
932.64        86.72444
933.03        86.47202
933.42        86.00138
933.82        85.59975
934.21         85.3507
934.60        85.20126
934.99        84.92632
935.39        84.32249
935.78        83.37846
936.17        81.89967
936.56        80.09374
936.96        80.52605
937.35        80.39854
937.74        81.79932
938.13        83.28996
938.53        84.37027
938.92        84.98414
939.31        85.30958
939.70        85.37891
940.09        85.18161
940.49        84.79655
940.88        84.26713
941.27        83.83442
941.66        83.88888
942.05        84.47334
942.44        85.45388
942.84        86.59418
943.23        87.50689
943.62        88.01326
944.01        88.23924
944.40        88.15247
944.79        87.72035
945.18         86.9886
945.57        85.92532
945.97        84.88508
946.36        84.50334
946.75        84.95398
947.14        86.03532
947.53        87.19059
947.92        87.62823
948.31        87.21469
948.70        86.19255
949.09        84.95714
949.48         84.2113
949.87        84.18045
950.26        84.64129
950.65        85.32653
951.04        85.79864
951.43        85.89496
951.82        85.75161
952.21        85.46835
952.60        85.18874
952.99         84.9756
953.38        84.77918
953.77        84.57017
954.16         84.3218
954.55         84.0393
954.94        83.75918
955.33        83.56304
955.72         83.5597
956.11        83.77986
956.50        84.20716
956.89        84.71849
957.28        85.07751
957.66        85.20068
958.05        85.06755
958.44        84.85563
958.83        84.81248
959.22        84.97215
959.61        85.27835
960.00        85.48606
960.39        85.17149
960.78        84.27448
961.16        82.94968
961.55        81.66644
961.94        80.99516
962.33        81.06506
962.72        81.71149
963.11        82.57668
963.49        83.06429
963.88        82.88763
964.27        82.24726
964.66        81.44565
965.04        80.98881
965.43        81.01376
965.82        81.39996
966.21        81.88235
966.60        82.03609
966.98         81.7888
967.37        81.26696
967.76        80.83749
968.15        81.05274
968.53        82.01395
968.92        83.40932
969.31        84.82481
969.69        85.58693
970.08        85.43497
970.47         84.6182
970.86        83.36978
971.24        82.04458
971.63        80.88403
972.02        79.86314
972.40        79.08343
972.79        78.70968
973.17        78.80353
973.56         79.2135
973.95        79.97058
974.33        81.04427
974.72        82.18895
975.11        83.36663
975.49        84.11932
975.88        83.77579
976.26        82.30804
976.65        79.98929
977.04        77.49714
977.42        76.01963
977.81        75.92374
978.19        76.89469
978.58        78.51729
978.96        80.09026
979.35        81.20264
979.74        82.11946
980.12        82.72576
980.51        82.56645
980.89        81.78181
981.28        80.43027
981.66        79.09736
982.05        78.68919
982.43        79.30504
982.82        80.70847
983.20        82.45554
983.59        83.39046
983.97        83.26113
984.35        82.25761
984.74        80.95432
985.12        80.18127
985.51        80.16661
985.89         80.7395
986.28        81.43852
986.66        81.55212
987.04        80.80441
987.43        79.62519
987.81        78.45797
988.20         77.8569
988.58        77.88123
988.96        78.37947
989.35        79.13678
989.73        79.71966
990.12        79.72695
990.50        79.44859
990.88        78.95793
991.27        78.31335
991.65        77.62507
992.03        76.83796
992.42        76.21521
992.80        76.31622
993.18        77.26475
993.56        78.79395
993.95        80.40355
994.33        81.73769
994.71        82.51966
995.10        82.79195
995.48        82.71511
995.86        82.49135
996.24        82.22862
996.63        81.97808
997.01        81.46661
997.39        80.17503
997.77        78.20869
998.15        75.91735
998.54         74.3327
998.92        74.53003
999.30        76.72368
999.68        81.14214
1000.06        86.66596
1000.45        88.86453
1000.83        85.87127
1001.21        79.66504
1001.59         73.7377
1001.97        70.90639
1002.35        71.07062
1002.73        73.39821
1003.12        76.76429
1003.50        78.71473
1003.88        77.88663
1004.26        75.12335
1004.64        71.76862
1005.02        69.63467
1005.40        69.21262
1005.78        69.97905
1006.16        71.37984
1006.54        72.32167
1006.92         72.3524
1007.30        71.87261
1007.69        71.37708
1008.07        71.52884
1008.45        72.48192
1008.83        74.38607
1009.21        76.96372
1009.59        78.46285
1009.97        77.27096
1010.35        73.41793
1010.73        69.39391
1011.11        68.58914
1011.49        71.14059
1011.86        75.91376
1012.24        80.07195
1012.62        80.83141
1013.00        78.08659
1013.38         73.0994
1013.76        67.56471
1014.14         64.4774
1014.52        64.73912
1014.90        67.27238
1015.28        70.88569
1015.66        73.63001
1016.04        74.72451
1016.41        74.84993
1016.79         73.5089
1017.17        70.34491
1017.55        66.13266
1017.93        61.50164
1018.31         57.9726
1018.69        56.91219
1019.06        58.10403
1019.44        61.03373
1019.82        64.68824
1020.20        66.34138
1020.58        64.76273
1020.95        60.68338
1021.33        55.32487
1021.71        49.62567
1022.09        43.15675
1022.46        33.17199
1022.84        19.90889
1023.22        16.97469
1023.60        30.69412
1023.97        45.94473
1024.35        54.96457
1024.73        59.16048
