SpectraSmart Spectrum 2.9.0.0
--------- Device Information -----------
Spectrum Name :  反射率_0
Saving Time :  2024/04/20 00:23:33
Spectro-Module Model Name : SE2030-DUVN
Spectro-Module Serial Number : OS361AC55029948
Wavelength Start : 200
Wavelength End : 1025
Wavelength Unit : Wavelength(nm)
Spectrum Unit : Reflectance(%)
-----------Spectrum Setting ------------
Integration Time : 30ms
Average : 10
Boxcar : 0
Background removal :  enabled
linearity correction :  enabled
SC :  disabled
Intensity correction :  disabled
DWT denoise :  enabled
savitzky-golay :  disabled
FFT :  disabled
Running average :  disabled
Kalman :  disabled
High pass :  disabled
---------------BEGIN--------------------
Wavelength(nm)             Reflectance(%)
200.29               0
200.75        54.20628
201.21        56.35239
201.67        61.35209
202.13         67.9348
202.58        75.05526
203.04        83.01256
203.50        89.82296
203.96        90.85769
204.42         86.3915
204.88        79.62829
205.34        73.34432
205.80         68.5574
206.26        64.38159
206.72        59.45243
207.18        53.74111
207.64         50.4634
208.10        52.91409
208.55        60.32069
209.01         67.2591
209.47         69.7427
209.93        68.21101
210.39        64.26397
210.85        59.98676
211.31        57.63958
211.77        57.48615
212.23        58.97172
212.69        61.39597
213.14        62.33831
213.60        60.57078
214.06        58.32373
214.52        56.81657
214.98         56.6611
215.44        57.66507
215.90        59.27027
216.36        61.58222
216.81        64.47565
217.27        67.28323
217.73        70.01405
218.19        71.44714
218.65        69.93097
219.11        65.32082
219.57        57.66765
220.02        48.91901
220.48        44.73167
220.94        47.00871
221.40        54.83683
221.86        64.51894
222.32        70.24259
222.77        70.57471
223.23        67.38953
223.69        63.55563
224.15        63.12527
224.61        66.18025
225.06        70.56277
225.52        74.35814
225.98        76.02195
226.44        75.60586
226.90        73.83904
227.36        71.66518
227.81        70.56762
228.27        71.18949
228.73        72.76079
229.19        74.28233
229.65         74.6151
230.10        73.72081
230.56         72.2824
231.02        70.94637
231.48        70.55984
231.93         71.0835
232.39        72.13104
232.85        73.14314
233.31        73.34067
233.77        72.54376
234.22        71.08193
234.68        69.19398
235.14        67.23344
235.60        65.48478
236.05        63.91327
236.51        62.78175
236.97        62.44244
237.43        62.97704
237.88         64.6626
238.34        67.05392
238.80        69.00251
239.26          69.516
239.71        68.56394
240.17        66.65804
240.63        65.31466
241.08         65.0178
241.54        65.38551
242.00        65.74733
242.46        64.70107
242.91         61.4902
243.37        55.42175
243.83        47.05414
244.28        42.09287
244.74        46.04036
245.20        57.61175
245.66        68.77922
246.11        72.80502
246.57        69.00344
247.03        57.70126
247.48        41.34025
247.94        35.27537
248.40        42.54431
248.85         52.7488
249.31        60.32088
249.77        63.92234
250.22        64.57331
250.68        63.48604
251.14        61.43969
251.59        59.93474
252.05        60.09982
252.51        61.79893
252.96        63.77967
253.42        64.08817
253.88        62.61203
254.33         60.3872
254.79        60.02582
255.25        63.86907
255.70        71.15891
256.16        79.90567
256.62        87.56164
257.07        91.35963
257.53        91.45673
257.99        89.09418
258.44        85.13934
258.90        81.63962
259.35        78.85522
259.81        77.17337
260.27        75.96188
260.72        74.69628
261.18        73.58858
261.63        72.23662
262.09        71.39323
262.55        71.46192
263.00        72.18114
263.46        73.39218
263.91        74.02267
264.37         73.2404
264.83        71.07769
265.28        67.96585
265.74        65.07418
266.19        63.48239
266.65        63.42406
267.11        64.28645
267.56        65.33935
268.02        65.57318
268.47        64.75778
268.93        63.26677
269.38         61.4397
269.84        60.03824
270.30        59.26995
270.75        58.89914
271.21        58.69618
271.66        58.30463
272.12        57.61557
272.57         56.7292
273.03        55.80582
273.48         54.9704
273.94        54.32151
274.39        53.75777
274.85        53.18768
275.31        52.40923
275.76        51.37027
276.22        50.17831
276.67        48.98528
277.13        48.16195
277.58         47.6808
278.04        47.48107
278.49        47.22556
278.95        46.54887
279.40        45.36245
279.86        43.92738
280.31        42.47678
280.77        41.51929
281.22        41.05081
281.68        40.94196
282.13        40.93574
282.59        40.72864
283.04        40.22335
283.50        39.57535
283.95        38.86313
284.41        38.26178
284.86        37.78405
285.32        37.40312
285.77        37.08322
286.22        36.86051
286.68        36.72781
287.13        36.65128
287.59        36.59003
288.04        36.42651
288.50        36.16438
288.95         35.7865
289.41        35.37848
289.86        34.98986
290.32        34.69218
290.77        34.46196
291.22        34.28849
291.68         34.1172
292.13        33.94518
292.59        33.82046
293.04        33.81523
293.50        34.06283
293.95         34.5612
294.40        35.24597
294.86        36.00746
295.31        36.68372
295.77         37.2288
296.22        37.68676
296.68        38.09237
297.13        38.48703
297.58        38.90591
298.04        39.34082
298.49        39.82478
298.95        40.45681
299.40        41.22091
299.85        42.08047
300.31        42.95193
300.76        43.68827
301.21        44.25776
301.67        44.73564
302.12        45.11896
302.58        45.48621
303.03        45.83837
303.48        46.17847
303.94        46.59165
304.39        47.15962
304.84        47.88964
305.30        48.73501
305.75        49.53599
306.20        50.07851
306.66        50.34259
307.11        50.37815
307.57        50.32178
308.02        50.29392
308.47        50.36657
308.93        50.49224
309.38        50.65881
309.83        50.91005
310.29        51.22787
310.74        51.60492
311.19        51.91602
311.65        51.95339
312.10        51.68264
312.55        51.16864
313.00        50.61211
313.46        50.32638
313.91        50.36059
314.36        50.64013
314.82        50.96923
315.27        51.05272
315.72        50.80232
316.18        50.33127
316.63        49.79069
317.08         49.4267
317.53        49.29647
317.99        49.30843
318.44        49.35672
318.89        49.26036
319.35        48.96819
319.80        48.54569
320.25        48.07288
320.70        47.67367
321.16        47.38005
321.61        47.16055
322.06        46.95628
322.51        46.68108
322.97         46.3047
323.42        45.86708
323.87          45.417
324.32        45.03794
324.78        44.74307
325.23        44.52271
325.68        44.30974
326.13        44.00219
326.59        43.58078
327.04        43.11287
327.49        42.66879
327.94        42.36848
328.39        42.23856
328.85        42.20753
329.30        42.27588
329.75        42.37267
330.20        42.45239
330.66        42.50605
331.11        42.48719
331.56        42.26013
332.01        41.81173
332.46        41.17565
332.92        40.48182
333.37        39.98476
333.82        39.76256
334.27        39.78272
334.72        39.93727
335.17        40.02303
335.63        39.95857
336.08        39.80214
336.53        39.64355
336.98        39.65461
337.43        39.86317
337.88        40.20163
338.34        40.48045
338.79        40.45316
339.24        40.05248
339.69        39.36483
340.14        38.63057
340.59        38.24874
341.05        38.31121
341.50        38.70766
341.95        39.19928
342.40        39.41361
342.85        39.26056
343.30         38.8635
343.75        38.38598
344.20        38.09437
344.66        38.05724
345.11        38.15267
345.56        38.29742
346.01        38.36266
346.46        38.30135
346.91        38.18387
347.36        37.98476
347.81        37.64843
348.26         37.2006
348.72        36.68407
349.17        36.21947
349.62        36.08217
350.07        36.31541
350.52        36.81247
350.97        37.38796
351.42        37.76437
351.87        37.85711
352.32        37.73294
352.77        37.44613
353.22        37.09313
353.67        36.72789
354.13        36.34922
354.58        35.96162
355.03        35.61823
355.48        35.33831
355.93        35.13004
356.38        35.00085
356.83        34.94614
357.28        34.94551
357.73        34.97804
358.18        34.99146
358.63        34.90778
359.08        34.70671
359.53        34.41222
359.98        34.05405
360.43        33.67841
360.88        33.31045
361.33        32.94859
361.78        32.62115
362.23         32.3732
362.68        32.20964
363.13        32.11162
363.58        32.03976
364.03        31.92953
364.48        31.75196
364.93        31.51139
365.38        31.20248
365.83        30.82827
366.28        30.40453
366.73        29.94325
367.18        29.47637
367.63        29.05032
368.08        28.68408
368.53        28.37819
368.98        28.12792
369.43        27.91453
369.88        27.72824
370.33         27.5727
370.78         27.4359
371.23        27.30123
371.68        27.16269
372.13        27.01226
372.58        26.86746
373.03        26.76503
373.48        26.70494
373.93        26.66847
374.38        26.61149
374.83        26.46624
375.28        26.21955
375.72        25.88742
376.17        25.53417
376.62        25.22154
377.07        24.98204
377.52        24.80745
377.97        24.68907
378.42        24.61069
378.87        24.55789
379.32        24.52291
379.77        24.50547
380.22        24.50388
380.67        24.50781
381.11        24.51597
381.56        24.47093
382.01        24.30306
382.46        24.00942
382.91        23.61867
383.36        23.22847
383.81        22.98425
384.26        22.91467
384.71        22.98333
385.15        23.08737
385.60         23.0715
386.05        22.90051
386.50        22.62451
386.95         22.3407
387.40        22.20365
387.85        22.24161
388.29        22.38648
388.74        22.54985
389.19        22.59732
389.64        22.49781
390.09         22.2908
390.54        22.03987
390.98        21.83668
391.43        21.73261
391.88        21.69336
392.33        21.67004
392.78        21.59235
393.23        21.45391
393.67        21.26814
394.12        21.12576
394.57         21.0815
395.02        21.14364
395.47        21.28456
395.91        21.44305
396.36        21.48929
396.81        21.39974
397.26        21.20766
397.71        20.99298
398.15         20.8591
398.60        20.85458
399.05        20.93526
399.50        21.02799
399.95        21.02728
400.39        20.91127
400.84        20.70641
401.29        20.49658
401.74         20.4335
402.18        20.55683
402.63        20.80753
403.08        21.05723
403.53         21.1025
403.97        20.90669
404.42        20.55028
404.87        20.17399
405.32        20.00878
405.76        20.10581
406.21        20.38346
406.66        20.72008
407.11        20.92658
407.55         20.9507
408.00        20.85563
408.45        20.69473
408.90        20.50855
409.34        20.35566
409.79        20.31644
410.24        20.35133
410.68        20.31508
411.13        20.20264
411.58        20.10323
412.03        20.03543
412.47        19.99793
412.92        19.99416
413.37         20.0146
413.81        20.07108
414.26        20.19968
414.71        20.38821
415.15        20.62648
415.60        20.82747
416.05        20.88001
416.49        20.75824
416.94        20.50321
417.39        20.19936
417.83        19.98492
418.28        19.90751
418.73        19.92376
419.17        19.98901
419.62        20.02054
420.07        19.99684
420.51        19.94603
420.96         19.8861
421.41         19.8197
421.85        19.74925
422.30        19.68587
422.74        19.63907
423.19        19.65864
423.64        19.74036
424.08        19.87848
424.53         20.0239
424.98        20.12079
425.42        20.15212
425.87        20.13526
426.31        20.07915
426.76        20.00819
427.21        19.92382
427.65        19.81173
428.10         19.7185
428.54        19.69652
428.99        19.75904
429.44        19.97567
429.88        20.21576
430.33        20.14093
430.77        19.81146
431.22        19.63659
431.66        19.66886
432.11        19.76029
432.56        19.88172
433.00        20.12135
433.45        20.29944
433.89         20.1709
434.34        19.88243
434.78        19.62329
435.23        19.34566
435.67        20.30133
436.12        19.64289
436.57        19.49774
437.01        19.15023
437.46        19.03522
437.90        19.18212
438.35        19.39946
438.79        19.59248
439.24         19.6984
439.68        19.68667
440.13        19.42233
440.57        19.06128
441.02        19.15737
441.46        19.54725
441.91        19.60822
442.35        18.87347
442.80        18.64753
443.24        18.73497
443.69        18.72732
444.13        18.59727
444.58        18.50918
445.02        18.47308
445.47        18.49566
445.91        18.54107
446.36        18.50986
446.80        18.38822
447.24        18.23008
447.69        18.09124
448.13        18.01751
448.58        18.02856
449.02        18.10284
449.47        18.19269
449.91        18.21369
450.36        18.15266
450.80        18.03348
451.25        17.90808
451.69         17.8388
452.13        17.84633
452.58        17.89921
453.02        17.97066
453.47        18.02261
453.91        18.04218
454.36        18.04215
454.80        18.01701
455.24        17.95516
455.69        17.86975
456.13        17.74899
456.58        17.63995
457.02        17.60315
457.46         17.6438
457.91        17.70057
458.35        17.74753
458.79        17.79054
459.24        17.81454
459.68        17.82166
460.13        17.85931
460.57        17.83114
461.01        17.72327
461.46        18.02389
461.90        18.03992
462.34        17.80621
462.79        17.92093
463.23        17.77681
463.68          17.663
464.12        17.57879
464.56        17.67414
465.01         17.8187
465.45        17.95187
465.89        18.00379
466.34        17.96741
466.78        17.80572
467.22        17.60545
467.67        17.63267
468.11        17.85899
468.55        17.91885
468.99        17.80541
469.44        17.79969
469.88        17.90318
470.32         17.9447
470.77        17.91341
471.21        17.88478
471.65        17.86188
472.10        17.82025
472.54        17.77477
472.98        17.78822
473.42        17.86292
473.87        17.93398
474.31        17.97246
474.75        18.04159
475.20        18.09868
475.64         17.9635
476.08        17.72615
476.52        17.67983
476.97        17.84606
477.41        18.09563
477.85        18.33791
478.29         18.4773
478.74        18.48219
479.18        18.35023
479.62        18.18381
480.06        18.14398
480.50        18.23513
480.95         18.3411
481.39         18.4151
481.83        18.42116
482.27        18.33744
482.72        18.37668
483.16        18.21613
483.60        18.21922
484.04        18.29407
484.48        18.49927
484.93        18.82305
485.37        18.95206
485.81         19.0911
486.25         19.4617
486.69        19.99356
487.14        19.68437
487.58        19.45038
488.02        20.13097
488.46        19.53693
488.90        19.46329
489.34        19.25319
489.79        19.38804
490.23        19.77387
490.67        20.04943
491.11        20.13951
491.55        20.01915
491.99        19.77229
492.43        19.66843
492.88        19.75619
493.32        19.86158
493.76        19.96745
494.20        20.13043
494.64        20.34017
495.08        20.57342
495.52        20.80375
495.96        21.00656
496.41        21.17405
496.85        21.27074
497.29        21.31935
497.73        21.46018
498.17        21.67015
498.61        21.72367
499.05        21.65378
499.49        21.73351
499.93        21.98315
500.37        22.20444
500.82        22.37557
501.26        22.64607
501.70        22.94885
502.14         22.9855
502.58        22.80816
503.02        22.76046
503.46        22.87152
503.90        22.96568
504.34        23.00749
504.78        23.01722
505.22        22.98872
505.66        22.92825
506.10        22.87259
506.54        22.87411
506.98        22.94814
507.42        23.08397
507.86        23.25196
508.30        23.40256
508.74        23.51724
509.18        23.60019
509.62        23.67619
510.06        23.78629
510.50        23.93691
510.94        24.11609
511.38        24.27135
511.82        24.32008
512.26        24.24978
512.70        24.08824
513.14        23.91976
513.58        23.87238
514.02        23.96702
514.46        24.16786
514.90        24.38962
515.34        24.43156
515.78        24.29976
516.22        24.10738
516.66        23.95658
517.10        23.67193
517.54        23.28255
517.98        23.85409
518.42        23.75691
518.86        24.00174
519.30        24.08374
519.74        24.17105
520.18        24.23376
520.62        24.20182
521.06        24.09106
521.50        23.90633
521.93        23.70443
522.37        23.58801
522.81        23.57987
523.25        23.65371
523.69        23.76092
524.13        23.82321
524.57        23.81596
525.01         23.7579
525.45        23.67654
525.89        23.61533
526.32        23.58628
526.76        23.57891
527.20        23.56275
527.64        23.49637
528.08        23.37234
528.52        23.20202
528.96        23.03703
529.40         22.9525
529.83        22.95955
530.27        23.04336
530.71        23.12366
531.15        23.07514
531.59        22.88045
532.03        22.58422
532.46        22.29111
532.90         22.1832
533.34        22.28475
533.78        22.52739
534.22         22.8027
534.66        22.94477
535.09        22.90695
535.53        22.75241
535.97        22.53547
536.41        22.33919
536.85        22.19925
537.28        22.10249
537.72        22.06152
538.16        22.02905
538.60        22.10854
539.04        22.20647
539.47        22.31748
539.91        22.43861
540.35        22.57189
540.79        22.52076
541.22        22.59703
541.66        22.67536
542.10        22.86736
542.54        22.79456
542.97        23.03584
543.41        23.12969
543.85        23.23432
544.29        23.30328
544.72         23.3429
545.16        23.42867
545.60        23.56128
546.04        23.64841
546.47        23.72561
546.91        23.99869
547.35        24.39401
547.79        24.61349
548.22         24.6503
548.66        24.65876
549.10        24.69644
549.53        24.91569
549.97        25.29796
550.41        25.35135
550.84        25.53086
551.28        25.59957
551.72         25.7436
552.15        25.94571
552.59        26.21425
553.03        26.53582
553.46        26.83595
553.90        27.03134
554.34        27.10413
554.77        27.08257
555.21        27.03763
555.65        27.06965
556.08        27.19872
556.52        27.38898
556.96        27.59272
557.39        27.77103
557.83        27.89652
558.27        27.92155
558.70        27.87838
559.14        27.87302
559.57        27.91366
560.01        27.98435
560.45        28.06251
560.88        28.07771
561.32        28.08118
561.75        28.15774
562.19        28.39445
562.63        28.51138
563.06        28.53139
563.50        28.56459
563.93        28.62106
564.37        28.75208
564.80        28.82845
565.24        28.96787
565.68        29.10219
566.11        29.22127
566.55        29.34045
566.98        29.40894
567.42        29.42006
567.85        29.74168
568.29        29.60986
568.72        29.91364
569.16        30.35324
569.60         30.6734
570.03        30.82704
570.47        30.99125
570.90        31.02649
571.34        31.43423
571.77        31.21539
572.21        31.62422
572.64         31.7286
573.08        31.90769
573.51         32.0849
573.95        32.49099
574.38        32.89701
574.82        33.14545
575.25        33.16938
575.69        33.03266
576.12        33.09763
576.56         32.9787
576.99        32.82076
577.42         33.0684
577.86         33.3098
578.29        33.17629
578.73        33.69897
579.16        33.43919
579.60        33.22083
580.03        32.81483
580.47        32.87276
580.90        32.67697
581.33        32.33643
581.77        32.44754
582.20        33.07642
582.64        32.59768
583.07        32.33295
583.51        32.38605
583.94        31.75024
584.37        31.47144
584.81        31.26762
585.24        31.20121
585.68        31.23422
586.11        31.07599
586.54        31.04172
586.98        30.92423
587.41        30.85619
587.85        30.88898
588.28        30.96643
588.71         30.8086
589.15        30.48447
589.58        30.06645
590.01        30.43426
590.45        30.31227
590.88        30.57804
591.31        30.35662
591.75        29.90329
592.18        29.98581
592.61        29.95685
593.05        30.40097
593.48        30.42043
593.91        31.16658
594.35        30.69109
594.78        30.80625
595.21         31.2248
595.65        31.44236
596.08        31.34149
596.51        31.27036
596.94        31.26743
597.38        31.38674
597.81        31.69307
598.24        31.74899
598.68        32.43869
599.11        32.47979
599.54        33.61626
599.97        33.35069
600.41        33.90554
600.84        34.30193
601.27        34.72148
601.70        35.10606
602.14         35.3543
602.57        35.87266
603.00        36.48145
603.43        36.97004
603.87        37.23119
604.30        37.66905
604.73        38.27475
605.16        38.48879
605.60         38.9385
606.03        39.39058
606.46        40.10207
606.89        40.88228
607.32        41.33545
607.76        41.51339
608.19        42.10146
608.62        42.34949
609.05        42.52825
609.48        42.78601
609.92        43.25978
610.35        43.52975
610.78        44.26887
611.21        45.01236
611.64        44.92101
612.07        45.34538
612.50        45.72988
612.94        45.72102
613.37        46.31089
613.80         46.6015
614.23        46.89921
614.66        47.46369
615.09        47.82056
615.52        48.28587
615.96         48.6049
616.39        48.97564
616.82         49.4148
617.25        48.88886
617.68        49.44703
618.11        49.78127
618.54        50.37365
618.97        50.59473
619.40         50.4098
619.84        50.61607
620.27        50.16494
620.70        50.53893
621.13        51.26075
621.56        51.54213
621.99        51.45676
622.42         51.4404
622.85        51.59795
623.28         51.7515
623.71        51.89708
624.14        51.93178
624.57         51.9333
625.00        51.73852
625.43        51.94454
625.86        51.28818
626.29        51.25345
626.72        51.02273
627.15        50.97676
627.58        50.86406
628.01        50.51767
628.44        50.98381
628.87        50.36133
629.30        49.67758
629.73         49.4735
630.16        48.95283
630.59        48.88764
631.02        48.57667
631.45        48.16219
631.88        47.75331
632.31        47.33338
632.74        46.81363
633.17        46.21458
633.60        45.58957
634.03        45.06159
634.46        44.52224
634.89          44.004
635.32         43.5067
635.75        43.03043
636.18        42.58508
636.61        42.15353
637.04        41.70182
637.47        41.22104
637.89        40.72018
638.32        40.21866
638.75        39.77685
639.18        39.41219
639.61         39.1164
640.04        38.85816
640.47        38.56315
640.90        38.21564
641.33         37.8746
641.76        37.59127
642.18        37.26645
642.61        37.20442
643.04        37.14351
643.47        37.13748
643.90        37.12355
644.33        37.08796
644.76        37.05136
645.18        37.01851
645.61        37.00716
646.04        37.02717
646.47        37.07127
646.90        37.17267
647.33        37.38516
647.75        37.71709
648.18        38.15308
648.61        38.63104
649.04         39.0518
649.47        39.39787
649.89        39.67966
650.32        39.97823
650.75        40.47506
651.18        41.19764
651.61        41.95462
652.03        42.67235
652.46        43.58706
652.89        44.62737
653.32          44.954
653.74          44.713
654.17        45.83398
654.60        46.68296
655.03        47.61193
655.46        47.25558
655.88         49.1366
656.31        50.74614
656.74        57.97725
657.16         56.3432
657.59        52.84926
658.02         52.5999
658.45        52.32832
658.87        53.29983
659.30        53.97552
659.73        54.91755
660.15        55.49453
660.58        55.70194
661.01        55.63327
661.44        55.47646
661.86        55.73421
662.29        56.40088
662.72        57.17597
663.14        57.87805
663.57        58.10759
664.00           57.99
664.42        58.18649
664.85        58.75835
665.27         59.2471
665.70        59.58078
666.13        59.90521
666.55        60.21073
666.98        60.44927
667.41        60.63457
667.83        60.78877
668.26        60.91558
668.69        61.02423
669.11        61.13843
669.54        61.29115
669.96        61.50723
670.39         61.7664
670.82        62.02528
671.24        62.33131
671.67        62.71581
672.09        62.74478
672.52        62.94096
672.94        63.51835
673.37        63.61039
673.80         63.5487
674.22        63.18525
674.65        63.10608
675.07          63.366
675.50        63.66798
675.92        63.92973
676.35        64.08131
676.77         64.0965
677.20        64.01109
677.62        63.89017
678.05        63.84343
678.47        63.90099
678.90        64.03619
679.32        64.24097
679.75         64.4922
680.17        64.75935
680.60        65.07803
681.02        65.40534
681.45        65.52471
681.87        65.47749
682.30        65.59846
682.72        65.83983
683.15        65.76417
683.57        65.49427
684.00        65.44843
684.42        65.70005
684.85        66.29731
685.27        66.15001
685.70        66.41583
686.12        66.71414
686.54        66.88898
686.97         66.9138
687.39        66.81821
687.82        66.67193
688.24        66.68435
688.66        66.84302
689.09        66.90461
689.51        66.87836
689.94        66.94427
690.36        67.11111
690.78        67.23487
691.21        67.30858
691.63        67.47543
692.06        67.70699
692.48        67.82182
692.90        67.57478
693.33        67.97488
693.75        67.79503
694.17         67.8873
694.60        67.89268
695.02        67.85539
695.44         67.7728
695.87        67.76734
696.29        67.78827
696.71        67.67159
697.14         67.3679
697.56        67.47057
697.98        68.37357
698.41        69.23567
698.83        68.79774
699.25        68.60782
699.68         68.3286
700.10        68.69453
700.52        68.39977
700.94        68.56618
701.37        68.73946
701.79        68.88857
702.21        68.95741
702.64        68.97635
703.06        69.00417
703.48        69.10837
703.90        69.30553
704.33        69.56171
704.75        69.78879
705.17        69.81391
705.59        69.61214
706.01         69.2478
706.44         68.8891
706.86        68.79636
707.28        69.01766
707.70        69.47964
708.12        70.02833
708.55        70.37064
708.97        70.45924
709.39        70.47879
709.81        70.46812
710.23        70.40423
710.66        70.32226
711.08        70.25829
711.50        70.23151
711.92        70.26479
712.34        70.36477
712.76        70.54275
713.19        70.72823
713.61        70.85544
714.03        70.88039
714.45        70.81844
714.87        70.74581
715.29        70.81388
715.71        71.05051
716.13        71.29116
716.56        71.64149
716.98        71.84481
717.40        71.89608
717.82        71.82754
718.24        71.70061
718.66        71.61117
719.08        71.59023
719.50        71.61335
719.92        71.65363
720.34        71.66656
720.76        71.64193
721.19        71.59831
721.61         71.5702
722.03        71.57079
722.45        71.62687
722.87         71.7117
723.29        71.81754
723.71        71.92403
724.13        72.02607
724.55        72.13268
724.97        72.24746
725.39        72.37127
725.81        72.49256
726.23        72.62713
726.65        72.79134
727.07         72.9176
727.49        72.97932
727.91        73.38024
728.33        73.36658
728.75        73.44688
729.17         73.4062
729.59        73.29501
730.01        73.15331
730.43        73.11784
730.85        73.23338
731.27        73.31108
731.69        73.34087
732.10        73.82589
732.52        74.15904
732.94        74.23975
733.36        73.94462
733.78        73.83159
734.20        73.97476
734.62        73.96599
735.04        73.72449
735.46        74.09696
735.88        73.77585
736.30        73.54019
736.72        73.53972
737.13        73.64589
737.55        73.91961
737.97         74.3332
738.39        74.71451
738.81        74.66422
739.23        74.34573
739.65        74.22321
740.06        74.16306
740.48        74.90529
740.90        74.58555
741.32        73.67435
741.74        73.94331
742.16        73.78743
742.57        73.90633
742.99        74.13541
743.41        74.42266
743.83        74.61123
744.25        74.63446
744.67        74.53341
745.08        74.37222
745.50        74.23293
745.92        74.16556
746.34         74.1447
746.75        74.13436
747.17        74.08253
747.59        73.98513
748.01        73.87592
748.42        73.81468
748.84        73.87784
749.26        74.08861
749.68        74.33334
750.09        74.56628
750.51        74.86208
750.93        75.11909
751.35        75.04001
751.76        74.68504
752.18         74.4396
752.60        74.33173
753.01        74.26065
753.43        74.24538
753.85        74.23602
754.27        74.19276
754.68        74.89156
755.10         74.8944
755.52        75.15233
755.93        75.22853
756.35        75.21305
756.77        75.15555
757.18        75.13252
757.60        75.23274
758.02        75.40499
758.43        75.38802
758.85        75.49695
759.26        76.26726
759.68        75.12103
760.10        75.91089
760.51        75.54987
760.93        75.27842
761.34        74.69707
761.76        74.97115
762.18        74.65147
762.59        74.23058
763.01        74.10944
763.42        74.57211
763.84        75.29278
764.26        75.71815
764.67        75.56445
765.09        74.99416
765.50         75.3373
765.92        76.42081
766.33        76.67256
766.75        76.01221
767.16        75.66799
767.58        75.66512
768.00        75.26542
768.41        74.69756
768.83        74.75784
769.24        75.40211
769.66        76.16528
770.07        76.76192
770.49        76.71147
770.90        76.18384
771.32        76.22485
771.73         76.7931
772.15        76.85609
772.56        76.41399
772.97        76.13143
773.39        76.03114
773.80        75.85715
774.22        75.60193
774.63        75.37338
775.05        75.23609
775.46        75.29813
775.88        75.54631
776.29        75.97597
776.70        76.39707
777.12        76.52962
777.53         76.3269
777.95        75.83926
778.36        75.28655
778.77         75.0536
779.19        75.23748
779.60        75.77628
780.02        76.38727
780.43        76.80334
780.84        76.93783
781.26        76.45572
781.67        75.73801
782.09        76.40612
782.50        78.04814
782.91        78.18579
783.33        76.91549
783.74        76.50642
784.15        77.03906
784.57         77.2132
784.98        76.95023
785.39        76.69849
785.81        76.48899
786.22         76.2899
786.63        76.14928
787.04         76.1213
787.46        76.22701
787.87        76.41945
788.28        76.62875
788.70        77.03801
789.11        77.05366
789.52        77.13811
789.93        77.16203
790.35        77.20979
790.76        77.26089
791.17        77.24586
791.58        77.17161
792.00        76.91495
792.41        76.48138
792.82        76.53217
793.23        76.36053
793.65         75.9274
794.06        75.33007
794.47        75.78045
794.88         77.0243
795.29        77.92862
795.71        77.93657
796.12        77.78805
796.53        77.78559
796.94        77.22971
797.35        76.47278
797.76        76.34251
798.18        76.78767
798.59        76.98715
799.00        76.87532
799.41        76.99691
799.82        77.31946
800.23        77.50352
800.64        77.51131
801.06        77.39211
801.47        77.26385
801.88        77.25762
802.29        77.39767
802.70        77.61752
803.11        77.80882
803.52        77.79116
803.93        77.54109
804.34         77.1779
804.75        76.80222
805.17        76.53454
805.58        76.49549
805.99        76.59869
806.40        76.85933
806.81        77.47356
807.22        78.49529
807.63        78.38566
808.04        77.17194
808.45        76.85788
808.86        77.50967
809.27        78.26448
809.68        78.87402
810.09        79.27498
810.50        79.34969
810.91         79.1551
811.32        78.80807
811.73        78.43187
812.14        78.08703
812.55        77.84019
812.96        77.67268
813.37        77.34955
813.78        77.01492
814.19        77.08723
814.60        77.40852
815.01        77.69857
815.42        77.89267
815.83        76.92533
816.24        77.36543
816.65         77.2796
817.05          77.468
817.46        77.79078
817.87        78.14867
818.28        78.29076
818.69        78.15888
819.10        77.85426
819.51        77.51814
819.92        77.47384
820.33        77.81376
820.74        78.23568
821.14        78.65284
821.55          79.355
821.96        80.07137
822.37         79.8151
822.78        78.79688
823.19        78.31049
823.60        78.50212
824.00         78.7075
824.41        78.75981
824.82         78.7991
825.23        78.78217
825.64        78.70056
826.04        78.61459
826.45        78.56168
826.86        78.56911
827.27        78.62058
827.68        78.69147
828.08        78.76839
828.49        78.78122
828.90         78.7647
829.31         78.7373
829.72        78.72811
830.12        78.76388
830.53        78.80348
830.94        78.82199
831.35        78.75117
831.75        78.60815
832.16        78.37205
832.57        78.14767
832.97        78.08831
833.38        78.20351
833.79        78.44193
834.20        78.69919
834.60        78.80413
835.01         78.7327
835.42        78.54791
835.82        78.30645
836.23        78.04875
836.64          77.832
837.04         77.6332
837.45          77.513
837.86        77.61613
838.26        77.97034
838.67        78.51357
839.08         79.0639
839.48        79.26199
839.89        79.02138
840.29        78.46864
840.70        77.90829
841.11        77.71971
841.51        78.00313
841.92        78.58269
842.33        79.32252
842.73        79.98519
843.14         80.3645
843.54        80.59761
843.95        80.60499
844.35         80.3493
844.76        79.87604
845.17         79.2254
845.57        78.58855
845.98        78.29097
846.38        78.39738
846.79        78.82104
847.19        79.45619
847.60        79.94254
848.00        80.21572
848.41        80.29813
848.81        80.30184
849.22         80.3277
849.62        80.45128
850.03        80.55869
850.43        80.67443
850.84        80.74183
851.24        80.81178
851.65        80.85865
852.05        80.88557
852.46        80.85452
852.86        80.78863
853.27        80.47916
853.67        80.01862
854.07        80.27051
854.48        80.96153
854.88         80.7254
855.29        79.64905
855.69        79.29024
856.10        79.69524
856.50        80.08456
856.90        80.27579
857.31        80.41364
857.71        80.51526
858.12         80.4744
858.52        80.36179
858.92        80.17797
859.33        79.92418
859.73        79.65307
860.13         79.4273
860.54        79.36981
860.94        79.57523
861.34        79.96292
861.75        80.36933
862.15        80.62351
862.55        80.62109
862.96        80.43056
863.36        80.11858
863.76        79.77223
864.17        79.44768
864.57        79.15787
864.97        78.96111
865.38        78.92545
865.78        79.10459
866.18        79.40703
866.58        79.73501
866.99        79.91016
867.39        79.91068
867.79        79.74773
868.19         79.3452
868.60        78.57154
869.00        77.41673
869.40        75.97585
869.80        74.61676
870.21        73.95229
870.61        74.18996
871.01        75.11229
871.41        76.26441
871.81         76.9028
872.22         76.8499
872.62        76.33346
873.02        75.61187
873.42        75.28674
873.82        75.34663
874.22         75.1935
874.63        74.96076
875.03        75.03387
875.43        75.42095
875.83        76.83202
876.23        76.84645
876.63        76.51906
877.03        75.43047
877.44        73.64753
877.84        124.4001
878.24        73.90844
878.64        75.05138
879.04        78.22379
879.44        75.58295
879.84        73.84946
880.24        76.92254
880.64        76.57835
881.04        73.67323
881.44        71.94341
881.84        72.05807
882.24        73.37668
882.65         75.1375
883.05        75.96169
883.45        75.40912
883.85        74.16022
884.25        72.87909
884.65        72.32738
885.05        72.71404
885.45         73.7646
885.85        75.01527
886.25        75.71309
886.65        75.63426
887.05        75.03499
887.45         74.2896
887.85         73.9463
888.25        74.14689
888.65        74.70387
889.04        75.38598
889.44        75.72956
889.84         75.6275
890.24        75.22679
890.64         74.7111
891.04        74.34123
891.44        74.16467
891.84        74.05605
892.24        73.92159
892.64        73.61678
893.04        73.13744
893.44        72.63748
893.83        72.09774
894.23        71.50316
894.63        70.86835
895.03        70.17373
895.43        69.69363
895.83        69.89253
896.23        70.80959
896.63        72.28239
897.02        73.77822
897.42        74.32922
897.82        73.72974
898.22        72.30386
898.62        70.62093
899.01        69.55578
899.41        69.38223
899.81        69.81224
900.21         70.6181
900.61        71.45315
901.00        72.16093
901.40        72.82027
901.80        73.38361
902.20        73.73978
902.59        73.87304
902.99        73.76651
903.39        73.45487
903.79        73.03568
904.18        72.56774
904.58        72.10084
904.98        71.75972
905.38        71.72502
905.77        72.00632
906.17        72.56025
906.57        73.17215
906.96        73.52346
907.36        73.48916
907.76        73.13676
908.15        72.67149
908.55        72.37959
908.95        72.36175
909.34        72.57716
909.74        72.78828
910.14        72.58637
910.53        71.89624
910.93         70.9184
911.33        70.08122
911.72         70.0637
912.12        70.93055
912.52        72.36343
912.91        73.85548
913.31        74.54477
913.70        74.27921
914.10        73.31136
914.49        71.90358
914.89        70.68957
915.29        69.97497
915.68        69.60737
916.08        69.64668
916.47        70.14284
916.87        70.98676
917.26        72.13966
917.66        73.26942
918.05        73.85406
918.45         73.7391
918.84        73.10852
919.24         72.1384
919.64        71.16573
920.03        70.36029
920.42         69.6636
920.82        69.29498
921.21        69.53123
921.61        70.32495
922.00        71.64342
922.40        72.97968
922.79        73.72414
923.19            73.7
923.58        72.86717
923.98        71.53085
924.37        70.90697
924.77        71.45099
925.16        69.85247
925.55        71.43232
925.95        71.44593
926.34         71.4584
926.74        71.41045
927.13        71.46196
927.52        71.64915
927.92        71.94259
928.31        72.37978
928.70        72.80145
929.10        72.97852
929.49        72.85683
929.89        72.48541
930.28        72.11909
930.67        72.16386
931.07        72.66532
931.46        73.53927
931.85        74.40457
932.24        74.70856
932.64        74.31625
933.03        73.29355
933.42        72.00294
933.82        71.21075
934.21        71.12728
934.60        71.57065
934.99        71.91194
935.39         71.5162
935.78        70.30648
936.17        67.96198
936.56        64.87609
936.96        65.62968
937.35        65.29771
937.74        67.60713
938.13        70.00289
938.53         71.5774
938.92        72.21536
939.31        72.24939
939.70        71.93762
940.09        71.62751
940.49        71.51172
940.88        71.47675
941.27        71.56556
941.66        71.90045
942.05        72.45409
942.44        73.18108
942.84        73.94725
943.23        74.51429
943.62        74.77754
944.01        74.83923
944.40        74.61518
944.79        73.98626
945.18        72.98381
945.57        71.61319
945.97        70.36654
946.36        70.06924
946.75        70.93427
947.14        72.65314
947.53        74.44576
947.92        75.23972
948.31        74.85753
948.70        73.61889
949.09        72.07253
949.48        71.19369
949.87        71.28593
950.26        72.03937
950.65        73.05539
951.04        73.67764
951.43        73.67889
951.82        73.27694
952.21        72.66479
952.60        72.12212
952.99        71.76915
953.38        71.52824
953.77        71.33604
954.16        71.11958
954.55        70.86053
954.94        70.58939
955.33        70.43473
955.72        70.57765
956.11        71.05246
956.50         71.8302
956.89          72.619
957.28        72.88641
957.66        72.51653
958.05         71.6099
958.44        70.65217
958.83        70.30202
959.22        70.64967
959.61         71.5134
960.00        72.40354
960.39        72.43919
960.78        71.41341
961.16        69.63257
961.55        67.76048
961.94        66.66458
962.33        66.56863
962.72        67.22426
963.11        68.21696
963.49        68.84988
963.88        68.81075
964.27        68.34177
964.66        67.76035
965.04        67.58247
965.43        67.93413
965.82        68.63683
966.21        69.39491
966.60        69.75778
966.98         69.6293
967.37        69.14362
967.76        68.62356
968.15        68.55385
968.53        69.04926
968.92        69.85168
969.31        70.67409
969.69        71.04276
970.08         70.7677
970.47        70.05853
970.86        69.05754
971.24        67.95865
971.63        66.94066
972.02         65.9837
972.40        65.22823
972.79        64.92957
973.17        65.15993
973.56         65.7773
973.95        66.67165
974.33        67.60097
974.72        68.30435
975.11        68.79761
975.49        68.94523
975.88        68.56097
976.26        67.68382
976.65        66.45347
977.04        65.08499
977.42        63.97425
977.81         63.2943
978.19        62.93215
978.58        63.00893
978.96        63.70831
979.35        64.91737
979.74        66.67956
980.12        68.42799
980.51         68.9006
980.89         67.9879
981.28        66.02389
981.66        64.00687
982.05         63.3514
982.43         64.2493
982.82        66.23804
983.20        68.60323
983.59        69.74294
983.97        69.25438
984.35        67.54765
984.74        65.36594
985.12        63.76006
985.51        63.06699
985.89        62.96608
986.28        63.21798
986.66        63.44147
987.04        63.40623
987.43        63.36658
987.81        63.23341
988.20        62.85127
988.58        62.14371
988.96        60.95797
989.35        59.56559
989.73        58.91139
990.12        59.40871
990.50        60.87522
990.88        62.36982
991.27        62.79014
991.65        62.17435
992.03        60.78676
992.42        59.42994
992.80         59.6272
993.18        61.71804
993.56        64.88432
993.95        68.04239
994.33        70.12341
994.71        70.73531
995.10        70.31873
995.48         69.1665
995.86        67.59962
996.24        65.82072
996.63        63.71593
997.01        61.59034
997.39         60.4244
997.77        60.59465
998.15        61.75573
998.54        63.34152
998.92        64.72382
999.30        65.82191
999.68        66.94534
1000.06        67.48152
1000.45        65.99148
1000.83        62.62431
1001.21         58.3855
1001.59        55.07054
1001.97         53.9874
1002.35        54.91127
1002.73        57.52543
1003.12        60.92282
1003.50        62.82233
1003.88        62.03394
1004.26        59.26324
1004.64        55.70316
1005.02        53.04043
1005.40        51.75811
1005.78        51.35145
1006.16        51.80198
1006.54        52.99463
1006.92        54.47524
1007.30         56.0467
1007.69        57.24982
1008.07        57.79553
1008.45        57.58717
1008.83        56.62244
1009.21        54.47602
1009.59         50.9453
1009.97        46.65359
1010.35         42.2623
1010.73         39.7477
1011.11        40.72668
1011.49         44.6861
1011.86        50.98254
1012.24        56.60735
1012.62        58.71931
1013.00        57.18009
1013.38         53.0364
1013.76        48.13204
1014.14        45.75401
1014.52        46.83096
1014.90        50.31854
1015.28        54.51883
1015.66        56.61482
1016.04        55.59077
1016.41        52.08062
1016.79         46.9099
1017.17        42.59661
1017.55        40.70105
1017.93        40.53587
1018.31        41.25398
1018.69        42.00893
1019.06        42.49806
1019.44        42.70303
1019.82        42.75958
1020.20        42.71487
1020.58        42.54607
1020.95        42.30772
1021.33        41.13088
1021.71        36.93884
1022.09        27.94017
1022.46         9.37739
1022.84       -19.85427
1023.22       -31.79642
1023.60       -8.308879
1023.97        20.78262
1024.35        37.87685
1024.73        43.67985
