SpectraSmart Spectrum 2.9.0.0
--------- Device Information -----------
Spectrum Name :  反射率_0
Saving Time :  2024/04/20 00:40:26
Spectro-Module Model Name : SE2030-DUVN
Spectro-Module Serial Number : OS361AC55029948
Wavelength Start : 200
Wavelength End : 1025
Wavelength Unit : Wavelength(nm)
Spectrum Unit : Reflectance(%)
-----------Spectrum Setting ------------
Integration Time : 30ms
Average : 10
Boxcar : 0
Background removal :  enabled
linearity correction :  enabled
SC :  disabled
Intensity correction :  disabled
DWT denoise :  enabled
savitzky-golay :  disabled
FFT :  disabled
Running average :  disabled
Kalman :  disabled
High pass :  disabled
---------------BEGIN--------------------
Wavelength(nm)             Reflectance(%)
200.29               0
200.75        56.36884
201.21        58.24309
201.67        62.69118
202.13        69.14781
202.58        76.91938
203.04        86.18246
203.50        93.98398
203.96        93.90517
204.42        86.59504
204.88        76.73638
205.34        68.19276
205.80        62.33113
206.26        58.05036
206.72         54.0055
207.18        49.97609
207.64        47.70734
208.10        49.17457
208.55         53.9579
209.01        58.89151
209.47        62.10593
209.93        63.53241
210.39        63.70053
210.85        62.75361
211.31        60.76132
211.77        57.64524
212.23         52.9507
212.69        47.39267
213.14        45.02881
213.60        47.24459
214.06        52.08203
214.52        56.78773
214.98        60.10159
215.44        62.39515
215.90        63.96553
216.36        65.50877
216.81        68.03334
217.27        71.23423
217.73        74.59127
218.19        76.11574
218.65        73.11721
219.11        65.19082
219.57        52.65672
220.02        38.17902
220.48        29.22613
220.94        28.75728
221.40        35.68779
221.86        45.67842
222.32        51.65582
222.77         51.7524
223.23        48.13195
223.69        43.91692
224.15        43.52742
224.61        46.89503
225.06        51.47648
225.52        55.04997
225.98        55.91321
226.44        54.08937
226.90        50.47628
227.36        46.04902
227.81        42.54377
228.27        41.02328
228.73        40.87779
229.19        41.52253
229.65        42.22555
230.10        42.74808
230.56        43.26491
231.02        43.90384
231.48        44.82038
231.93        45.94969
232.39         47.1727
232.85        48.14988
233.31        48.41952
233.77        47.90782
234.22        46.74788
234.68        45.36703
235.14        44.42374
235.60        44.15123
236.05        44.42739
236.51        44.95343
236.97        45.21347
237.43        45.09871
237.88        44.87801
238.34        44.72707
238.80        45.44657
239.26        47.32378
239.71        49.86744
240.17        52.54787
240.63        55.28077
241.08         58.0571
241.54        60.83873
242.00        62.90895
242.46         62.8577
242.91        59.98313
243.37        53.32433
243.83        43.39173
244.28          36.787
244.74        40.14004
245.20        52.46996
245.66        64.92986
246.11        69.62759
246.57        65.79405
247.03        54.11993
247.48         37.3215
247.94        31.52188
248.40        39.65403
248.85        50.59574
249.31         58.7606
249.77         63.0392
250.22        64.53627
250.68        64.52425
251.14        63.59644
251.59        62.64166
252.05        62.35255
252.51        62.53811
252.96        62.24517
253.42        60.31282
253.88        56.96868
254.33        53.20339
254.79         51.3035
255.25        53.07937
255.70         57.8737
256.16        64.12643
256.62        69.52859
257.07        71.54488
257.53        70.31528
257.99        66.89217
258.44        62.55424
258.90        59.68922
259.35        58.18686
259.81        57.72944
260.27        57.21487
260.72         55.7018
261.18        53.47355
261.63        50.56753
262.09        48.05361
262.55         46.9094
263.00        47.07518
263.46        48.13371
263.91        48.96136
264.37        48.49123
264.83        46.72477
265.28        44.11655
265.74         41.7594
266.19        40.75166
266.65        41.22989
267.11        42.56715
267.56        43.96893
268.02         44.3002
268.47        43.35175
268.93        41.52796
269.38        39.27092
269.84         37.5249
270.30        36.56614
270.75        36.14244
271.21         35.9638
271.66        35.58741
272.12        34.87801
272.57        34.00016
273.03        33.15079
273.48         32.5263
273.94        32.21357
274.39        32.08457
274.85        31.99614
275.31        31.73095
275.76        31.22921
276.22        30.57856
276.67        29.91093
277.13        29.52277
277.58        29.39528
278.04        29.44951
278.49        29.43117
278.95        29.04354
279.40        28.22927
279.86        27.19849
280.31         26.1238
280.77        25.37311
281.22         24.9595
281.68        24.79194
282.13         24.7375
282.59        24.63325
283.04        24.42191
283.50        24.18487
283.95        23.91889
284.41        23.64699
284.86        23.36412
285.32        23.07324
285.77        22.80983
286.22        22.69835
286.68        22.74032
287.13        22.87823
287.59        23.01146
288.04        22.97196
288.50          22.752
288.95        22.38493
289.41        21.98886
289.86        21.67224
290.32        21.51551
290.77        21.47157
291.22        21.52819
291.68        21.63262
292.13        21.77033
292.59        21.96865
293.04        22.23936
293.50        22.61024
293.95        23.07047
294.40        23.58929
294.86        24.12938
295.31        24.64999
295.77        25.13702
296.22        25.59881
296.68        26.03895
297.13        26.44121
297.58        26.82071
298.04        27.19412
298.49        27.58803
298.95        28.07901
299.40        28.66563
299.85        29.32246
300.31        30.00671
300.76        30.65133
301.21          31.227
301.67        31.76339
302.12        32.23178
302.58        32.64646
303.03        32.99539
303.48        33.29525
303.94        33.59904
304.39        33.95265
304.84        34.36974
305.30        34.81964
305.75        35.23739
306.20        35.54492
306.66        35.73845
307.11        35.82903
307.57        35.85159
308.02        35.78651
308.47        35.67275
308.93        35.51913
309.38        35.37749
309.83         35.3737
310.29        35.51437
310.74         35.7596
311.19        35.99359
311.65        36.02906
312.10        35.82557
312.55        35.44443
313.00        35.00432
313.46        34.68858
313.91        34.52805
314.36        34.47904
314.82        34.46689
315.27        34.39599
315.72        34.22714
316.18        34.00909
316.63        33.76639
317.08        33.53807
317.53        33.33578
317.99         33.1338
318.44         32.9371
318.89        32.74968
319.35         32.5695
319.80        32.39793
320.25        32.21605
320.70        31.99281
321.16        31.71745
321.61        31.40086
322.06        31.06191
322.51        30.73671
322.97        30.43133
323.42        30.14497
323.87        29.85684
324.32        29.53677
324.78        29.17661
325.23        28.80012
325.68        28.42513
326.13        28.08423
326.59        27.79155
327.04        27.55892
327.49         27.3783
327.94        27.23896
328.39        27.13014
328.85        27.03018
329.30        26.96758
329.75        26.95048
330.20        26.96776
330.66        26.98752
331.11        26.97117
331.56        26.80792
332.01        26.47875
332.46        26.01536
332.92        25.50125
333.37        25.08507
333.82        24.82301
334.27        24.69942
334.72        24.66207
335.17        24.61158
335.63        24.50624
336.08        24.37457
336.53        24.26851
336.98        24.28322
337.43         24.4291
337.88        24.66893
338.34        24.86223
338.79        24.83194
339.24        24.52654
339.69        23.99971
340.14        23.44631
340.59        23.19164
341.05        23.29945
341.50        23.68296
341.95        24.12203
342.40        24.27238
342.85        24.05952
343.30        23.60259
343.75        23.07962
344.20        22.78022
344.66        22.77728
345.11        22.94455
345.56        23.18172
346.01        23.33057
346.46        23.32788
346.91        23.23875
347.36        23.04202
347.81        22.69203
348.26        22.21977
348.72        21.67817
349.17        21.16528
349.62        20.92601
350.07        21.01463
350.52        21.34665
350.97        21.81143
351.42        22.23812
351.87        22.55397
352.32        22.78651
352.77        22.89342
353.22        22.81675
353.67        22.56476
354.13        22.16843
354.58        21.70994
355.03         21.3622
355.48        21.17589
355.93        21.12564
356.38        21.15265
356.83        21.14993
357.28        21.08162
357.73         20.9701
358.18        20.85121
358.63         20.7833
359.08        20.77513
359.53        20.80037
359.98         20.7958
360.43        20.67109
360.88        20.41751
361.33        20.07212
361.78         19.7231
362.23        19.51338
362.68        19.47036
363.13        19.53592
363.58        19.62749
364.03        19.61826
364.48        19.46861
364.93        19.21852
365.38        18.88888
365.83        18.51905
366.28        18.14394
366.73        17.76422
367.18        17.42521
367.63        17.19555
368.08        17.08421
368.53        17.07266
368.98        17.11391
369.43        17.12673
369.88        17.08775
370.33        17.01987
370.78        16.92979
371.23         16.8355
371.68        16.74774
372.13        16.64914
372.58        16.57302
373.03        16.58027
373.48        16.66962
373.93        16.81528
374.38        16.93763
374.83         16.9135
375.28        16.72102
375.72        16.39367
376.17        16.02766
376.62        15.73812
377.07        15.57058
377.52        15.49624
377.97        15.48869
378.42        15.50483
378.87        15.51967
379.32        15.53623
379.77         15.5525
380.22        15.56125
380.67        15.55933
381.11        15.55284
381.56        15.50269
382.01        15.36685
382.46        15.14662
382.91        14.85311
383.36        14.58205
383.81        14.47584
384.26        14.55231
384.71        14.77328
385.15         14.9929
385.60        14.98668
386.05        14.71678
386.50        14.25662
386.95        13.77984
387.40          13.562
387.85        13.65617
388.29        13.96262
388.74        14.30787
389.19        14.45096
389.64         14.3416
390.09        14.05706
390.54        13.72102
390.98        13.52299
391.43        13.52563
391.88        13.65069
392.33          13.796
392.78        13.81918
393.23         13.6981
393.67        13.48145
394.12        13.27218
394.57        13.16069
395.02        13.16563
395.47        13.25053
395.91        13.35782
396.36        13.37469
396.81        13.27936
397.26        13.10789
397.71        12.92817
398.15        12.82698
398.60        12.83836
399.05        12.92248
399.50        13.01852
399.95         13.0409
400.39        12.96976
400.84        12.82948
401.29        12.67984
401.74        12.63003
402.18         12.7119
402.63        12.88124
403.08        13.05286
403.53        13.09054
403.97        12.96801
404.42        12.73938
404.87        12.49786
405.32        12.39707
405.76        12.46951
406.21        12.65798
406.66        12.87697
407.11        12.99333
407.55        12.97244
408.00        12.86111
408.45        12.70108
408.90         12.5338
409.34        12.40382
409.79        12.35598
410.24        12.37111
410.68        12.36744
411.13        12.33979
411.58        12.34272
412.03        12.36599
412.47        12.37177
412.92        12.35227
413.37        12.30589
413.81        12.27244
414.26        12.32846
414.71        12.47576
415.15        12.69782
415.60        12.89134
416.05        12.91078
416.49        12.72502
416.94        12.39014
417.39        12.02382
417.83          11.816
418.28        11.81966
418.73        11.96865
419.17        12.17254
419.62        12.27553
420.07        12.24088
420.51        12.12087
420.96        11.96342
421.41        11.82612
421.85        11.72863
422.30        11.65745
422.74        11.61406
423.19        11.62629
423.64         11.6856
424.08        11.79518
424.53        11.90402
424.98        11.94106
425.42        11.89029
425.87        11.77427
426.31        11.63109
426.76        11.53065
427.21        11.48376
427.65         11.4643
428.10        11.47652
428.54        11.50602
428.99        11.54568
429.44        11.65248
429.88        11.75995
430.33        11.68008
430.77        11.45676
431.22        11.32193
431.66        11.31408
432.11        11.36511
432.56        11.46062
433.00        11.64992
433.45        11.81134
433.89        11.76951
434.34        11.59626
434.78        11.40956
435.23        11.20094
435.67        11.71488
436.12        11.31419
436.57        11.22217
437.01        11.01339
437.46         10.9185
437.90        10.95087
438.35          11.009
438.79        11.06088
439.24        11.10594
439.68         11.1301
440.13        11.04095
440.57        10.89534
441.02        10.96098
441.46        11.13319
441.91        11.07496
442.35        10.55183
442.80        10.33644
443.24         10.3199
443.69        10.26853
444.13         10.1613
444.58         10.0834
445.02        10.03614
445.47        10.02847
445.91        10.03829
446.36        10.00708
446.80        9.924778
447.24        9.818262
447.69        9.722446
448.13        9.666625
448.58        9.663939
449.02        9.702656
449.47        9.747909
449.91        9.739588
450.36        9.669709
450.80        9.553629
451.25        9.441283
451.69        9.398033
452.13        9.439222
452.58        9.533921
453.02        9.638275
453.47        9.679689
453.91        9.644378
454.36        9.557101
454.80        9.446798
455.24        9.363954
455.69        9.331183
456.13        9.320601
456.58        9.337454
457.02        9.384933
457.46        9.455967
457.91        9.526693
458.35         9.58019
458.79        9.608181
459.24        9.606808
459.68        9.577266
460.13        9.568776
460.57        9.562686
461.01        9.559016
461.46        9.806887
461.90        9.909272
462.34        9.837207
462.79        9.912629
463.23        9.812178
463.68        9.715164
464.12        9.649951
464.56         9.71055
465.01        9.811804
465.45        9.914244
465.89         9.96826
466.34         9.96751
466.78        9.899361
467.22        9.807549
467.67        9.832911
468.11        9.958344
468.55        9.978148
468.99        9.904676
469.44        9.920452
469.88        10.02977
470.32        10.12924
470.77        10.18081
471.21        10.17984
471.65        10.12014
472.10        10.00933
472.54        9.890761
472.98        9.861529
473.42        9.937579
473.87        10.05832
474.31         10.1833
474.75        10.30871
475.20        10.39663
475.64        10.35363
476.08        10.22995
476.52        10.19375
476.97         10.2613
477.41        10.36045
477.85        10.45103
478.29        10.49999
478.74        10.49675
479.18        10.43452
479.62        10.36772
480.06        10.38402
480.50        10.48229
480.95        10.58329
481.39        10.64831
481.83        10.66992
482.27        10.64413
482.72        10.57869
483.16        10.50348
483.60        10.48455
484.04        10.52966
484.48        10.63055
484.93        10.83159
485.37        10.99377
485.81        11.07887
486.25        11.51108
486.69        11.60714
487.14        11.06281
487.58        10.99866
488.02        11.97093
488.46        11.62982
488.90        11.74503
489.34        11.50555
489.79        11.57157
490.23        11.89163
490.67        12.05447
491.11         12.0336
491.55         11.9196
491.99        11.76375
492.43         11.6783
492.88        11.69428
493.32        11.71647
493.76        11.76043
494.20        11.90198
494.64        12.13817
495.08        12.43286
495.52        12.73084
495.96        12.96059
496.41        13.10208
496.85        13.14931
497.29        13.14352
497.73        13.21792
498.17        13.37322
498.61        13.45796
499.05        13.47911
499.49        13.58343
499.93         13.7772
500.37        13.94697
500.82        14.08418
501.26        14.29237
501.70        14.53149
502.14        14.60587
502.58        14.54632
503.02        14.57218
503.46        14.69981
503.90         14.8152
504.34        14.88698
504.78        14.91446
505.22         14.8925
505.66        14.83228
506.10        14.76715
506.54        14.74642
506.98        14.78695
507.42        14.87891
507.86        15.00676
508.30        15.14307
508.74        15.27238
509.18        15.39287
509.62        15.50688
510.06        15.61907
510.50        15.72906
510.94        15.83696
511.38         15.9156
511.82        15.92428
512.26         15.8615
512.70        15.74096
513.14         15.6274
513.58        15.61917
514.02        15.72729
514.46        15.92302
514.90        16.12793
515.34        16.16168
515.78        16.01246
516.22        15.81774
516.66        15.67578
517.10        15.38295
517.54        14.96788
517.98        15.61668
518.42        15.52376
518.86        15.80811
519.30        15.91026
519.74         16.0142
520.18        16.08937
520.62        16.06347
521.06        15.95436
521.50        15.76628
521.93        15.55511
522.37        15.42299
522.81        15.39351
523.25         15.4416
523.69        15.52542
524.13        15.57593
524.57        15.57092
525.01        15.52886
525.45        15.46776
525.89        15.41573
526.32         15.3816
526.76        15.35695
527.20        15.32735
527.64        15.27646
528.08        15.20043
528.52        15.10277
528.96        15.00857
529.40        14.95308
529.83        14.94089
530.27        14.96609
530.71        14.98232
531.15        14.91718
531.59        14.76309
532.03        14.54716
532.46        14.33669
532.90        14.25117
533.34        14.30509
533.78        14.45517
534.22        14.62992
534.66        14.71897
535.09        14.69138
535.53        14.58897
535.97        14.44781
536.41        14.32345
536.85        14.23898
537.28        14.18339
537.72        14.16583
538.16        14.15727
538.60         14.2226
539.04         14.3002
539.47        14.38212
539.91        14.45789
540.35        14.53074
540.79        14.48244
541.22        14.51923
541.66        14.56799
542.10        14.70385
542.54        14.67674
542.97        14.86976
543.41         15.0029
543.85        15.17498
544.29        15.35001
544.72         15.4942
545.16        15.60067
545.60        15.66311
546.04        15.63691
546.47        15.59782
546.91        15.76827
547.35        16.11721
547.79        16.41452
548.22        16.59952
548.66        16.70219
549.10        16.74015
549.53        16.82036
549.97        16.97484
550.41        16.96703
550.84        17.12457
551.28        17.25236
551.72        17.44974
552.15        17.67392
552.59        17.91434
553.03        18.16999
553.46        18.39988
553.90        18.55798
554.34        18.63653
554.77        18.65043
555.21        18.63797
555.65        18.65102
556.08        18.70466
556.52        18.78678
556.96         18.8879
557.39        19.01662
557.83        19.15889
558.27        19.26528
558.70        19.33727
559.14        19.41381
559.57        19.48892
560.01        19.56235
560.45        19.61523
560.88        19.59509
561.32         19.5463
561.75        19.52872
562.19        19.62815
562.63         19.6978
563.06         19.7566
563.50        19.85172
563.93        19.96968
564.37        20.12418
564.80        20.21432
565.24        20.32485
565.68        20.41336
566.11        20.48534
566.55        20.55724
566.98        20.58947
567.42        20.59024
567.85        20.83173
568.29        20.78308
568.72        21.07445
569.16        21.46949
569.60        21.74464
570.03        21.86714
570.47         21.9559
570.90        21.93857
571.34        22.26965
571.77        22.24963
572.21        22.48695
572.64        22.77597
573.08        22.85484
573.51        23.14245
573.95        23.42361
574.38        23.62619
574.82        23.77595
575.25        23.80165
575.69        23.80736
576.12        23.63331
576.56        23.65843
576.99        23.84996
577.42        23.89543
577.86        23.86491
578.29        23.93039
578.73        24.17447
579.16        23.93779
579.60        23.65772
580.03         23.6505
580.47        23.90316
580.90        23.39268
581.33        23.29577
581.77        23.40388
582.20        23.64405
582.64        23.23048
583.07        22.82306
583.51          22.866
583.94        22.70738
584.37         22.5267
584.81        22.33953
585.24        22.18753
585.68        22.13643
586.11        22.13958
586.54        21.98522
586.98        21.92922
587.41        21.91586
587.85        21.88154
588.28        21.78892
588.71        21.61624
589.15        21.46443
589.58         21.1205
590.01        21.32877
590.45        21.76902
590.88        21.52893
591.31        21.39274
591.75        21.09832
592.18        21.22947
592.61        21.27614
593.05        21.64194
593.48        21.39632
593.91        21.98598
594.35        21.67847
594.78        21.73244
595.21        21.99957
595.65        22.29576
596.08        22.28592
596.51        22.29286
596.94        22.28084
597.38        22.41751
597.81        22.76358
598.24         22.8754
598.68        23.39489
599.11        23.57669
599.54        24.34849
599.97        23.99822
600.41        24.50786
600.84        25.05167
601.27        25.40858
601.70        25.83077
602.14        26.11252
602.57        26.53258
603.00        27.08145
603.43        27.61831
603.87        28.01059
604.30        28.46284
604.73        29.01578
605.16        29.10018
605.60        29.77195
606.03        30.35873
606.46        31.02342
606.89        31.61466
607.32        31.95957
607.76        32.30474
608.19         32.7522
608.62        33.24457
609.05        33.50303
609.48        33.83421
609.92        34.18159
610.35        34.45313
610.78        35.36075
611.21        35.90931
611.64         35.9796
612.07        36.40678
612.50        36.82372
612.94         36.9159
613.37        37.52949
613.80         37.9528
614.23        38.42033
614.66        38.86417
615.09        39.15179
615.52        39.57697
615.96        40.00819
616.39        40.39251
616.82        40.80053
617.25         40.5219
617.68        41.11098
618.11        41.49087
618.54        41.73109
618.97        41.90508
619.40        41.95397
619.84        42.11626
620.27        42.18295
620.70         42.5511
621.13        43.05789
621.56        43.23744
621.99        43.21556
622.42        43.35431
622.85        43.69242
623.28        43.93329
623.71        44.05585
624.14        44.08932
624.57        44.12667
625.00        43.81441
625.43        44.21159
625.86        43.46469
626.29        43.50617
626.72        43.42423
627.15        43.17392
627.58        43.09971
628.01        42.98326
628.44        42.87077
628.87        42.56753
629.30        42.20131
629.73        41.74877
630.16        41.48071
630.59        41.03627
631.02        40.70076
631.45        40.33956
631.88        39.92268
632.31        39.43644
632.74        38.89762
633.17        38.32912
633.60        37.75659
634.03        37.19347
634.46        36.63685
634.89        36.07899
635.32          35.505
635.75        34.91835
636.18        34.33645
636.61        33.77296
637.04        33.24231
637.47        32.74533
637.89        32.27354
638.32        31.82513
638.75        31.41708
639.18        31.05173
639.61        30.73116
640.04         30.4225
640.47        30.06928
640.90        29.66493
641.33        29.22865
641.76        28.81922
642.18        28.53627
642.61        28.39668
643.04        28.37056
643.47        28.40117
643.90        28.39267
644.33        28.32058
644.76        28.22105
645.18        28.12614
645.61        28.09128
646.04        28.13622
646.47         28.2411
646.90        28.41609
647.33        28.67677
647.75        29.01785
648.18        29.43633
648.61        29.88587
649.04         30.2742
649.47        30.58574
649.89        30.87777
650.32        31.21626
650.75        31.62162
651.18        32.16148
651.61        32.98505
652.03        33.98736
652.46        34.87013
652.89        35.58858
653.32        36.06357
653.74         36.3904
654.17        37.21262
654.60        37.90299
655.03        38.85737
655.46         38.9407
655.88        40.75405
656.31        41.67289
656.74        47.82764
657.16        45.33991
657.59        42.33842
658.02         43.2622
658.45        44.15885
658.87        45.23841
659.30        45.96107
659.73        46.85083
660.15        47.84291
660.58         48.0429
661.01        48.12968
661.44        48.04063
661.86        48.46158
662.29         49.3686
662.72        50.33665
663.14        51.15546
663.57        51.40266
664.00        51.24046
664.42        51.44186
664.85        52.08719
665.27         52.6792
665.70        53.11202
666.13        53.48996
666.55        53.79626
666.98        54.00387
667.41        54.17709
667.83        54.41508
668.26        54.73251
668.69        55.10385
669.11        55.48511
669.54         55.8004
669.96        56.03819
670.39        56.23762
670.82         56.4196
671.24        56.60012
671.67        56.81229
672.09        57.03983
672.52        57.27071
672.94         57.6012
673.37        57.93413
673.80        57.87543
674.22        57.55863
674.65        57.55343
675.07        57.92195
675.50        58.35107
675.92        58.72089
676.35        58.92866
676.77        58.93838
677.20        58.79499
677.62        58.60676
678.05        58.55262
678.47        58.67244
678.90        58.91643
679.32        59.22788
679.75        59.48697
680.17        59.64935
680.60        59.82826
681.02        60.01951
681.45        59.96316
681.87        59.77203
682.30        59.98991
682.72        60.52289
683.15        60.62069
683.57         60.3352
684.00        60.27209
684.42        60.59509
684.85        60.83667
685.27        60.93896
685.70        61.20552
686.12        61.52543
686.54        61.72856
686.97        61.81027
687.39        61.67239
687.82        61.40039
688.24        61.58577
688.66         62.2089
689.09        61.87382
689.51        62.05003
689.94        61.95139
690.36          62.031
690.78        62.01551
691.21        61.95368
691.63        62.00418
692.06          62.159
692.48        62.55408
692.90         62.5568
693.33        63.11898
693.75        62.96153
694.17        63.06112
694.60        63.09356
695.02        62.91304
695.44        62.59935
695.87        62.65093
696.29        62.98556
696.71        62.88926
697.14        62.56583
697.56         62.6866
697.98        63.50414
698.41        64.37009
698.83        63.89236
699.25        63.75611
699.68        63.72937
700.10        63.70676
700.52        63.74863
700.94        63.88501
701.37        64.06088
701.79        64.20938
702.21        64.28378
702.64        64.28782
703.06        64.29609
703.48        64.36013
703.90        64.49772
704.33         64.7057
704.75        64.92629
705.17        64.93763
705.59        64.69677
706.01        64.65768
706.44        64.25278
706.86        64.25175
707.28        64.48017
707.70        64.87762
708.12        65.31056
708.55        65.57836
708.97        65.63322
709.39        65.54106
709.81        65.36408
710.23         65.2132
710.66        65.13943
711.08        65.11547
711.50        65.14278
711.92         65.2411
712.34        65.40553
712.76        65.63929
713.19        65.88033
713.61        66.07259
714.03        66.16748
714.45        66.18108
714.87        66.16512
715.29        66.20662
715.71        66.32638
716.13        66.49901
716.56         66.6666
716.98        66.80903
717.40        66.88203
717.82         66.9013
718.24        66.89638
718.66         66.9134
719.08        66.96385
719.50        67.03244
719.92        67.08936
720.34        67.08685
720.76        67.01932
721.19        66.90624
721.61        66.79962
722.03        66.74704
722.45        66.78471
722.87        66.88217
723.29        67.02101
723.71        67.16029
724.13        67.28611
724.55        67.40977
724.97        67.53425
725.39        67.66576
725.81         67.8023
726.23         67.9292
726.65        68.04979
727.07        68.17554
727.49         68.3073
727.91         68.4467
728.33        68.56833
728.75        68.62746
729.17        68.61948
729.59        68.56087
730.01        68.50171
730.43        68.52131
730.85        68.63435
731.27         68.8115
731.69        69.00204
732.10        69.13565
732.52        69.17831
732.94        69.14953
733.36        69.06643
733.78         68.9844
734.20        68.94047
734.62         68.8975
735.04        68.83077
735.46         68.9731
735.88        68.89134
736.30        68.88213
736.72        68.90378
737.13        69.12521
737.55        69.46826
737.97        69.96043
738.39        70.37421
738.81         70.1631
739.23        69.52367
739.65        69.21978
740.06        69.19534
740.48        70.03437
740.90        69.47015
741.32        69.39525
741.74        69.49263
742.16        69.58665
742.57        69.75908
742.99        69.89933
743.41        70.02637
743.83        70.15655
744.25        70.28008
744.67        70.36882
745.08        70.41045
745.50        70.36204
745.92        70.23784
746.34        70.05695
746.75          69.869
747.17        69.74164
747.59        69.69856
748.01        69.76049
748.42        69.90606
748.84        70.01923
749.26        70.12608
749.68        70.28986
750.09        70.49347
750.51        70.78666
750.93        71.03596
751.35        70.85831
751.76        70.37574
752.18        70.11057
752.60        70.08897
753.01        70.39754
753.43        70.30515
753.85        70.45834
754.27        70.63214
754.68        70.86312
755.10        71.08094
755.52         71.1187
755.93        71.00596
756.35        70.93764
756.77        70.97103
757.18        71.03828
757.60        71.19068
758.02        71.44154
758.43        71.64356
758.85        71.77732
759.26        72.00584
759.68        71.15033
760.10        71.29462
760.51        71.33051
760.93        70.87088
761.34         70.9791
761.76        71.14008
762.18        70.91747
762.59        70.24366
763.01        70.27733
763.42        70.99986
763.84        71.57996
764.26        71.85319
764.67        71.77092
765.09        71.56569
765.50        71.78346
765.92        72.37227
766.33        72.83258
766.75        72.92979
767.16        72.45026
767.58        71.55981
768.00        71.13285
768.41        71.32217
768.83        71.51696
769.24        71.63099
769.66        72.05936
770.07        72.60924
770.49        72.51431
770.90        71.91001
771.32        72.10514
771.73         72.5107
772.15        72.67981
772.56        72.44166
772.97        72.37247
773.39        72.42604
773.80        72.30191
774.22        71.98142
774.63        71.57266
775.05        71.22525
775.46        71.18748
775.88        71.48383
776.29        72.07761
776.70        72.71126
777.12        72.97858
777.53        72.79428
777.95        72.24749
778.36        71.61763
778.77        71.38448
779.19        71.66807
779.60         72.3492
780.02        73.09049
780.43         73.5831
780.84        73.72953
781.26        73.03671
781.67        72.26926
782.09        72.76244
782.50        74.25059
782.91        74.29985
783.33        73.01849
783.74        72.63339
784.15         73.2163
784.57        73.47163
784.98        73.36488
785.39          73.122
785.81        72.81145
786.22        72.54752
786.63        72.40281
787.04        72.34562
787.46        72.38833
787.87        72.57886
788.28        72.91308
788.70        73.24747
789.11        73.52656
789.52        73.95966
789.93        74.41125
790.35        74.27566
790.76        73.70496
791.17        73.58894
791.58        73.95526
792.00        74.02804
792.41        73.70397
792.82        73.69065
793.23        73.45436
793.65        72.90069
794.06        72.29497
794.47        72.54543
794.88        73.29392
795.29         74.7216
795.71        74.54894
796.12        73.36031
796.53        74.58426
796.94        73.87309
797.35        72.71658
797.76        72.48801
798.18        73.19421
798.59        73.52499
799.00        73.36241
799.41        73.51997
799.82         73.9482
800.23        74.18432
800.64        74.18353
801.06         74.0268
801.47        73.84614
801.88        73.80592
802.29        73.93607
802.70        74.14468
803.11        74.32886
803.52        74.32353
803.93        74.11553
804.34        73.82729
804.75        73.49526
805.17         73.2365
805.58        73.16357
805.99        72.93599
806.40        72.73185
806.81        73.66152
807.22        75.23534
807.63           75.37
808.04         74.2822
808.45        73.58173
808.86        74.22818
809.27        75.14019
809.68        76.16639
810.09        76.61978
810.50        76.33616
810.91          75.695
811.32        74.98799
811.73        74.58878
812.14         74.5269
812.55        74.51936
812.96        74.44393
813.37        74.10582
813.78        73.62698
814.19        73.60754
814.60         73.9709
815.01        74.07473
815.42        73.88867
815.83        73.77197
816.24        73.79874
816.65        73.91124
817.05        74.12139
817.46        74.38854
817.87        74.64178
818.28        74.72311
818.69         74.6246
819.10        74.41166
819.51        74.15631
819.92        74.08786
820.33         74.2825
820.74         74.3838
821.14        74.46558
821.55        75.26608
821.96         76.4604
822.37        76.54257
822.78        75.60133
823.19        75.13281
823.60        75.24848
824.00        75.08875
824.41        74.62362
824.82        74.36602
825.23        74.36034
825.64        74.49455
826.04         74.7089
826.45         74.8487
826.86        74.88215
827.27        74.85561
827.68        74.81755
828.08        74.86683
828.49        74.97462
828.90        75.13598
829.31        75.30547
829.72        75.40961
830.12        75.44327
830.53        75.39626
830.94        75.31814
831.35        75.25214
831.75        75.23862
832.16        75.22697
832.57           75.23
832.97        75.24667
833.38        75.24906
833.79        75.23021
834.20        75.20308
834.60        75.17728
835.01        75.16847
835.42        75.19066
835.82        75.18017
836.23        74.97677
836.64        74.59261
837.04        74.07597
837.45        73.62015
837.86        73.57961
838.26        74.03222
838.67         74.8438
839.08        75.73235
839.48        76.16152
839.89        75.98312
840.29        75.38978
840.70        74.71394
841.11        74.37682
841.51        74.50393
841.92        74.89621
842.33        75.48321
842.73        76.14864
843.14        76.70948
843.54        77.27231
843.95         77.6285
844.35        77.51545
844.76         76.9293
845.17        75.97982
845.57         74.9946
845.98        74.50392
846.38        74.62463
846.79        75.21282
847.19        76.07808
847.60        76.71381
848.00        76.99922
848.41        77.00292
848.81        76.89474
849.22        76.86287
849.62        77.00407
850.03        77.17463
850.43        77.34457
850.84        77.37764
851.24         77.2981
851.65        77.11813
852.05        76.90463
852.46        76.69707
852.86        76.54379
853.27        76.27888
853.67        75.93565
854.07        76.13167
854.48        76.66035
854.88        76.49123
855.29        75.65742
855.69        75.42666
856.10        75.85493
856.50        75.75349
856.90        76.09985
857.31        76.05067
857.71        75.98898
858.12        75.80413
858.52        75.65182
858.92        75.63909
859.33        75.76579
859.73        76.05426
860.13         76.4131
860.54         76.6754
860.94        76.82947
861.34        76.85885
861.75        76.75705
862.15         76.6223
862.55        76.44957
862.96        76.26182
863.36        76.04234
863.76        75.73598
864.17        75.35719
864.57         74.9613
864.97        74.70538
865.38        74.80368
865.78         75.3261
866.18        76.12823
866.58          76.937
866.99        77.26687
867.39        77.02075
867.79        76.31794
868.19        75.31358
868.60        74.25023
869.00         73.2169
869.40        72.19391
869.80        71.41008
870.21        71.22729
870.61         71.7448
871.01        72.82104
871.41        73.99814
871.81        74.52782
872.22        74.26775
872.62        73.44489
873.02        72.41637
873.42        71.97418
873.82         72.1207
874.22        72.16164
874.63        72.18839
875.03        72.47097
875.43        72.95535
875.83        74.46193
876.23        74.35702
876.63        73.84583
877.03         72.4798
877.44         70.3091
877.84        127.6326
878.24        70.38683
878.64        71.71305
879.04        75.39408
879.44        72.54135
879.84        70.71539
880.24        74.23172
880.64        73.90768
881.04        70.69788
881.44        68.72472
881.84         68.7341
882.24        70.02638
882.65        71.85642
883.05        72.82026
883.45        72.46265
883.85        71.48712
884.25        70.49866
884.65        70.15502
885.05        70.64053
885.45        71.70007
885.85        72.87776
886.25        73.44523
886.65        73.20377
887.05        72.41761
887.45        71.50314
887.85        71.06345
888.25        71.26062
888.65        71.91578
889.04        72.77003
889.44        73.30146
889.84        73.37463
890.24        73.12656
890.64        72.78288
891.04        72.68117
891.44        72.87112
891.84        73.19581
892.24         73.4369
892.64        73.24346
893.04        72.57751
893.44        71.67499
893.83        70.69285
894.23        69.86473
894.63        69.25307
895.03        68.76299
895.43        68.54961
895.83        68.87228
896.23         69.7182
896.63        71.00889
897.02        72.28385
897.42        72.69819
897.82        72.09142
898.22        70.72434
898.62        69.17764
899.01        68.35572
899.41        68.49699
899.81        69.28596
900.21        70.36797
900.61        71.19949
901.00        71.59762
901.40        71.71236
901.80        71.63573
902.20        71.49177
902.59        71.35532
902.99        71.17424
903.39        70.93619
903.79        70.64355
904.18        70.31195
904.58         70.0071
904.98        69.86694
905.38        70.08939
905.77        70.67165
906.17        71.54166
906.57        72.41039
906.96        72.85571
907.36        72.74411
907.76        72.18362
908.15        71.48888
908.55        71.12162
908.95        71.21774
909.34        71.67518
909.74        72.16535
910.14        72.11108
910.53        71.38445
910.93        70.25835
911.33        69.18546
911.72        68.87991
912.12        69.44806
912.52        70.56896
912.91        71.83009
913.31        72.51302
913.70        72.48274
914.10        71.96024
914.49        71.07197
914.89         70.1729
915.29        69.46842
915.68        68.88258
916.08        68.60432
916.47        68.87724
916.87        69.63965
917.26        70.79031
917.66        71.96082
918.05        72.57159
918.45        72.44775
918.84         71.8093
919.24         70.8245
919.64        69.80637
920.03        68.92651
920.42        68.12252
920.82        67.65472
921.21        67.87272
921.61        68.73161
922.00        70.16756
922.40        71.60905
922.79        72.33765
923.19        72.15713
923.58        71.06264
923.98        69.40265
924.37        68.52496
924.77        68.95831
925.16        67.10139
925.55        68.79818
925.95        68.94588
926.34        69.23943
926.74        69.56085
927.13        69.99139
927.52        70.45301
927.92        70.88199
928.31        71.33901
928.70         71.6649
929.10        71.64284
929.49        71.25427
929.89        70.57753
930.28        69.93337
930.67        69.82815
931.07        70.33162
931.46        71.32636
931.85        72.41692
932.24        73.02254
932.64        72.98323
933.03        72.37444
933.42        71.44601
933.82        70.74702
934.21        70.45149
934.60         70.4606
934.99        70.35455
935.39        69.79008
935.78        68.74232
936.17        66.79153
936.56        64.22333
936.96         65.3638
937.35        65.09026
937.74        67.27399
938.13        69.44529
938.53        70.81256
938.92        71.29053
939.31        71.15711
939.70        70.70227
940.09        70.34682
940.49        70.29402
940.88        70.42177
941.27        70.67609
941.66        71.02208
942.05        71.41074
942.44        71.84624
942.84        72.29859
943.23        72.71191
943.62        73.03344
944.01         73.3034
944.40        73.36275
944.79        72.97246
945.18        72.12032
945.57         70.8476
945.97        69.64089
946.36        69.31749
946.75        70.09947
947.14        71.66884
947.53        73.30264
947.92        74.01183
948.31        73.62679
948.70        72.45446
949.09        70.97319
949.48        70.03018
949.87        69.90591
950.26         70.3392
950.65        71.03595
951.04        71.50821
951.43        71.58237
951.82         71.4353
952.21        71.17044
952.60        70.92649
952.99        70.76489
953.38        70.61358
953.77        70.47492
954.16        70.38128
954.55        70.33262
954.94         70.3401
955.33        70.38287
955.72        70.40668
956.11        70.39983
956.50        70.37568
956.89        70.33899
957.28        70.31064
957.66        70.31166
958.05        70.26821
958.44        70.21398
958.83        70.18013
959.22        70.16539
959.61          70.185
960.00        70.12817
960.39        69.81134
960.78        69.21948
961.16        68.38293
961.55        67.61732
961.94        67.28543
962.33        67.45184
962.72        68.02465
963.11         68.6567
963.49        68.76626
963.88        68.14059
964.27        67.00487
964.66        65.80075
965.04        65.25637
965.43        65.54695
965.82        66.45863
966.21        67.60624
966.60        68.35279
966.98        68.52703
967.37        68.30409
967.76        67.96115
968.15        67.92785
968.53        68.32159
968.92        68.87102
969.31        69.42545
969.69        69.75449
970.08        69.71244
970.47        69.44842
970.86        68.90695
971.24        67.94392
971.63        66.66723
972.02        65.16984
972.40        63.79164
972.79         63.1384
973.17        63.38459
973.56        64.26526
973.95        65.56084
974.33         66.8303
974.72        67.72659
975.11        68.35442
975.49          68.509
975.88        67.89091
976.26        66.55714
976.65         64.6579
977.04         62.6674
977.42        61.43869
977.81        61.23814
978.19         61.8276
978.58        62.95215
978.96        64.13851
979.35        65.08521
979.74         66.0092
980.12        66.67258
980.51         66.4406
980.89        65.41701
981.28        63.72546
981.66        62.16298
982.05        61.87086
982.43        62.97261
982.82        65.12869
983.20          67.631
983.59        68.85655
983.97        68.41579
984.35        66.68793
984.74        64.51712
985.12        63.15657
985.51        62.97151
985.89        63.57544
986.28        64.54314
986.66        65.08869
987.04        64.83591
987.43        64.21008
987.81        63.29738
988.20        62.09703
988.58        60.55616
988.96        58.44765
989.35        56.18033
989.73        55.14273
990.12        55.98218
990.50        58.33042
990.88        60.91595
991.27        62.31987
991.65        62.54028
992.03        61.91618
992.42        61.13869
992.80        61.49994
993.18         63.3086
993.56        65.86462
993.95        68.34225
994.33        70.03763
994.71        70.62556
995.10        70.42063
995.48         69.6347
995.86        68.45764
996.24        67.02833
996.63        65.30196
997.01        63.41748
997.39        61.97736
997.77        61.34525
998.15        61.41084
998.54        62.01142
998.92         62.9314
999.30        64.14079
999.68        65.88965
1000.06        67.60334
1000.45        67.47767
1000.83        65.11054
1001.21         61.4263
1001.59        58.19794
1001.97        56.79571
1002.35        57.06394
1002.73        58.62328
1003.12        60.71013
1003.50        61.58898
1003.88        60.41679
1004.26        57.85925
1004.64        54.88667
1005.02        52.79293
1005.40         51.9261
1005.78        51.84998
1006.16        52.56926
1006.54        53.98868
1006.92        55.62382
1007.30        57.23838
1007.69        58.31527
1008.07        58.47041
1008.45        57.56172
1008.83        55.49725
1009.21        51.89909
1009.59        47.27508
1009.97        43.00693
1010.35        39.72726
1010.73        38.87376
1011.11        41.20856
1011.49        45.94776
1011.86        52.63185
1012.24        58.14157
1012.62        59.47365
1013.00        56.61139
1013.38        50.69825
1013.76        43.99049
1014.14        40.58646
1014.52        41.64391
1014.90        45.90347
1015.28        51.29317
1015.66        54.31055
1016.04        53.70898
1016.41        50.34458
1016.79        44.98985
1017.17        40.14927
1017.55        37.55115
1017.93        36.51207
1018.31        36.67058
1018.69        37.70967
1019.06        39.32899
1019.44        41.52907
1019.82        43.90938
1020.20        45.04862
1020.58        44.28843
1020.95        41.96262
1021.33        38.45902
1021.71        33.59249
1022.09        26.46406
1022.46        13.57745
1022.84        -5.05662
1023.22       -10.77668
1023.60        6.532186
1023.97        26.58098
1024.35        38.09218
1024.73        42.18616
