SpectraSmart Spectrum 2.9.0.0
--------- Device Information -----------
Spectrum Name :  反射率_0
Saving Time :  2024/04/20 00:03:15
Spectro-Module Model Name : SE2030-DUVN
Spectro-Module Serial Number : OS361AC55029948
Wavelength Start : 200
Wavelength End : 1025
Wavelength Unit : Wavelength(nm)
Spectrum Unit : Reflectance(%)
-----------Spectrum Setting ------------
Integration Time : 30ms
Average : 10
Boxcar : 0
Background removal :  enabled
linearity correction :  enabled
SC :  disabled
Intensity correction :  disabled
DWT denoise :  enabled
savitzky-golay :  disabled
FFT :  disabled
Running average :  disabled
Kalman :  disabled
High pass :  disabled
---------------BEGIN--------------------
Wavelength(nm)             Reflectance(%)
200.29               0
200.75        63.53261
201.21        63.04092
201.67        64.24786
202.13        67.68729
202.58        73.45998
203.04        81.83635
203.50        89.94441
203.96        90.81783
204.42        84.55115
204.88        75.77903
205.34        68.36048
205.80        64.01385
206.26        61.94998
206.72        61.09744
207.18        61.63979
207.64        63.85195
208.10        67.11481
208.55        71.22556
209.01        73.59001
209.47        73.14053
209.93        70.54888
210.39        66.45389
210.85        62.54932
211.31        60.76247
211.77        61.26303
212.23        63.81345
212.69        67.59228
213.14        69.17896
213.60        66.93988
214.06        63.66666
214.52        61.20593
214.98        60.54126
215.44        61.39896
215.90        63.03753
216.36        65.57036
216.81        68.86308
217.27        72.14867
217.73        75.44784
218.19        77.31137
218.65        75.77114
219.11        70.65341
219.57        62.02984
220.02        52.13155
220.48        47.30997
220.94        49.70951
221.40         58.1342
221.86        68.48535
222.32        74.32359
222.77        74.04631
223.23        69.84449
223.69        64.62566
224.15        62.56201
224.61        64.05881
225.06        67.09259
225.52        69.99115
225.98        71.44003
226.44        71.43619
226.90        70.63734
227.36        69.69444
227.81        69.51156
228.27        70.48939
228.73        71.92534
229.19        73.19584
229.65        73.64909
230.10        73.23246
230.56         72.4415
231.02        71.51218
231.48         70.7642
231.93          70.219
232.39        69.79711
232.85        69.45149
233.31        69.18864
233.77        68.99057
234.22        68.88784
234.68        68.77942
235.14        68.38818
235.60        67.70045
236.05        66.81498
236.51        66.01272
236.97          65.708
237.43        66.04616
237.88        67.21914
238.34        68.87888
238.80        70.38949
239.26        71.12321
239.71        71.05621
240.17        70.50669
240.63        70.63664
241.08         71.7958
241.54        73.61266
242.00        75.34403
242.46        75.52042
242.91        73.47131
243.37        68.61945
243.83        61.41924
244.28         56.8495
244.74        59.58898
245.20        68.50229
245.66        77.24123
246.11        80.34217
246.57        77.08786
247.03        67.98061
247.48        54.21005
247.94        47.05475
248.40         50.1893
248.85        56.28141
249.31        61.33855
249.77        64.42278
250.22        66.12241
250.68        67.45029
251.14         68.5176
251.59        68.97694
252.05         68.9324
252.51        68.47193
252.96        68.02023
253.42        68.69704
253.88         70.7224
254.33        73.47474
254.79        77.12811
255.25        81.64114
255.70        86.52029
256.16        91.21545
256.62        94.99343
257.07         97.0415
257.53        97.57436
257.99        96.91175
258.44        94.71011
258.90         91.6746
259.35        88.15347
259.81         85.3713
260.27        83.33688
260.72        82.03529
261.18        81.58028
261.63        81.20751
262.09        81.25177
262.55        81.52216
263.00        81.73208
263.46        82.07581
263.91        81.83527
264.37        80.62386
264.83        78.47621
265.28        75.63186
265.74        73.05647
266.19        71.52681
266.65        71.25529
267.11        71.73547
267.56        72.38168
268.02        72.39154
268.47        71.55154
268.93        70.15413
269.38        68.41129
269.84        66.88454
270.30        65.74197
270.75        64.83928
271.21        64.07285
271.66        63.24781
272.12        62.30772
272.57        61.31002
273.03        60.37344
273.48        59.55215
273.94        58.91922
274.39        58.37904
274.85        57.86016
275.31        57.17902
275.76        56.27099
276.22        55.22335
276.67        54.12942
277.13        53.29453
277.58        52.68437
278.04         52.2806
278.49        51.80687
278.95        50.99849
279.40        49.77768
279.86         48.3758
280.31        46.97888
280.77         46.0436
281.22        45.54234
281.68        45.36856
282.13        45.27153
282.59        44.96413
283.04        44.35921
283.50        43.62624
283.95        42.84084
284.41        42.18349
284.86        41.66953
285.32        41.27333
285.77        40.98978
286.22        40.90514
286.68        41.00256
287.13        41.20844
287.59        41.41104
288.04        41.38363
288.50        41.12017
288.95        40.64282
289.41        40.09568
289.86         39.6183
290.32        39.31494
290.77        39.13172
291.22         39.0547
291.68        39.02295
292.13        39.02021
292.59        39.10598
293.04        39.31453
293.50        39.72061
293.95        40.31615
294.40        41.05874
294.86        41.89706
295.31        42.76314
295.77        43.63181
296.22        44.51551
296.68        45.39904
297.13        46.23957
297.58        47.04062
298.04        47.81615
298.49        48.61119
298.95        49.55213
299.40        50.63119
299.85        51.79827
300.31        52.97924
300.76         54.0371
301.21        54.93867
301.67        55.75763
302.12        56.46841
302.58        57.13355
303.03        57.74743
303.48        58.33859
303.94        59.00066
304.39        59.81548
304.84        60.80196
305.30        61.91125
305.75        63.00906
306.20        63.93262
306.66        64.65885
307.11        65.20113
307.57        65.63293
308.02        65.95924
308.47        66.23996
308.93        66.47076
309.38        66.69121
309.83        67.04543
310.29        67.54343
310.74        68.13678
311.19        68.68237
311.65        68.93983
312.10        68.85054
312.55        68.49235
313.00        68.04459
313.46        67.78551
313.91        67.76069
314.36        67.90469
314.82        68.06301
315.27         68.0184
315.72        67.70452
316.18        67.23006
316.63        66.70115
317.08        66.30035
317.53        66.07278
317.99        65.94437
318.44        65.86152
318.89        65.72381
319.35        65.49196
319.80        65.19935
320.25        64.85594
320.70         64.4791
321.16        64.07171
321.61        63.63749
322.06        63.17231
322.51        62.68385
322.97         62.1698
323.42        61.64816
323.87        61.13392
324.32         60.6572
324.78        60.21082
325.23        59.81214
325.68        59.40874
326.13        58.92587
326.59        58.35054
327.04        57.74138
327.49        57.15565
327.94        56.69857
328.39        56.39049
328.85        56.16344
329.30        56.02946
329.75        55.91254
330.20        55.77733
330.66        55.61892
331.11        55.41965
331.56        55.07734
332.01        54.58238
332.46        53.95508
332.92        53.28584
333.37        52.77922
333.82        52.48733
334.27        52.38646
334.72        52.38673
335.17         52.3225
335.63         52.1236
336.08        51.84662
336.53        51.56971
336.98        51.45133
337.43        51.51789
337.88        51.71292
338.34        51.85529
338.79        51.71192
339.24        51.21534
339.69        50.44311
340.14        49.62957
340.59        49.16705
341.05        49.14539
341.50        49.45736
341.95        49.85561
342.40        49.95329
342.85         49.6619
343.30        49.11239
343.75        48.49162
344.20        48.10439
344.66        48.02903
345.11        48.13117
345.56        48.30616
346.01        48.39122
346.46        48.32336
346.91        48.17397
347.36        47.92204
347.81        47.52009
348.26        46.99452
348.72        46.38455
349.17        45.80068
349.62        45.50275
350.07         45.5414
350.52        45.82692
350.97        46.21148
351.42        46.46594
351.87        46.51588
352.32        46.41793
352.77        46.19182
353.22        45.87838
353.67        45.51363
354.13        45.10299
354.58        44.68173
355.03        44.35766
355.48         44.1568
355.93        44.06943
356.38        44.04277
356.83        43.98164
357.28        43.84996
357.73         43.6517
358.18        43.42001
358.63        43.21841
359.08        43.05641
359.53        42.91338
359.98        42.71555
360.43        42.34953
360.88        41.80937
361.33        41.14911
361.78        40.49274
362.23        40.03981
362.68        39.83815
363.13        39.81993
363.58        39.87609
364.03        39.83543
364.48        39.63959
364.93        39.32821
365.38        38.93764
365.83        38.53755
366.28        38.16154
366.73        37.79124
367.18        37.42446
367.63        37.06121
368.08        36.70486
368.53        36.36949
368.98        36.06915
369.43        35.81113
369.88         35.5943
370.33        35.41808
370.78        35.25409
371.23        35.05965
371.68        34.82675
372.13        34.55797
372.58        34.30776
373.03        34.17187
373.48        34.15847
373.93        34.22456
374.38        34.27491
374.83        34.16413
375.28        33.86301
375.72        33.41492
376.17        32.91684
376.62        32.48711
377.07        32.17735
377.52        31.95702
377.97        31.81771
378.42        31.74364
378.87        31.71242
379.32        31.72093
379.77        31.73424
380.22        31.69374
380.67        31.58639
381.11         31.4322
381.56        31.22869
382.01        31.00489
382.46          30.779
382.91        30.54086
383.36        30.33746
383.81        30.23626
384.26        30.23911
384.71        30.33175
385.15        30.41052
385.60        30.32659
386.05         30.0524
386.50        29.63434
386.95        29.20616
387.40        28.98196
387.85        29.00398
388.29        29.19386
388.74        29.42029
389.19        29.46831
389.64        29.29493
390.09        28.95807
390.54        28.58595
390.98        28.37296
391.43        28.38433
391.88        28.53684
392.33        28.69076
392.78        28.64804
393.23         28.3889
393.67        27.97924
394.12        27.59722
394.57        27.39376
395.02         27.4005
395.47        27.55968
395.91        27.78153
396.36        27.87771
396.81        27.80858
397.26        27.62938
397.71        27.43277
398.15        27.33608
398.60         27.3936
399.05        27.53597
399.50        27.68715
399.95        27.74375
400.39        27.68133
400.84         27.5297
401.29        27.34512
401.74        27.23027
402.18        27.22326
402.63        27.28682
403.08        27.35615
403.53        27.32063
403.97        27.15978
404.42         26.9256
404.87        26.70335
405.32         26.6324
405.76        26.73693
406.21        26.96553
406.66        27.22506
407.11        27.37097
407.55        27.36751
408.00        27.26275
408.45        27.11009
408.90        26.93527
409.34        26.79823
409.79        26.81783
410.24        26.92787
410.68         26.9114
411.13         26.7589
411.58        26.58676
412.03        26.44389
412.47        26.37567
412.92        26.39597
413.37        26.47981
413.81        26.60849
414.26        26.77223
414.71        26.94731
415.15        27.14228
415.60        27.28396
416.05        27.28917
416.49        27.14347
416.94        26.87524
417.39         26.5742
417.83        26.38663
418.28        26.35679
418.73        26.43938
419.17         26.5641
419.62         26.6096
420.07        26.55003
420.51        26.42898
420.96        26.29786
421.41        26.20817
421.85         26.1702
422.30        26.17738
422.74        26.21965
423.19        26.32696
423.64         26.4836
424.08        26.69513
424.53        26.89171
424.98         26.9889
425.42        26.96938
425.87        26.85877
426.31        26.70507
426.76        26.59405
427.21        26.53601
427.65        26.49627
428.10        26.49128
428.54        26.51247
428.99        26.55947
429.44        26.75685
429.88          26.962
430.33        26.77546
430.77        26.29161
431.22        26.03546
431.66        26.07745
432.11        26.22311
432.56        26.43024
433.00        26.83012
433.45        27.17715
433.89        27.03364
434.34        26.57077
434.78        26.21131
435.23        25.96579
435.67        26.89607
436.12        26.40347
436.57        26.33917
437.01        26.04603
437.46        25.98906
437.90        26.19322
438.35        26.41795
438.79         26.5635
439.24        26.62204
439.68        26.57399
440.13        26.21735
440.57        25.76153
441.02        25.95515
441.46        26.57212
441.91        26.76671
442.35        25.87097
442.80        25.62777
443.24        25.77438
443.69        25.75871
444.13         25.5677
444.58        25.46592
445.02        25.47639
445.47        25.58933
445.91        25.74515
446.36        25.78851
446.80        25.69027
447.24        25.53241
447.69        25.37357
448.13         25.2507
448.58        25.19245
449.02        25.18035
449.47        25.19021
449.91        25.17417
450.36        25.12635
450.80        25.05696
451.25        24.99627
451.69        24.96416
452.13        24.97344
452.58        25.01035
453.02        25.05357
453.47        25.08013
453.91        25.08254
454.36        25.06298
454.80        25.03476
455.24        25.01564
455.69        25.01863
456.13         25.0127
456.58        25.00136
457.02        24.97867
457.46        24.94145
457.91        24.83755
458.35        24.69852
458.79        24.64046
459.24        24.66548
459.68         24.7471
460.13        24.90045
460.57        24.91522
461.01        24.74896
461.46         25.1116
461.90        25.06863
462.34        24.72733
462.79        24.92994
463.23        24.81338
463.68        24.74393
464.12        24.66814
464.56         24.7808
465.01        24.92067
465.45        25.03619
465.89        25.07754
466.34        25.04244
466.78        24.86166
467.22        24.63065
467.67        24.67981
468.11         24.9602
468.55        24.97833
468.99        24.74677
469.44        24.68902
469.88         24.8157
470.32         24.8774
470.77        24.85903
471.21        24.86144
471.65        24.88558
472.10        24.89993
472.54        24.90548
472.98        24.94937
473.42        25.02921
473.87        25.07206
474.31        25.07556
474.75        25.17236
475.20        25.32065
475.64        25.28869
476.08        25.13633
476.52        25.14194
476.97        25.31804
477.41        25.53518
477.85        25.72156
478.29        25.82401
478.74        25.82584
479.18        25.70132
479.62        25.55514
480.06        25.55705
480.50        25.70697
480.95        25.84128
481.39        25.91108
481.83        25.96376
482.27        25.98832
482.72        25.96043
483.16        25.92278
483.60         25.9456
484.04        26.03704
484.48        26.28483
484.93        26.65771
485.37        26.80835
485.81        26.69316
486.25        27.35048
486.69        28.17197
487.14        27.95864
487.58        27.58374
488.02        27.94872
488.46        27.79089
488.90        27.88878
489.34         27.7781
489.79        27.91147
490.23        28.22377
490.67        28.44327
491.11        28.53054
491.55        28.48414
491.99        28.36566
492.43        28.36017
492.88        28.50055
493.32        28.67041
493.76        28.86772
494.20         29.1185
494.64         29.4091
495.08        29.79343
495.52          30.203
495.96        30.38596
496.41         30.4099
496.85        30.61247
497.29        30.98479
497.73        31.33587
498.17        31.60572
498.61          31.685
499.05        31.62952
499.49        31.74475
499.93        32.06237
500.37         32.3214
500.82        32.50248
501.26         32.8378
501.70        33.23956
502.14        33.27379
502.58        33.02108
503.02        32.98567
503.46        33.20773
503.90        33.42667
504.34        33.57975
504.78        33.67959
505.22        33.70792
505.66        33.67176
506.10        33.62038
506.54         33.6278
506.98        33.71651
507.42        33.87078
507.86        34.05587
508.30        34.21331
508.74        34.32423
509.18        34.40043
509.62        34.47326
510.06        34.59189
510.50        34.76439
510.94        34.97379
511.38        35.16565
511.82        35.25417
512.26        35.22425
512.70        35.10596
513.14        34.97471
513.58        34.94347
514.02        35.03221
514.46         35.2106
514.90         35.4147
515.34        35.46554
515.78        35.40479
516.22        35.29733
516.66        35.22039
517.10        34.98962
517.54        34.62543
517.98        35.04792
518.42        34.89593
518.86        35.07806
519.30        35.17256
519.74        35.30508
520.18        35.42744
520.62        35.44395
521.06        35.35627
521.50        35.18113
521.93        34.96948
522.37        34.81332
522.81        34.74001
523.25         34.7281
523.69        34.75285
524.13        34.77404
524.57        34.77394
525.01        34.75924
525.45        34.73583
525.89        34.71085
526.32        34.68422
526.76        34.65575
527.20        34.60168
527.64         34.4927
528.08          34.328
528.52        34.11594
528.96        33.91209
529.40        33.79854
529.83        33.78602
530.27        33.86017
530.71        33.93622
531.15        33.88231
531.59        33.67779
532.03        33.36837
532.46        33.05323
532.90        32.91092
533.34        32.96588
533.78        33.15361
534.22        33.37585
534.66        33.48187
535.09        33.42807
535.53        33.27742
535.97        33.07716
536.41        32.89733
536.85        32.76886
537.28          32.685
537.72        32.66329
538.16        32.63358
538.60        32.74966
539.04        32.86687
539.47         32.9836
539.91        33.11008
540.35        33.25552
540.79        33.13555
541.22        33.20649
541.66        33.27727
542.10        33.51341
542.54        33.36525
542.97        33.69703
543.41        33.85677
543.85        34.07573
544.29        34.26983
544.72        34.42297
545.16        34.61105
545.60        34.82696
546.04        34.94527
546.47         35.0263
546.91        35.40032
547.35        35.97287
547.79        36.25827
548.22        36.26238
548.66         36.3442
549.10        36.53501
549.53        36.81655
549.97        37.20447
550.41        37.25753
550.84        37.66047
551.28        37.91419
551.72        38.22372
552.15        38.50117
552.59        38.74286
553.03        39.01295
553.46        39.18553
553.90        39.35295
554.34        39.48337
554.77         39.5816
555.21        39.68007
555.65        39.81352
556.08        39.98294
556.52        40.17102
556.96        40.35541
557.39        40.55006
557.83        40.73483
558.27        40.81332
558.70         40.8062
559.14        40.83859
559.57        40.91251
560.01         41.0039
560.45        41.09242
560.88        41.12911
561.32        41.17445
561.75         41.2617
562.19        41.53553
562.63        41.69653
563.06        41.77478
563.50        41.84871
563.93        41.92102
564.37        42.09615
564.80         42.1813
565.24        42.33374
565.68        42.46433
566.11        42.58152
566.55        42.71226
566.98        42.78243
567.42        42.77605
567.85        43.20908
568.29        42.97423
568.72        43.38787
569.16        44.01429
569.60        44.44904
570.03        44.61283
570.47        44.81355
570.90        44.84938
571.34        45.35393
571.77        44.89641
572.21         45.6524
572.64        45.58156
573.08         46.0322
573.51        46.08413
573.95         46.5025
574.38        47.04467
574.82        47.40683
575.25        47.52254
575.69        47.26238
576.12         47.1474
576.56        46.98755
576.99        46.92216
577.42        47.32655
577.86         47.5247
578.29        47.03506
578.73        48.42024
579.16        47.95326
579.60        47.48448
580.03        46.83328
580.47        46.93102
580.90        46.50145
581.33        46.64508
581.77        46.76515
582.20        47.34678
582.64        47.07102
583.07        46.75583
583.51        46.51904
583.94         45.7085
584.37        45.80297
584.81        44.85565
585.24        44.91144
585.68          45.235
586.11        45.28156
586.54        45.23494
586.98        44.65812
587.41        44.59338
587.85        44.57695
588.28        44.79205
588.71        44.72287
589.15        44.41419
589.58        43.91527
590.01        43.87198
590.45        44.29478
590.88        44.42762
591.31        44.45469
591.75        43.85174
592.18        43.96391
592.61         43.7448
593.05        44.20087
593.48        43.95479
593.91        44.88695
594.35        44.71141
594.78        44.71588
595.21        45.16151
595.65        45.20297
596.08        45.53725
596.51        45.54098
596.94        45.50793
597.38        45.43706
597.81        45.78353
598.24        46.14098
598.68        47.06848
599.11         47.1117
599.54        48.19789
599.97        47.98022
600.41        48.27461
600.84        48.89264
601.27        49.55655
601.70        50.07214
602.14        50.23503
602.57        50.64634
603.00          51.312
603.43        51.80052
603.87        52.12302
604.30        52.68828
604.73        53.45057
605.16        53.56538
605.60        53.89406
606.03        54.25331
606.46        55.07747
606.89        56.13388
607.32        56.44627
607.76        56.45411
608.19        56.88781
608.62        57.82962
609.05        57.51772
609.48        57.73765
609.92        58.01982
610.35        57.86059
610.78        58.68089
611.21         59.9716
611.64        59.22415
612.07        59.93819
612.50        60.35128
612.94        60.32436
613.37        60.85773
613.80        60.95094
614.23        61.04419
614.66        61.55465
615.09        61.90484
615.52        62.44951
615.96        62.80466
616.39        63.21926
616.82        63.81478
617.25        62.79139
617.68        63.31007
618.11        63.86286
618.54        64.19463
618.97        64.31133
619.40        63.94835
619.84         63.9579
620.27        63.55096
620.70          64.149
621.13        65.22426
621.56        65.38754
621.99        64.81688
622.42        64.74371
622.85        65.33846
623.28        65.53738
623.71        65.27882
624.14        65.57921
624.57        65.57925
625.00        65.01905
625.43        65.45412
625.86        64.86253
626.29        64.76561
626.72         64.5406
627.15        64.53664
627.58        64.50788
628.01        64.31455
628.44        64.55132
628.87        64.10748
629.30         63.5981
629.73        63.11165
630.16        62.98449
630.59        62.82484
631.02        62.60878
631.45        62.19532
631.88        61.83909
632.31        61.52726
632.74        61.09957
633.17         60.5674
633.60        60.02921
634.03        59.50256
634.46        58.96561
634.89        58.42467
635.32        57.88856
635.75        57.36656
636.18        56.87444
636.61        56.41608
637.04        55.98635
637.47        55.57995
637.89        55.19631
638.32        54.82712
638.75        54.49527
639.18        54.20233
639.61        53.94661
640.04        53.69142
640.47        53.37611
640.90        52.99563
641.33        52.57429
641.76        52.17686
642.18        51.91427
642.61        51.80177
643.04        51.80601
643.47        51.87241
643.90        51.90761
644.33        51.88482
644.76        51.84107
645.18        51.79172
645.61        51.75953
646.04        51.76434
646.47        51.79616
646.90        51.89912
647.33        52.14871
647.75        52.54847
648.18        53.06393
648.61        53.61905
649.04        54.08315
649.47        54.43364
649.89        54.72232
650.32        55.00357
650.75        55.38493
651.18          55.925
651.61        56.49166
652.03        57.10885
652.46         58.1086
652.89        59.28667
653.32        59.74947
653.74        59.70755
654.17        60.10342
654.60        60.74399
655.03         62.3994
655.46         61.4812
655.88        63.28865
656.31        64.94709
656.74        72.68089
657.16        72.04991
657.59        68.66576
658.02        67.26554
658.45         66.5445
658.87        67.57931
659.30        67.89843
659.73        68.43011
660.15        69.41145
660.58        68.66408
661.01        68.45153
661.44        68.30083
661.86        68.66167
662.29        69.43213
662.72         70.2981
663.14         71.0149
663.57        70.98084
664.00        70.41944
664.42        70.31647
664.85        70.77334
665.27        71.14638
665.70        71.35935
666.13        71.67001
666.55        72.03812
666.98        72.28339
667.41        72.41865
667.83        72.56441
668.26        72.71632
668.69        72.81485
669.11        72.88609
669.54         72.9729
669.96        73.08841
670.39        73.30125
670.82         73.5871
671.24        73.66029
671.67        73.75407
672.09        73.98328
672.52        74.36143
672.94        74.69572
673.37          74.891
673.80        74.73322
674.22        74.35552
674.65        74.23272
675.07        74.43743
675.50        74.69781
675.92        74.92909
676.35        75.06838
676.77         75.0869
677.20        75.00779
677.62        74.89954
678.05        74.87991
678.47        74.97108
678.90        75.14296
679.32        75.34583
679.75        75.49031
680.17        75.54571
680.60        75.58356
681.02        75.62955
681.45        75.58824
681.87        75.54453
682.30        75.76995
682.72        76.14397
683.15        76.35619
683.57        76.06495
684.00        76.00417
684.42        76.12527
684.85        76.65291
685.27        76.48784
685.70        76.71918
686.12        76.94267
686.54        77.11288
686.97        77.22707
687.39        76.85326
687.82        76.84752
688.24         76.8109
688.66        76.94918
689.09        76.93137
689.51        76.80177
689.94        76.83241
690.36        77.04916
690.78        77.25566
691.21        77.37803
691.63        77.56204
692.06        77.82349
692.48         77.5274
692.90        77.47726
693.33        77.86073
693.75        77.59869
694.17        77.77935
694.60        77.91864
695.02        77.76783
695.44        77.40057
695.87        77.09618
696.29        77.35726
696.71        77.22548
697.14        77.14626
697.56        77.15375
697.98        78.39402
698.41        79.61178
698.83        78.80882
699.25         78.5015
699.68        78.21428
700.10        78.06345
700.52        78.10812
700.94        78.35744
701.37         78.6879
701.79        78.90473
702.21          78.925
702.64        78.81056
703.06        78.65145
703.48        78.61227
703.90        78.73689
704.33        78.92953
704.75         79.1004
705.17        79.16376
705.59        79.04569
706.01        78.60368
706.44        78.05976
706.86        77.94811
707.28        78.33102
707.70        78.96791
708.12        79.63625
708.55          80.038
708.97        80.08542
709.39        79.88225
709.81        79.55167
710.23        79.31271
710.66        79.24931
711.08        79.29836
711.50        79.41985
711.92        79.57174
712.34        79.73219
712.76         79.9336
713.19        80.11768
713.61        80.24689
714.03        80.27671
714.45        80.21069
714.87        80.13086
715.29        80.17228
715.71        80.35872
716.13         80.6581
716.56        80.94061
716.98        81.07786
717.40        80.99881
717.82        80.75436
718.24        80.47841
718.66        80.38653
719.08        80.52689
719.50        80.82986
719.92        81.16125
720.34        81.30496
720.76        81.21091
721.19        80.95033
721.61        80.64961
722.03        80.47143
722.45         80.4921
722.87        80.63694
723.29        80.85291
723.71        81.04415
724.13        81.17785
724.55        81.29021
724.97        81.39014
725.39        81.48837
725.81        81.58852
726.23        81.66798
726.65        81.74572
727.07        81.86143
727.49        82.01759
727.91        82.21007
728.33        82.38506
728.75        82.43374
729.17        82.36449
729.59        82.19579
730.01        82.01308
730.43        81.94543
730.85        82.02339
731.27          82.188
731.69        82.38316
732.10        82.56909
732.52        82.69849
732.94        82.69053
733.36        82.51839
733.78        82.45238
734.20        82.58675
734.62        82.23129
735.04        81.85706
735.46         82.6241
735.88        82.22951
736.30        82.08328
736.72        82.36573
737.13        82.63347
737.55        82.98986
737.97        83.34299
738.39        83.57637
738.81        83.27803
739.23        82.67686
739.65        82.63284
740.06        82.99214
740.48        83.51923
740.90        83.20891
741.32         82.5474
741.74        82.69292
742.16        82.58453
742.57        82.65651
742.99         82.7954
743.41        82.97586
743.83        83.11543
744.25        83.17085
744.67        83.16437
745.08        83.09357
745.50        82.93009
745.92         82.6983
746.34        82.38409
746.75        82.07323
747.17        81.93024
747.59        81.92361
748.01        82.16376
748.42        82.50208
748.84        82.62203
749.26        82.56501
749.68         82.4207
750.09        82.36058
750.51        82.94081
750.93        83.86047
751.35        83.94566
751.76        83.31246
752.18        82.69947
752.60        82.95238
753.01        83.02275
753.43        82.57809
753.85        82.52421
754.27        82.70406
754.68        83.13131
755.10        83.67274
755.52        83.54789
755.93        83.64915
756.35        83.40111
756.77        83.18324
757.18        83.13047
757.60        83.34592
758.02        83.58604
758.43        83.64537
758.85        84.18298
759.26        84.31586
759.68        83.48874
760.10        83.40967
760.51        83.37891
760.93        83.60639
761.34         82.6459
761.76        83.33612
762.18        83.06894
762.59        82.89658
763.01        82.43851
763.42         82.9956
763.84        83.49459
764.26        84.10158
764.67         84.0485
765.09        83.57825
765.50         83.8563
765.92        84.72562
766.33        84.94167
766.75        84.39793
767.16        83.82588
767.58         83.3799
768.00        83.15286
768.41        83.26227
768.83        83.54584
769.24        83.90642
769.66        84.48055
770.07         85.0486
770.49        84.91341
770.90        84.28328
771.32        84.35457
771.73        85.05322
772.15        85.21347
772.56        84.82151
772.97        84.57303
773.39        84.45457
773.80        84.32861
774.22         83.8839
774.63        83.48676
775.05        83.17816
775.46         83.1875
775.88        83.52086
776.29        84.14938
776.70        84.81034
777.12        85.08808
777.53        84.89806
777.95        84.32524
778.36        83.65092
778.77        83.36157
779.19        83.58585
779.60        84.23306
780.02        84.97511
780.43        85.51015
780.84        85.73755
781.26        85.24052
781.67        84.44402
782.09        85.27597
782.50        87.21112
782.91        87.21244
783.33        85.46617
783.74        84.84808
784.15        85.49769
784.57        85.88126
784.98        85.79404
785.39        85.45978
785.81        84.92323
786.22        84.46338
786.63        84.20748
787.04        84.06561
787.46        84.07318
787.87        84.35146
788.28        84.80084
788.70        85.13333
789.11        85.27179
789.52        85.32526
789.93        85.34941
790.35        85.34207
790.76        85.36424
791.17        85.55048
791.58        85.80413
792.00        85.74055
792.41        85.35117
792.82        85.00768
793.23        84.78227
793.65        84.39018
794.06         84.1045
794.47        84.65849
794.88         85.7069
795.29        86.94749
795.71        86.49429
796.12        86.35182
796.53         86.1101
796.94        85.56433
797.35        84.93616
797.76         84.9022
798.18         85.3925
798.59        85.65884
799.00        85.62627
799.41        85.76744
799.82        86.04018
800.23        86.14183
800.64        86.04675
801.06        85.78677
801.47        85.54051
801.88        85.53944
802.29        85.81961
802.70        86.27868
803.11        86.72068
803.52        86.82261
803.93        86.52935
804.34        85.98191
804.75        85.33194
805.17        84.91708
805.58        84.88172
805.99        84.78785
806.40        84.72383
806.81        85.67148
807.22        87.18789
807.63        87.36213
808.04        86.25484
808.45        86.07349
808.86        86.92651
809.27        87.68254
809.68        88.11011
810.09        88.33482
810.50        88.27206
810.91        87.92025
811.32        87.44237
811.73        87.01551
812.14        86.70033
812.55          86.643
812.96        86.74431
813.37        86.38429
813.78        85.72889
814.19         85.8133
814.60        86.48805
815.01        86.70069
815.42        86.39328
815.83        86.11645
816.24        85.99111
816.65        85.97915
817.05        86.12761
817.46        86.37759
817.87        86.66564
818.28        86.84412
818.69        86.89963
819.10         86.8912
819.51        86.83808
819.92        86.90969
820.33        87.16676
820.74        87.15768
821.14        87.02148
821.55        87.89235
821.96        89.34354
822.37        89.19115
822.78        87.66516
823.19        87.07926
823.60        87.61507
824.00        88.00158
824.41        87.99902
824.82        87.96883
825.23        87.87132
825.64        87.62906
826.04        87.39034
826.45        87.33679
826.86        87.51691
827.27          87.885
827.68         88.2969
828.08        88.52451
828.49        88.43276
828.90        88.12513
829.31        87.73359
829.72        87.49323
830.12         87.4993
830.53         87.6409
830.94        87.82882
831.35        87.89123
831.75        87.81211
832.16        87.61406
832.57        87.39053
832.97        87.27089
833.38        87.26846
833.79        87.32868
834.20        87.42831
834.60        87.52889
835.01        87.62772
835.42        87.75999
835.82        87.86134
836.23        87.75597
836.64        87.45337
837.04        86.98946
837.45        86.57246
837.86        86.59566
838.26        87.14781
838.67        88.08525
839.08        89.08073
839.48        89.51077
839.89         89.2151
840.29        88.42564
840.70        87.57446
841.11         87.2135
841.51        87.49005
841.92        88.14732
842.33        89.03886
842.73        89.91446
843.14        90.52199
843.54        91.01808
843.95        91.19849
844.35        90.82732
844.76        89.94105
845.17        88.66309
845.57         87.3907
845.98        86.76276
846.38        86.91351
846.79        87.67031
847.19        88.79925
847.60        89.67522
848.00        90.13284
848.41        90.25183
848.81        90.20776
849.22        90.19801
849.62         90.3448
850.03         90.5038
850.43        90.67242
850.84        90.73139
851.24        90.72375
851.65        90.63573
852.05        90.58389
852.46        90.62305
852.86        90.76883
853.27         90.9605
853.67        91.06731
854.07         91.1713
854.48        91.16702
854.88        90.84396
855.29        90.24956
855.69        89.90154
856.10        89.79145
856.50        89.81219
856.90        89.85137
857.31        89.83893
857.71        89.81861
858.12        89.74155
858.52        89.69511
858.92         89.6954
859.33        89.72442
859.73        89.82518
860.13        89.93999
860.54        89.98334
860.94        90.00597
861.34        89.96146
861.75        89.86093
862.15        89.83735
862.55        89.86593
862.96        89.94053
863.36        89.98371
863.76        89.81953
864.17        89.43202
864.57        88.91905
864.97        88.45578
865.38        88.28577
865.78        88.51193
866.18        88.98051
866.58         89.5149
866.99        89.79958
867.39        89.77764
867.79        89.50596
868.19        88.96819
868.60        88.11604
869.00         86.9762
869.40        85.61846
869.80        84.38591
870.21        83.85474
870.61        84.20937
871.01        85.21562
871.41        86.43048
871.81        87.12917
872.22        87.12164
872.62        86.64332
873.02        85.89388
873.42        85.31623
873.82        84.96581
874.22        84.44462
874.63        83.92823
875.03         83.9091
875.43        84.42527
875.83        85.82771
876.23        86.41087
876.63        86.54153
877.03        85.87835
877.44        84.47437
877.84        114.8915
878.24        83.62373
878.64        84.11083
879.04        86.04649
879.44        84.33654
879.84        83.20703
880.24        85.13603
880.64        84.86297
881.04        82.93776
881.44        81.77699
881.84        81.81986
882.24        82.65997
882.65        83.71758
883.05         84.0629
883.45         83.3772
883.85        82.13547
884.25         80.9581
884.65        80.60159
885.05        81.23279
885.45        82.59197
885.85        84.12448
886.25        84.90331
886.65        84.67565
887.05        83.75246
887.45        82.63785
887.85        82.08451
888.25        82.29318
888.65        83.03059
889.04        84.00751
889.44        84.63721
889.84        84.75848
890.24        84.53353
890.64        84.16718
891.04        83.95751
891.44         83.9568
891.84        84.01859
892.24        83.98574
892.64        83.62112
893.04         82.9176
893.44        82.07854
893.83        81.19838
894.23        80.43027
894.63        79.81155
895.03        79.28204
895.43        79.01766
895.83        79.31292
896.23        80.16712
896.63        81.47549
897.02        82.79845
897.42        83.31818
897.82        82.86939
898.22        81.69918
898.62        80.31152
899.01        79.48858
899.41        79.46764
899.81        79.98318
900.21        80.77967
900.61        81.46584
901.00        81.89529
901.40        82.16872
901.80        82.32457
902.20          82.395
902.59        82.41813
902.99        82.36275
903.39        82.20412
903.79        81.92215
904.18        81.53391
904.58        81.10394
904.98        80.82056
905.38        80.96728
905.77        81.55215
906.17        82.48454
906.57        83.41455
906.96        83.82377
907.36        83.56026
907.76        82.76286
908.15        81.80265
908.55         81.2216
908.95        81.18971
909.34        81.61136
909.74        82.11304
910.14        82.05524
910.53        81.29533
910.93         80.1092
911.33        79.05149
911.72        78.98665
912.12        80.02453
912.52        81.77493
912.91        83.61341
913.31         84.5243
913.70        84.31703
914.10        83.26924
914.49        81.75588
914.89        80.58289
915.29        80.10481
915.68        80.10054
916.08        80.47008
916.47        81.03185
916.87        81.65953
917.26        82.38364
917.66        83.06113
918.05        83.48081
918.45        83.55551
918.84        83.37225
919.24        82.89526
919.64        82.11692
920.03        81.12571
920.42        79.98723
920.82        79.10889
921.21        79.04176
921.61        79.81326
922.00        81.30034
922.40        82.89848
922.79        83.83955
923.19        83.85266
923.58        83.01936
923.98        81.69621
924.37          80.927
924.77         81.1407
925.16        80.08915
925.55        81.18588
925.95        81.13079
926.34         80.9366
926.74        80.61732
927.13        80.45798
927.52        80.72112
927.92        81.40378
928.31         82.4603
928.70        83.51596
929.10        83.94038
929.49        83.58826
929.89        82.65091
930.28         81.6092
930.67        81.23322
931.07        81.68103
931.46        82.73544
931.85        83.97427
932.24        84.78738
932.64        84.98038
933.03        84.67763
933.42        84.03244
933.82        83.40071
934.21        82.91883
934.60        82.54063
934.99        82.04904
935.39        81.25797
935.78        80.15753
936.17        78.49808
936.56        76.49809
936.96        77.09966
937.35        76.97231
937.74        78.61581
938.13        80.33733
938.53        81.55322
938.92        82.19508
939.31        82.44128
939.70        82.41712
940.09        82.27775
940.49        82.12776
940.88        81.95255
941.27        81.80665
941.66        81.80578
942.05        81.96439
942.44        82.25343
942.84         82.6686
943.23        83.21127
943.62        83.81893
944.01        84.50486
944.40         85.0472
944.79        85.10752
945.18        84.62359
945.57        83.62822
945.97        82.54836
946.36        82.15268
946.75        82.66332
947.14         83.8237
947.53        85.00736
947.92        85.33938
948.31         84.6844
948.70        83.32863
949.09        81.77814
949.48          80.918
949.87        81.01392
950.26        81.77901
950.65         82.8082
951.04        83.43028
951.43        83.41924
951.82        82.99299
952.21        82.34503
952.60        81.77124
952.99        81.39613
953.38        81.12414
953.77        80.93769
954.16        80.83167
954.55        80.79195
954.94        80.84252
955.33        80.98529
955.72        81.19393
956.11        81.45659
956.50        81.77458
956.89        82.06656
957.28         82.2012
957.66        82.15172
958.05        81.88609
958.44        81.58022
958.83        81.46449
959.22        81.57085
959.61        81.86678
960.00        82.11031
960.39        81.87384
960.78        81.08518
961.16        79.86858
961.55        78.70258
961.94        78.18616
962.33        78.44084
962.72        79.29404
963.11        80.29861
963.49        80.70576
963.88        80.21796
964.27        79.10451
964.66        77.83387
965.04         77.1756
965.43         77.3372
965.82        78.11742
966.21        79.12718
966.60         79.7356
966.98        79.77734
967.37        79.40235
967.76        78.99241
968.15        79.13432
968.53        79.94621
968.92        81.11412
969.31        82.20592
969.69        82.52354
970.08        81.85248
970.47        80.51246
970.86        78.86182
971.24        77.44003
971.63          76.517
972.02        75.96857
972.40        75.81568
972.79        76.08283
973.17        76.73743
973.56        77.66548
973.95        78.70857
974.33        79.54208
974.72        79.92448
975.11        79.93646
975.49        79.56702
975.88        78.83097
976.26        77.83896
976.65        76.68035
977.04        75.61804
977.42        75.10878
977.81        75.26929
978.19         75.9435
978.58        77.00191
978.96         78.2413
979.35        79.43144
979.74        80.72411
980.12        81.75089
980.51        81.63734
980.89         80.4405
981.28          78.379
981.66        76.44652
982.05        76.07414
982.43        77.40093
982.82        80.01149
983.20        82.95814
983.59        84.16521
983.97        83.14339
984.35        80.40234
984.74         77.1179
985.12        75.04848
985.51        74.69881
985.89        75.63586
986.28        77.18404
986.66        78.08494
987.04        77.75845
987.43        76.78459
987.81        75.57043
988.20        74.58234
988.58        73.87828
988.96        73.21203
989.35        72.56905
989.73        72.25736
990.12        72.35158
990.50        72.94817
990.88        73.68626
991.27        74.14075
991.65        74.35699
992.03        74.38362
992.42          74.494
992.80        75.18559
993.18        76.51944
993.56        78.22033
993.95        79.74928
994.33        80.72781
994.71        80.94588
995.10        80.50968
995.48        79.82239
995.86        79.43961
996.24        79.54636
996.63        80.14115
997.01        80.71714
997.39        80.12164
997.77        78.15831
998.15        75.37086
998.54        73.07071
998.92        72.64072
999.30        74.32504
999.68         78.1923
1000.06        83.17961
1000.45        85.15578
1000.83        82.39745
1001.21        76.81617
1001.59        71.52263
1001.97        69.00409
1002.35        69.15839
1002.73        71.16032
1003.12        74.12872
1003.50        76.15896
1003.88        76.07729
1004.26        74.58459
1004.64        72.38522
1005.02        70.38573
1005.40        68.93186
1005.78        67.68434
1006.16        66.92498
1006.54        67.31369
1006.92        68.71903
1007.30        70.64924
1007.69        72.50553
1008.07        73.88249
1008.45        74.76634
1008.83        75.42597
1009.21        75.45663
1009.59        73.78113
1009.97        69.97249
1010.35        64.50298
1010.73        59.99314
1011.11        59.28815
1011.49        62.22536
1011.86        67.85309
1012.24        73.25927
1012.62         75.6112
1013.00        74.66153
1013.38        71.48492
1013.76        67.51675
1014.14        65.26987
1014.52        65.52691
1014.90        67.45596
1015.28        69.97871
1015.66        71.35342
1016.04         70.9059
1016.41         69.0844
1016.79        66.23647
1017.17        63.67579
1017.55        62.26226
1017.93         61.7018
1018.31        61.52751
1018.69        61.18446
1019.06        60.51622
1019.44        59.47302
1019.82        58.31907
1020.20         57.6487
1020.58        57.71419
1020.95        58.33193
1021.33        58.75904
1021.71        57.39129
1022.09        53.20208
1022.46        43.97165
1022.84        28.86838
1023.22        21.70892
1023.60        32.51118
1023.97        46.56289
1024.35        55.07961
1024.73        58.51314
