SpectraSmart Spectrum 2.9.0.0
--------- Device Information -----------
Spectrum Name :  反射率_0
Saving Time :  2024/04/20 01:01:15
Spectro-Module Model Name : SE2030-DUVN
Spectro-Module Serial Number : OS361AC55029948
Wavelength Start : 200
Wavelength End : 1025
Wavelength Unit : Wavelength(nm)
Spectrum Unit : Reflectance(%)
-----------Spectrum Setting ------------
Integration Time : 30ms
Average : 10
Boxcar : 0
Background removal :  enabled
linearity correction :  enabled
SC :  disabled
Intensity correction :  disabled
DWT denoise :  enabled
savitzky-golay :  disabled
FFT :  disabled
Running average :  disabled
Kalman :  disabled
High pass :  disabled
---------------BEGIN--------------------
Wavelength(nm)             Reflectance(%)
200.29               0
200.75        61.54664
201.21        63.58252
201.67        67.86203
202.13        74.16167
202.58        81.95377
203.04        91.26035
203.50        98.97907
203.96        98.43122
204.42        90.47743
204.88        80.21003
205.34        71.46336
205.80        65.50855
206.26        61.19916
206.72        57.05111
207.18        53.26986
207.64        52.71807
208.10         57.5286
208.55        66.42065
209.01          74.033
209.47        76.99586
209.93        75.95683
210.39        72.22242
210.85        68.06844
211.31        66.05867
211.77         66.5765
212.23        69.36517
212.69        73.40906
213.14        74.78117
213.60        71.86471
214.06        67.81979
214.52        65.12433
214.98        65.24038
215.44        67.77805
215.90        71.87501
216.36        76.91699
216.81        80.83743
217.27        82.21072
217.73         82.0201
218.19         80.0349
218.65        75.73642
219.11        69.26197
219.57        60.24528
220.02        51.11983
220.48        48.46595
220.94        54.19815
221.40        66.97279
221.86        81.25975
222.32        88.58962
222.77        87.10846
223.23         79.6799
223.69        70.80154
224.15        67.03513
224.61        69.03002
225.06        73.70335
225.52        78.36662
225.98        80.72864
226.44        80.73881
226.90        79.40243
227.36        77.79794
227.81        77.51908
228.27        79.10234
228.73        81.51514
229.19        83.58945
229.65         84.0789
230.10        82.97337
230.56        81.12139
231.02        79.23359
231.48          78.223
231.93         78.1027
232.39        78.51555
232.85        78.99726
233.31        78.93004
233.77        78.15494
234.22        76.93995
234.68        75.42831
235.14        73.79233
235.60         72.2336
236.05         70.7552
236.51        69.59528
236.97        69.07346
237.43        69.25729
237.88        70.37092
238.34        72.00851
238.80         73.4077
239.26        73.82671
239.71        73.19013
240.17        71.76237
240.63        70.62148
241.08        70.12844
241.54        70.06277
242.00        69.74109
242.46        67.68634
242.91        63.08858
243.37        54.91819
243.83        43.94613
244.28        37.78711
244.74        43.64237
245.20        59.58845
245.66         75.1784
246.11        81.95877
246.57        79.43005
247.03         68.4308
247.48        50.85439
247.94        41.92178
248.40        46.50529
248.85        54.76646
249.31        61.47441
249.77        65.33199
250.22        67.08643
250.68        67.96093
251.14        68.11106
251.59        67.30079
252.05        65.73538
252.51        63.50589
252.96        60.69432
253.42        58.03248
253.88         56.1169
254.33        55.02711
254.79        55.95308
255.25         59.6719
255.70        65.41698
256.16         72.0246
256.62        77.50585
257.07        79.65373
257.53        78.72848
257.99        75.71817
258.44        71.66342
258.90        68.75629
259.35        66.95354
259.81        66.17521
260.27        65.57783
260.72        64.45194
261.18        63.04991
261.63        61.23339
262.09        59.77066
262.55        59.15386
263.00        59.28207
263.46        59.99268
263.91        60.46998
264.37        60.09394
264.83        58.83821
265.28        56.95146
265.74        55.28659
266.19        54.55025
266.65        54.88842
267.11        55.84682
267.56        56.83477
268.02        57.01762
268.47        56.23699
268.93        54.80281
269.38        53.07137
269.84        51.83687
270.30        51.29514
270.75        51.21409
271.21        51.29789
271.66        51.08498
272.12        50.45579
272.57        49.56423
273.03        48.62445
273.48         47.8562
273.94        47.38156
274.39        47.06723
274.85        46.82395
275.31        46.47179
275.76        45.93768
276.22        45.29886
276.67        44.61931
277.13        44.12911
277.58        43.78275
278.04        43.55687
278.49        43.20822
278.95         42.4992
279.40        41.37667
279.86        40.06004
280.31        38.73233
280.77         37.8164
281.22        37.30309
281.68        37.09638
282.13        36.99488
282.59        36.76253
283.04        36.31744
283.50        35.78078
283.95        35.18565
284.41        34.63727
284.86        34.13372
285.32        33.65937
285.77        33.21854
286.22        32.90392
286.68        32.71837
287.13        32.61903
287.59        32.51495
288.04        32.22276
288.50        31.74174
288.95        31.09148
289.41        30.42708
289.86        29.91138
290.32        29.63161
290.77         29.5156
291.22        29.48202
291.68        29.37359
292.13        29.15392
292.59        28.88988
293.04        28.66771
293.50         28.6397
293.95        28.82107
294.40         29.1455
294.86        29.51085
295.31        29.77177
295.77        29.88938
296.22        29.90783
296.68        29.88568
297.13        29.89629
297.58        29.98049
298.04        30.12605
298.49        30.31959
298.95        30.57692
299.40        30.87903
299.85        31.22544
300.31        31.59963
300.76        31.96848
301.21        32.31748
301.67        32.66882
302.12        32.97718
302.58        33.23787
303.03        33.42794
303.48        33.55717
303.94        33.70161
304.39        33.94278
304.84        34.29336
305.30        34.71371
305.75         35.0745
306.20        35.19797
306.66        35.08103
307.11        34.78613
307.57        34.45509
308.02        34.22932
308.47        34.17311
308.93         34.2288
309.38        34.36317
309.83        34.57055
310.29        34.81294
310.74        35.08726
311.19        35.28651
311.65        35.24012
312.10        34.92585
312.55        34.39944
313.00        33.81931
313.46        33.43365
313.91        33.28888
314.36        33.33456
314.82        33.45557
315.27        33.48073
315.72        33.34818
316.18        33.11993
316.63        32.86053
317.08        32.67333
317.53        32.57969
317.99        32.53046
318.44        32.47611
318.89        32.33364
319.35         32.0863
319.80        31.77156
320.25         31.4381
320.70        31.16037
321.16        30.95719
321.61        30.80874
322.06        30.69057
322.51        30.56463
322.97        30.41058
323.42        30.24872
323.87        30.07025
324.32        29.86594
324.78        29.63365
325.23        29.37965
325.68        29.12234
326.13        28.90097
326.59        28.72705
327.04         28.6149
327.49        28.53832
327.94        28.45528
328.39        28.35366
328.85        28.22404
329.30        28.13103
329.75        28.14224
330.20        28.26274
330.66        28.44244
331.11        28.61155
331.56        28.60739
332.01         28.3943
332.46        28.01743
332.92        27.56952
333.37         27.2192
333.82        27.02908
334.27        26.97406
334.72        27.00285
335.17        27.02049
335.63        26.98424
336.08        26.92604
336.53        26.88954
336.98        26.95493
337.43        27.13085
337.88        27.38589
338.34        27.59222
338.79        27.59389
339.24        27.34633
339.69        26.89983
340.14        26.43919
340.59        26.27178
341.05        26.45277
341.50        26.89377
341.95        27.38432
342.40        27.59706
342.85        27.45997
343.30        27.08846
343.75         26.6357
344.20         26.3523
344.66        26.30688
345.11         26.3875
345.56        26.53969
346.01        26.67592
346.46        26.74863
346.91        26.80458
347.36        26.77126
347.81        26.52363
348.26        26.07578
348.72        25.50099
349.17        24.94805
349.62        24.74548
350.07        24.95912
350.52         25.4649
350.97        26.09208
351.42        26.58366
351.87        26.85035
352.32        26.95571
352.77        26.89553
353.22        26.67152
353.67        26.31715
354.13        25.84871
354.58         25.3532
355.03         25.0108
355.48         24.8682
355.93        24.90251
356.38        25.02523
356.83        25.07978
357.28        25.01842
357.73        24.86888
358.18        24.70163
358.63        24.63681
359.08        24.69396
359.53         24.8249
359.98        24.91767
360.43        24.80975
360.88        24.47866
361.33        23.98525
361.78        23.46872
362.23        23.15324
362.68        23.08898
363.13        23.19819
363.58        23.35205
364.03        23.35042
364.48         23.1399
364.93        22.78613
365.38        22.36099
365.83        21.98707
366.28        21.71544
366.73         21.5099
367.18        21.35986
367.63        21.25054
368.08        21.16612
368.53         21.1128
368.98         21.0701
369.43        20.99755
369.88        20.88716
370.33        20.75043
370.78        20.59213
371.23        20.42919
371.68        20.27274
372.13        20.11244
372.58        19.98604
373.03        19.95533
373.48        20.02048
373.93        20.15746
374.38        20.27727
374.83        20.24357
375.28        20.03059
375.72        19.66886
376.17        19.27196
376.62        18.98522
377.07        18.85551
377.52        18.84313
377.97         18.8832
378.42        18.87329
378.87        18.78368
379.32        18.64395
379.77        18.50028
380.22        18.41714
380.67         18.4056
381.11        18.44546
381.56        18.46855
382.01        18.38406
382.46        18.17507
382.91        17.87188
383.36        17.56794
383.81         17.4007
384.26        17.39706
384.71         17.5225
385.15        17.66471
385.60        17.65506
386.05        17.46098
386.50         17.1338
386.95        16.80745
387.40        16.69238
387.85        16.82181
388.29         17.1133
388.74         17.4116
389.19        17.49694
389.64        17.32863
390.09        16.97602
390.54          16.574
390.98        16.33124
391.43        16.31552
391.88        16.44611
392.33        16.60338
392.78        16.61565
393.23        16.45905
393.67        16.19393
394.12        15.94333
394.57        15.81783
395.02        15.84036
395.47        15.96387
395.91        16.12647
396.36        16.20433
396.81        16.16586
397.26        16.04445
397.71        15.89546
398.15        15.78729
398.60        15.75872
399.05         15.7787
399.50        15.80164
399.95        15.76303
400.39        15.65028
400.84         15.4829
401.29        15.32388
401.74        15.28644
402.18        15.40002
402.63        15.61724
403.08        15.83851
403.53        15.90546
403.97        15.78632
404.42        15.54021
404.87         15.2701
405.32        15.14727
405.76        15.21079
406.21        15.40137
406.66        15.62867
407.11        15.75177
407.55        15.73362
408.00        15.62201
408.45        15.46658
408.90        15.31362
409.34        15.20947
409.79         15.2093
410.24        15.26802
410.68        15.25304
411.13        15.15643
411.58        15.05364
412.03         14.9704
412.47        14.92747
412.92        14.93248
413.37        14.96615
413.81        15.03422
414.26        15.16048
414.71        15.33241
415.15        15.55023
415.60        15.72688
416.05         15.7467
416.49        15.58733
416.94        15.28985
417.39        14.96656
417.83        14.80042
418.28        14.84074
418.73         15.0277
419.17        15.26112
419.62        15.36983
420.07         15.3179
420.51        15.16306
420.96        14.97895
421.41        14.86116
421.85        14.83268
422.30        14.86608
422.74        14.93257
423.19        15.02016
423.64        15.10948
424.08        15.21599
424.53        15.30177
424.98        15.32419
425.42        15.27838
425.87        15.17866
426.31        15.05419
426.76        14.96143
427.21        14.90709
427.65        14.87101
428.10        14.86954
428.54        14.90252
428.99        14.96779
429.44        15.13232
429.88        15.30335
430.33        15.23259
430.77        14.97119
431.22        14.81982
431.66        14.83283
432.11        14.92507
432.56        15.07741
433.00        15.35541
433.45        15.58209
433.89        15.49311
434.34        15.18673
434.78        14.83837
435.23        14.47691
435.67        15.11758
436.12        14.65399
436.57         14.6464
437.01        14.51152
437.46        14.49455
437.90          14.594
438.35        14.68795
438.79        14.74459
439.24        14.78074
439.68        14.78913
440.13        14.64616
440.57        14.43369
441.02        14.51841
441.46        14.76614
441.91        14.72838
442.35        14.09427
442.80         13.8909
443.24        13.97531
443.69        14.02756
444.13         13.9999
444.58        13.97625
445.02        13.95164
445.47        13.94393
445.91        13.94096
446.36        13.89244
446.80        13.79436
447.24        13.67739
447.69        13.57615
448.13        13.51229
448.58        13.49967
449.02        13.53083
449.47        13.57289
449.91        13.56585
450.36        13.50221
450.80        13.39493
451.25        13.29406
451.69        13.26251
452.13        13.31593
452.58        13.42523
453.02        13.54323
453.47        13.59598
453.91         13.5687
454.36        13.48386
454.80        13.37694
455.24         13.3083
455.69        13.30082
456.13        13.31782
456.58        13.35182
457.02        13.38576
457.46        13.41123
457.91        13.40684
458.35         13.3755
458.79        13.35082
459.24        13.33555
459.68        13.32075
460.13        13.35228
460.57        13.37244
461.01        13.36816
461.46        13.69927
461.90        13.81956
462.34        13.71086
462.79        13.82536
463.23        13.70624
463.68         13.5885
464.12        13.49351
464.56        13.54772
465.01        13.64205
465.45        13.73911
465.89         13.7961
466.34        13.80629
466.78        13.74138
467.22        13.64372
467.67        13.67852
468.11        13.81548
468.55        13.78164
468.99        13.61018
469.44        13.57641
469.88        13.69348
470.32        13.81269
470.77        13.88571
471.21        13.90842
471.65        13.86945
472.10        13.77485
472.54         13.6671
472.98        13.64675
473.42        13.72959
473.87        13.84343
474.31         13.9521
474.75        14.08424
475.20        14.19647
475.64        14.15247
476.08        14.00986
476.52         13.9809
476.97        14.08263
477.41        14.21962
477.85         14.3412
478.29          14.409
478.74        14.40866
479.18         14.3269
479.62        14.23079
480.06        14.22896
480.50        14.32033
480.95        14.40488
481.39        14.43974
481.83        14.42905
482.27        14.36852
482.72        14.26023
483.16         14.1483
483.60        14.11082
484.04        14.15168
484.48        14.29923
484.93        14.58862
485.37        14.71237
485.81        14.71017
486.25        15.25548
486.69         15.4699
487.14        14.82683
487.58        14.87788
488.02        15.46782
488.46        15.06106
488.90        15.07679
489.34        14.94561
489.79        15.04213
490.23        15.29773
490.67        15.47565
491.11        15.52868
491.55         15.4348
491.99        15.24678
492.43        15.14582
492.88        15.16813
493.32        15.19368
493.76        15.23147
494.20        15.35353
494.64        15.55653
495.08        15.80974
495.52        16.06817
495.96        16.27516
496.41         16.4129
496.85        16.46377
497.29        16.45691
497.73         16.5204
498.17        16.64405
498.61        16.65088
499.05        16.56589
499.49        16.59679
499.93        16.76038
500.37        16.91012
500.82         17.0346
501.26        17.25417
501.70        17.51692
502.14        17.59033
502.58        17.50335
503.02        17.50533
503.46        17.61309
503.90        17.69135
504.34        17.71719
504.78        17.71442
505.22        17.68232
505.66        17.62803
506.10        17.57259
506.54        17.54446
506.98        17.55613
507.42         17.6031
507.86        17.68781
508.30        17.81184
508.74        17.96428
509.18        18.13283
509.62         18.2948
510.06        18.41516
510.50        18.48557
510.94        18.52051
511.38        18.51754
511.82         18.4765
512.26        18.40839
512.70        18.31472
513.14        18.24621
513.58        18.27843
514.02         18.4131
514.46        18.62738
514.90        18.84493
515.34        18.88512
515.78        18.74476
516.22        18.55013
516.66        18.39859
517.10        18.09415
517.54        17.66796
517.98        18.27176
518.42        18.16608
518.86        18.44772
519.30         18.5761
519.74        18.72349
520.18        18.85069
520.62        18.87239
521.06        18.79991
521.50         18.6406
521.93        18.44724
522.37         18.3178
522.81        18.27749
523.25        18.30309
523.69        18.36326
524.13        18.40575
524.57        18.41206
525.01         18.3965
525.45        18.36831
525.89        18.34034
526.32        18.31671
526.76        18.29322
527.20        18.25963
527.64        18.20678
528.08        18.13307
528.52        18.03932
528.96        17.94935
529.40        17.89671
529.83        17.88618
530.27        17.91549
530.71         17.9386
531.15        17.88349
531.59        17.74277
532.03        17.54168
532.46        17.35021
532.90        17.29366
533.34        17.38478
533.78        17.57697
534.22        17.78782
534.66        17.89083
535.09        17.85229
535.53        17.72034
535.97        17.54368
536.41        17.39754
536.85        17.31102
537.28        17.27063
537.72        17.27691
538.16        17.27691
538.60        17.34673
539.04        17.41552
539.47        17.48716
539.91        17.57141
540.35        17.67399
540.79         17.6399
541.22        17.70391
541.66        17.75296
542.10        17.87215
542.54        17.76806
542.97         17.9124
543.41        17.97687
543.85        18.08826
544.29        18.20193
544.72        18.28734
545.16        18.34868
545.60        18.37919
546.04         18.3257
546.47        18.26318
546.91        18.42598
547.35        18.77245
547.79         19.0462
548.22         19.1944
548.66        19.26513
549.10        19.28756
549.53        19.40378
549.97        19.62407
550.41        19.60674
550.84        19.71949
551.28        19.76637
551.72        19.88564
552.15        20.05788
552.59        20.28335
553.03        20.55426
553.46         20.8083
553.90        20.96945
554.34        21.02315
554.77        20.99464
555.21        20.94152
555.65        20.94551
556.08        21.02662
556.52        21.15892
556.96        21.31365
557.39          21.474
557.83        21.61758
558.27         21.6977
558.70        21.72721
559.14        21.76846
559.57        21.82089
560.01         21.8785
560.45         21.9189
560.88        21.88161
561.32        21.81414
561.75         21.7851
562.19        21.88531
562.63        21.94404
563.06        21.98016
563.50        22.04513
563.93        22.13213
564.37        22.27063
564.80        22.35454
565.24        22.47685
565.68        22.57468
566.11        22.64433
566.55        22.70433
566.98        22.66915
567.42        22.57859
567.85        22.88949
568.29         22.9661
568.72        23.24118
569.16        23.48483
569.60        23.69316
570.03        23.83452
570.47         23.9371
570.90        23.89797
571.34        24.15584
571.77        23.94789
572.21        24.20253
572.64        24.37198
573.08         24.4576
573.51        24.71852
573.95        25.21815
574.38        25.28501
574.82        25.44444
575.25        25.49094
575.69        25.34468
576.12        25.29702
576.56        25.32927
576.99        25.51191
577.42        25.62355
577.86        25.46684
578.29        25.47597
578.73        25.79339
579.16        25.55018
579.60         25.3098
580.03        25.47064
580.47        25.58122
580.90        25.15871
581.33        25.17572
581.77        25.15513
582.20        25.51921
582.64        25.02654
583.07        24.50455
583.51        24.83893
583.94        24.50738
584.37        24.45435
584.81        24.29462
585.24        24.11921
585.68        23.98985
586.11        23.94878
586.54        23.93386
586.98        23.81192
587.41        23.85435
587.85        23.85485
588.28        23.85576
588.71        23.77821
589.15        23.68869
589.58         23.3039
590.01        23.51338
590.45        23.63496
590.88        23.70558
591.31        23.58547
591.75        23.26331
592.18        23.39589
592.61        23.42825
593.05        23.72891
593.48        23.58024
593.91        24.05293
594.35        23.68388
594.78        23.84492
595.21        24.27802
595.65        24.55305
596.08        24.32958
596.51        24.28439
596.94        24.39394
597.38        24.51537
597.81        24.68278
598.24         24.9435
598.68        25.44184
599.11         25.4525
599.54        26.29264
599.97        25.86279
600.41        26.17488
600.84        26.80571
601.27        27.06147
601.70        27.45397
602.14        27.69315
602.57        28.06432
603.00        28.55252
603.43        28.97035
603.87        29.31885
604.30          29.669
604.73        30.03665
605.16        30.46781
605.60        30.74923
606.03        31.26304
606.46        31.85418
606.89        32.31086
607.32        32.76033
607.76        33.07034
608.19        33.45535
608.62        33.73641
609.05        33.95864
609.48        34.27423
609.92        34.63998
610.35        34.96422
610.78        35.56726
611.21        35.99474
611.64        36.13958
612.07        36.69946
612.50        37.07744
612.94        37.16692
613.37        37.72568
613.80        37.98975
614.23        38.23152
614.66         38.6926
615.09        38.98576
615.52        39.38691
615.96        39.70945
616.39        40.00256
616.82        40.31164
617.25        40.19999
617.68        40.64541
618.11        40.93639
618.54        41.28729
618.97        41.56368
619.40        41.56293
619.84        41.70493
620.27         41.8185
620.70        41.99251
621.13        42.42822
621.56        42.66175
621.99        42.84735
622.42        42.93642
622.85        42.99151
623.28        43.10381
623.71         43.2606
624.14        43.25536
624.57        43.19012
625.00        42.87443
625.43        43.28485
625.86        42.64485
626.29        42.80844
626.72        42.69447
627.15        42.51942
627.58        42.40946
628.01        42.23963
628.44        42.21381
628.87        41.83368
629.30        41.47742
629.73        41.21792
630.16        40.76166
630.59        40.58018
631.02        40.27343
631.45        39.94786
631.88        39.57761
632.31        39.15251
632.74        38.67613
633.17        38.17101
633.60        37.61933
634.03        37.16347
634.46        36.69063
634.89        36.23237
635.32        35.77275
635.75        35.31208
636.18        34.86282
636.61        34.42543
637.04        33.99775
637.47        33.57725
637.89         33.1613
638.32        32.75587
638.75        32.39252
639.18        32.07822
639.61        31.80948
640.04        31.55553
640.47         31.2626
640.90        30.92349
641.33        30.55963
641.76        30.21607
642.18        29.96937
642.61        29.83264
643.04        29.78062
643.47        29.78129
643.90        29.78051
644.33        29.76044
644.76        29.74212
645.18         29.7237
645.61        29.70668
646.04        29.69729
646.47         29.6909
646.90        29.72792
647.33        29.87635
647.75         30.1481
648.18        30.52296
648.61        30.93608
649.04        31.28573
649.47        31.55777
649.89        31.75967
650.32        31.96333
650.75        32.37286
651.18        32.98767
651.61        33.52467
652.03        33.98037
652.46        34.72005
652.89        35.67984
653.32        36.15561
653.74        36.16411
654.17        36.91774
654.60        37.29528
655.03        38.07581
655.46        38.16331
655.88        40.10466
656.31        40.92723
656.74        46.81647
657.16        43.73582
657.59        40.28692
658.02         41.5703
658.45        42.51605
658.87        43.46757
659.30        44.07673
659.73        44.57923
660.15        45.41981
660.58        45.67672
661.01        45.80342
661.44        45.70098
661.86        46.12135
662.29        47.01352
662.72        47.81498
663.14         48.3712
663.57        48.54068
664.00        48.46077
664.42        48.62125
664.85        49.09411
665.27         49.5515
665.70        49.92234
666.13        50.28197
666.55        50.61297
666.98        50.88848
667.41        51.12929
667.83        51.35991
668.26         51.5845
668.69        51.81202
669.11        52.02413
669.54        52.19102
669.96        52.31679
670.39         52.4034
670.82        52.51238
671.24        52.75133
671.67        53.13034
672.09        53.59271
672.52        54.00876
672.94        54.34469
673.37        54.22251
673.80        54.13355
674.22        54.07977
674.65        54.12512
675.07        54.31683
675.50        54.67129
675.92        55.08584
676.35        55.31213
676.77        55.30976
677.20        55.17412
677.62         54.9954
678.05        54.96489
678.47        55.11457
678.90        55.40047
679.32        55.75633
679.75        56.03152
680.17        56.17406
680.60        56.41219
681.02        56.51531
681.45        56.56659
681.87        56.56942
682.30         56.8333
682.72        57.27885
683.15        57.42978
683.57        57.32377
684.00        57.30077
684.42        57.52517
684.85        57.76077
685.27        57.81821
685.70        58.03515
686.12        58.28836
686.54        58.46874
686.97        58.56029
687.39        58.53539
687.82        58.45957
688.24         58.6331
688.66        58.99388
689.09        59.10528
689.51        58.99403
689.94        59.04029
690.36        59.27506
690.78        59.43964
691.21        59.50067
691.63        59.64281
692.06        59.89058
692.48        59.77079
692.90        59.88228
693.33        60.21298
693.75        60.09846
694.17        60.25869
694.60        60.43687
695.02        60.43227
695.44        60.27963
695.87        60.55197
696.29        61.13964
696.71        61.06947
697.14        60.55859
697.56        60.90497
697.98        61.92297
698.41        62.56855
698.83         62.2365
699.25        62.05763
699.68         62.0015
700.10        61.99199
700.52        62.07711
700.94        62.28058
701.37          62.528
701.79        62.74219
702.21        62.86868
702.64        62.92941
703.06        62.96764
703.48        63.06682
703.90        63.24709
704.33        63.47157
704.75        63.68597
705.17        63.77706
705.59        63.72564
706.01        63.57384
706.44        63.42387
706.86        63.43695
707.28        63.63988
707.70        63.97258
708.12        64.34424
708.55        64.60683
708.97         64.7207
709.39        64.74295
709.81         64.7061
710.23        64.66928
710.66        64.66414
711.08        64.67424
711.50        64.71908
711.92         64.8482
712.34        65.06486
712.76        65.36246
713.19        65.66002
713.61         65.8707
714.03        65.94142
714.45        65.90314
714.87        65.83614
715.29        65.86848
715.71         66.0298
716.13         66.2817
716.56        66.54331
716.98        66.75293
717.40        66.85188
717.82        66.86892
718.24        66.84511
718.66        66.84139
719.08         66.8757
719.50        66.93948
719.92        67.00573
720.34        66.99658
720.76        66.92175
721.19        66.88168
721.61        66.89276
722.03        66.86801
722.45        66.83096
722.87         66.8187
723.29        66.85115
723.71        66.92784
724.13        67.05135
724.55         67.2173
724.97        67.41296
725.39        67.61665
725.81        67.81241
726.23        67.99476
726.65        68.15096
727.07        68.26755
727.49        68.34483
727.91        68.38809
728.33        68.41055
728.75        68.43695
729.17        68.47944
729.59        68.53171
730.01        68.58691
730.43        68.68018
730.85        68.81837
731.27        68.90264
731.69        68.89719
732.10        69.24094
732.52        69.14983
732.94        69.22561
733.36        69.25207
733.78        69.27674
734.20        69.31281
734.62        69.38459
735.04        69.47205
735.46        69.52973
735.88        69.55606
736.30        69.50848
736.72        69.45978
737.13        69.66553
737.55        70.03537
737.97        70.29121
738.39        70.34779
738.81        70.32758
739.23        70.33005
739.65        70.26355
740.06        70.04686
740.48        70.59852
740.90        70.54488
741.32        69.98449
741.74        70.29343
742.16        70.25205
742.57         70.3995
742.99        70.58224
743.41        70.79025
743.83        70.96353
744.25        71.06419
744.67        71.08054
745.08        71.03284
745.50        71.00971
745.92        71.00477
746.34        70.83147
746.75        70.54601
747.17        70.45138
747.59        70.48377
748.01        70.61364
748.42        70.78185
748.84        70.98487
749.26        71.21266
749.68         71.3343
750.09        71.39769
750.51         71.7009
750.93        72.08926
751.35        72.02086
751.76          71.632
752.18        71.04768
752.60        71.42237
753.01        71.47382
753.43        71.48667
753.85        71.58853
754.27        71.77575
754.68        72.00845
755.10        72.21718
755.52        72.33331
755.93        72.33679
756.35        72.24851
756.77        72.15421
757.18        72.18365
757.60        72.41023
758.02        72.72919
758.43        72.95318
758.85        73.10881
759.26        73.52932
759.68        72.45013
760.10        72.59105
760.51        72.90936
760.93         73.1365
761.34         72.0396
761.76        72.75391
762.18        72.37984
762.59        72.06656
763.01        72.11687
763.42         72.6142
763.84        73.15411
764.26        73.55684
764.67        73.60551
765.09        73.43691
765.50        73.48848
765.92        73.78773
766.33        74.02176
766.75        74.03321
767.16        73.78927
767.58        73.33092
768.00        72.91362
768.41        72.74815
768.83        73.00022
769.24        73.56873
769.66        74.14448
770.07        74.50947
770.49        74.40265
770.90        73.98005
771.32         73.9174
771.73        74.23698
772.15        74.39004
772.56        74.32063
772.97        74.19027
773.39        73.99529
773.80         73.8162
774.22        73.65018
774.63         73.4067
775.05        73.16818
775.46        73.16967
775.88        73.41663
776.29        73.87361
776.70        74.35585
777.12        74.58333
777.53        74.50111
777.95        74.16353
778.36        73.75809
778.77        73.61507
779.19        73.80991
779.60         74.2853
780.02        74.79873
780.43        75.09299
780.84        75.09104
781.26        74.63843
781.67        74.04766
782.09        74.40894
782.50        75.49875
782.91        75.79144
783.33        75.27908
783.74        75.20058
784.15        75.54563
784.57        75.64256
784.98        75.44965
785.39        75.05682
785.81        74.57735
786.22        74.41576
786.63        74.54606
787.04        74.49298
787.46        74.29805
787.87        74.41227
788.28        74.81071
788.70         75.0809
789.11        75.17247
789.52        75.36437
789.93        75.61219
790.35        75.55514
790.76        75.29384
791.17        75.34687
791.58        75.69132
792.00        75.79471
792.41        75.56251
792.82        75.52584
793.23        75.17202
793.65        74.79768
794.06        74.46667
794.47          74.856
794.88        75.72759
795.29        76.43987
795.71        76.15231
796.12        76.16151
796.53        76.25504
796.94         75.9082
797.35        75.26649
797.76        75.07978
798.18        75.35448
798.59        75.51034
799.00        75.51125
799.41        75.73952
799.82        76.13211
800.23        76.38028
800.64        76.43382
801.06        76.33208
801.47        76.19773
801.88         76.1741
802.29        76.29128
802.70        76.47863
803.11        76.63692
803.52        76.61202
803.93        76.39256
804.34        76.06393
804.75        75.70369
805.17        75.52651
805.58         75.6237
805.99        75.58736
806.40        75.49249
806.81        76.30126
807.22        77.59551
807.63        77.44621
808.04        76.12371
808.45        75.69603
808.86        76.37898
809.27        77.21549
809.68        77.92107
810.09        78.32886
810.50        78.29927
810.91        77.96885
811.32         77.5092
811.73        77.07477
812.14        76.74119
812.55        76.61519
812.96        76.62548
813.37        76.31478
813.78        75.81062
814.19        75.89186
814.60        76.44253
815.01        76.66904
815.42        76.51976
815.83        76.39362
816.24        76.37887
816.65        76.44225
817.05        76.61718
817.46         76.8636
817.87        77.10659
818.28        77.18536
818.69        77.08152
819.10        76.84416
819.51        76.59332
819.92        76.58971
820.33        76.90038
820.74        77.30286
821.14        77.70969
821.55        78.26005
821.96        78.75877
822.37        78.55378
822.78        77.79981
823.19         77.3896
823.60        77.43645
824.00        77.50395
824.41        77.47073
824.82         77.4493
825.23        77.41477
825.64        77.35603
826.04         77.3334
826.45        77.38596
826.86        77.53027
827.27        77.74854
827.68        77.96087
828.08        78.06153
828.49        77.96394
828.90        77.72444
829.31        77.45007
829.72        77.33189
830.12        77.43946
830.53        77.68123
830.94         77.9454
831.35        78.02725
831.75         77.9066
832.16        77.60787
832.57         77.2691
832.97        77.10232
833.38        77.14484
833.79        77.32148
834.20        77.54417
834.60        77.66978
835.01        77.67458
835.42        77.62516
835.82         77.5296
836.23        77.33997
836.64        77.09555
837.04        76.79381
837.45        76.56477
837.86        76.67206
838.26        77.16437
838.67        77.93353
839.08        78.71976
839.48        79.02712
839.89        78.72951
840.29        78.01041
840.70        77.21776
841.11        76.78821
841.51        76.85019
841.92        77.21301
842.33        77.78659
842.73        78.41478
843.14        78.90688
843.54         79.3803
843.95        79.67222
844.35        79.59737
844.76        79.16062
845.17        78.43881
845.57        77.68753
845.98        77.33714
846.38        77.48056
846.79        77.99602
847.19        78.74808
847.60        79.32549
848.00        79.63995
848.41        79.73145
848.81        79.71383
849.22        79.69059
849.62        79.73526
850.03        79.71898
850.43         79.6796
850.84        79.59286
851.24         79.5291
851.65        79.48248
852.05        79.41977
852.46        79.25999
852.86        79.03363
853.27        78.48382
853.67         77.8156
854.07        78.21285
854.48        79.34122
854.88        79.42139
855.29        78.46317
855.69        78.21701
856.10        78.70213
856.50        78.96386
856.90        78.87762
857.31        78.81407
857.71        78.85005
858.12        78.82885
858.52        78.79617
858.92        78.71182
859.33         78.5601
859.73        78.40636
860.13        78.32699
860.54        78.45393
860.94        78.86575
861.34        79.46188
861.75        80.01618
862.15        80.26594
862.55         80.1034
862.96        79.64548
863.36        79.04401
863.76        78.53278
864.17        78.20688
864.57        78.01529
864.97        78.00013
865.38        78.20274
865.78        78.64426
866.18        79.25377
866.58        79.80231
866.99        79.87364
867.39        79.42287
867.79        78.55376
868.19        77.45728
868.60        76.43142
869.00        75.56982
869.40        74.84095
869.80        74.41008
870.21        74.52052
870.61        75.22276
871.01        76.37836
871.41        77.55826
871.81        78.07711
872.22        77.80286
872.62        76.94162
873.02        75.82903
873.42        75.19954
873.82        75.08424
874.22        74.87867
874.63        74.67386
875.03        74.75707
875.43        75.10149
875.83        76.45024
876.23        76.39687
876.63        76.08598
877.03        75.11826
877.44        73.57417
877.84        124.2289
878.24        74.16058
878.64        75.15263
879.04        78.06025
879.44        75.15691
879.84         73.4639
880.24        76.93389
880.64        77.10518
881.04         74.8121
881.44        73.44763
881.84        73.52762
882.24        74.52693
882.65        75.84633
883.05        76.39732
883.45        75.82907
883.85        74.71658
884.25        73.67675
884.65        73.41006
885.05        74.07915
885.45         75.4351
885.85        76.91033
886.25        77.56633
886.65        77.15944
887.05        76.01112
887.45        74.67743
887.85        73.98164
888.25        74.14133
888.65        74.92205
889.04        75.97639
889.44        76.61826
889.84        76.66694
890.24        76.31966
890.64         75.8747
891.04        75.77389
891.44        76.08843
891.84        76.61085
892.24        77.06911
892.64        77.03015
893.04          76.417
893.44        75.48531
893.83        74.41244
894.23        73.45992
894.63        72.71231
895.03        72.09648
895.43        71.75999
895.83        71.95228
896.23        72.66902
896.63        73.82237
897.02        75.05588
897.42        75.68855
897.82        75.56094
898.22        74.86213
898.62        73.92202
899.01        73.26678
899.41        73.08891
899.81        73.21221
900.21         73.5557
900.61         73.9996
901.00        74.46089
901.40        74.95176
901.80        75.39153
902.20        75.61649
902.59        75.59475
902.99        75.35635
903.39        74.93817
903.79        74.41697
904.18         73.8634
904.58        73.34091
904.98        73.00645
905.38        73.09471
905.77        73.61654
906.17        74.48975
906.57        75.46978
906.96        76.19879
907.36        76.50967
907.76        76.44568
908.15        76.17063
908.55        75.91216
908.95        75.76598
909.34         75.7301
909.74         75.5815
910.14        74.95263
910.53        73.82536
910.93        72.42067
911.33         71.2914
911.72        71.28679
912.12        72.47459
912.52         74.4669
912.91         76.5611
913.31        77.60662
913.70        77.38012
914.10        76.18679
914.49        74.42487
914.89        73.00181
915.29        72.31947
915.68        72.13763
916.08        72.38593
916.47        72.92733
916.87        73.62109
917.26        74.50164
917.66         75.3386
918.05        75.76521
918.45        75.67136
918.84        75.19057
919.24        74.41276
919.64        73.53973
920.03        72.70364
920.42        71.88715
920.82        71.38058
921.21         71.5685
921.61        72.42082
922.00         73.8567
922.40        75.30647
922.79        76.05828
923.19        75.90661
923.58        74.88415
923.98        73.33315
924.37         72.4876
924.77        72.84333
925.16        71.22614
925.55        72.75734
925.95        72.98499
926.34        73.38341
926.74        73.84046
927.13        74.38007
927.52        74.86456
927.92        75.22284
928.31        75.51841
928.70        75.65798
929.10        75.54333
929.49        75.18928
929.89        74.64318
930.28        74.12235
930.67        73.96314
931.07        74.20785
931.46        74.80264
931.85         75.4878
932.24        75.88148
932.64        75.87628
933.03        75.51038
933.42         74.9264
933.82        74.46007
934.21        74.20483
934.60        74.10689
934.99        73.88409
935.39        73.35397
935.78         72.5107
936.17        70.95457
936.56        68.84462
936.96        69.76557
937.35        69.22225
937.74        70.69651
938.13        72.18338
938.53         73.1573
938.92        73.56406
939.31        73.59546
939.70        73.42982
940.09        73.27522
940.49        73.25671
940.88        73.33292
941.27        73.51187
941.66        73.85022
942.05        74.32581
942.44        74.88582
942.84        75.50716
943.23        76.16267
943.62        76.77612
944.01        77.37158
944.40        77.69975
944.79        77.37293
945.18        76.35026
945.57        74.71671
945.97         73.0545
946.36        72.39127
946.75        73.03687
947.14        74.62595
947.53        76.40069
947.92        77.31393
948.31        77.16803
948.70        76.29296
949.09         75.1096
949.48        74.35793
949.87        74.28465
950.26        74.62657
950.65        75.17503
951.04        75.60464
951.43        75.77404
951.82         75.8129
952.21         75.7002
952.60        75.37299
952.99         74.8644
953.38        74.19088
953.77        73.49667
954.16        73.03139
954.55        72.85166
954.94        72.90038
955.33        73.08042
955.72        73.20341
956.11         73.2198
956.50        73.21174
956.89        73.18367
957.28        73.15424
957.66        73.15171
958.05        73.05712
958.44        73.01435
958.83        73.23443
959.22        73.71447
959.61        74.41911
960.00        74.98138
960.39        74.74478
960.78        73.59943
961.16        71.76366
961.55        69.90554
961.94        68.91036
962.33        68.98349
962.72        69.89297
963.11        71.12476
963.49        71.79176
963.88        71.53667
964.27        70.64954
964.66        69.58633
965.04        69.09812
965.43        69.38036
965.82        70.20225
966.21         71.1586
966.60        71.61677
966.98        71.42359
967.37         70.7549
967.76        70.03906
968.15         69.9216
968.53        70.55875
968.92        71.66199
969.31        72.78889
969.69        73.21683
970.08        72.71192
970.47         71.5517
970.86        70.14501
971.24        69.11619
971.63        68.72754
972.02        68.83196
972.40        69.20848
972.79        69.49078
973.17        69.57281
973.56        69.45849
973.95        69.40218
974.33        69.80613
974.72        70.60616
975.11        71.63574
975.49        72.43896
975.88        72.33419
976.26        71.24031
976.65        69.46262
977.04        67.47878
977.42        66.10809
977.81        65.64866
978.19        65.86178
978.58        66.61636
978.96         67.6923
979.35        68.84695
979.74        70.22797
980.12        71.51017
980.51        71.85282
980.89        71.24108
981.28        69.83271
981.66        68.34955
982.05        67.85879
982.43        68.49622
982.82        69.93344
983.20        71.63246
983.59        72.31207
983.97        71.69246
984.35        70.07487
984.74        68.10619
985.12        66.68317
985.51        66.07983
985.89        66.05489
986.28        66.31849
986.66        66.40534
987.04        66.09292
987.43        65.66525
987.81        65.19933
988.20        64.76334
988.58        64.31738
988.96        63.70842
989.35        63.04814
989.73        62.78888
990.12         63.0821
990.50        63.92438
990.88        64.73638
991.27        64.81232
991.65        64.24397
992.03        63.21486
992.42        62.37056
992.80        62.91601
993.18        65.07481
993.56        68.12707
993.95        71.19429
994.33         73.5022
994.71        74.65695
995.10         74.9049
995.48        74.31965
995.86        72.90775
996.24        70.77919
996.63         67.9422
997.01        64.68214
997.39        62.06869
997.77        60.81164
998.15        60.75343
998.54        61.66155
998.92        63.22213
999.30        65.39336
999.68        68.58875
1000.06        72.05725
1000.45        72.98857
1000.83        70.39316
1001.21        65.56773
1001.59         61.0327
1001.97         58.8127
1002.35        58.76627
1002.73        60.30016
1003.12        62.61551
1003.50        63.88495
1003.88        63.15356
1004.26        61.14989
1004.64        58.65889
1005.02        56.68895
1005.40        55.57703
1005.78        54.94099
1006.16        55.04723
1006.54        56.38631
1006.92        58.58663
1007.30        61.09319
1007.69        63.17044
1008.07        64.30292
1008.45        64.41837
1008.83        63.63518
1009.21        61.50298
1009.59        57.72301
1009.97        52.88918
1010.35        47.68618
1010.73        44.41692
1011.11        45.04072
1011.49        49.05646
1011.86        55.75617
1012.24        61.86401
1012.62        64.17225
1013.00        62.48875
1013.38        57.91504
1013.76         52.5302
1014.14        50.04025
1014.52         51.4675
1014.90        55.67844
1015.28        60.58255
1015.66        62.68454
1016.04        60.82011
1016.41        55.80872
1016.79        49.07581
1017.17        44.58265
1017.55        44.18176
1017.93        46.26205
1018.31        49.26691
1018.69        51.85006
1019.06        53.76458
1019.44        55.45285
1019.82        56.60517
1020.20        56.17224
1020.58        53.86061
1020.95        49.87774
1021.33        45.09546
1021.71        39.97514
1022.09        33.85637
1022.46        24.20484
1022.84        11.22762
1023.22        7.319244
1023.60         19.1764
1023.97        33.20539
1024.35        41.11274
1024.73        43.60434
