SpectraSmart Spectrum 2.9.0.0
--------- Device Information -----------
Spectrum Name :  反射率_0
Saving Time :  2024/04/20 00:46:30
Spectro-Module Model Name : SE2030-DUVN
Spectro-Module Serial Number : OS361AC55029948
Wavelength Start : 200
Wavelength End : 1025
Wavelength Unit : Wavelength(nm)
Spectrum Unit : Reflectance(%)
-----------Spectrum Setting ------------
Integration Time : 30ms
Average : 10
Boxcar : 0
Background removal :  enabled
linearity correction :  enabled
SC :  disabled
Intensity correction :  disabled
DWT denoise :  enabled
savitzky-golay :  disabled
FFT :  disabled
Running average :  disabled
Kalman :  disabled
High pass :  disabled
---------------BEGIN--------------------
Wavelength(nm)             Reflectance(%)
200.29               0
200.75        54.33933
201.21        53.90014
201.67         55.3302
202.13        59.44053
202.58        66.54339
203.04        76.76891
203.50        87.45177
203.96        91.54548
204.42        88.03434
204.88        80.99086
205.34        74.30726
205.80        69.88043
206.26        67.05875
206.72        64.69878
207.18        62.64656
207.64         61.6881
208.10        62.65091
208.55        65.62634
209.01        68.33289
209.47        69.50056
209.93        69.24469
210.39        68.09093
210.85        66.41019
211.31        64.54426
211.77        62.43354
212.23        59.63605
212.69        56.68886
213.14        56.15557
213.60        58.30671
214.06        61.87661
214.52        64.96275
214.98        66.68816
215.44        67.31839
215.90        66.97286
216.36        66.33985
216.81        66.86007
217.27        68.75134
217.73         71.5817
218.19        73.46037
218.65        71.77248
219.11        66.10169
219.57        56.80669
220.02        46.26569
220.48        41.02346
220.94        43.35884
221.40        52.02192
221.86        62.68899
222.32        68.64423
222.77        68.26082
223.23        63.78261
223.69        58.50602
224.15        57.12453
224.61        59.81934
225.06        64.11855
225.52        67.92066
225.98         69.5417
226.44        69.01167
226.90        67.21012
227.36        64.93915
227.81        63.45732
228.27        63.45479
228.73        64.22232
229.19        65.26625
229.65        66.05711
230.10        66.40856
230.56        66.60825
231.02         66.6459
231.48        66.53056
231.93        66.24529
232.39        65.81465
232.85        65.24193
233.31        64.61404
233.77         63.9638
234.22        63.29147
234.68        62.62651
235.14        61.91467
235.60        61.21915
236.05        60.65439
236.51        60.28667
236.97        60.17901
237.43        60.36793
237.88        60.96117
238.34        61.93764
238.80        63.59373
239.26        65.69762
239.71        67.91084
240.17         69.3511
240.63        69.44854
241.08        68.27431
241.54        65.97768
242.00        62.89661
242.46        59.35899
242.91        55.28978
243.37        49.85358
243.83        43.70923
244.28        41.54427
244.74        47.36737
245.20        59.72594
245.66        71.10061
246.11        75.84835
246.57        73.66272
247.03        64.63978
247.48        50.33091
247.94        43.46198
248.40        47.67308
248.85        54.97673
249.31        60.60203
249.77        63.14351
250.22        63.29557
250.68        62.05216
251.14        60.09535
251.59        58.78745
252.05        59.14839
252.51        60.96667
252.96        63.04114
253.42        63.52911
253.88        62.23918
254.33        60.12367
254.79        59.44118
255.25        62.14147
255.70        67.67603
256.16        74.44992
256.62        80.44851
257.07        83.49883
257.53        83.67136
257.99        81.80009
258.44        78.52486
258.90        75.56709
259.35        73.07143
259.81        71.46797
260.27        70.08138
260.72        68.30969
261.18        66.40333
261.63        64.08439
262.09        62.28476
262.55        61.72152
263.00        62.21295
263.46        63.46267
263.91         64.2792
264.37        63.62348
264.83        61.50635
265.28        58.39707
265.74         55.5285
266.19        54.11258
266.65        54.35304
267.11        55.59758
267.56        56.96424
268.02        57.21819
268.47        56.12622
268.93        54.13015
269.38        51.79383
269.84        50.26228
270.30        49.81896
270.75         50.0905
271.21        50.57917
271.66          50.539
272.12        49.78054
272.57        48.55774
273.03        47.20287
273.48        46.11752
273.94        45.47941
274.39        45.09501
274.85        44.81732
275.31        44.39291
275.76         43.7305
276.22        42.93939
276.67        42.11614
277.13        41.52381
277.58        41.12881
278.04        40.89168
278.49        40.54793
278.95        39.82402
279.40        38.66942
279.86        37.31485
280.31        35.97587
280.77        35.11434
281.22        34.72197
281.68        34.66985
282.13        34.73035
282.59        34.62282
283.04        34.25637
283.50        33.77378
283.95        33.20545
284.41        32.64527
284.86         32.1101
285.32        31.59619
285.77        31.16357
286.22        30.98798
286.68         31.0691
287.13          31.314
287.59        31.56962
288.04        31.56949
288.50        31.29034
288.95         30.7859
289.41        30.20179
289.86        29.68696
290.32        29.34911
290.77         29.1316
291.22        29.04031
291.68         29.0481
292.13        29.13783
292.59        29.33776
293.04        29.63678
293.50        30.03061
293.95        30.49536
294.40        31.00924
294.86        31.54551
295.31        32.07896
295.77        32.60417
296.22        33.12893
296.68        33.65073
297.13        34.14591
297.58         34.6249
298.04        35.09937
298.49        35.61031
298.95         36.2634
299.40        37.04721
299.85        37.91764
300.31        38.78527
300.76        39.50328
301.21        40.04364
301.67        40.48745
302.12        40.85125
302.58        41.23198
303.03        41.63576
303.48        42.05412
303.94        42.55607
304.39        43.20155
304.84        43.98874
305.30        44.87602
305.75        45.70556
306.20         46.2647
306.66        46.53379
307.11        46.56088
307.57        46.49122
308.02        46.46423
308.47        46.55413
308.93        46.71259
309.38        46.90856
309.83        47.15211
310.29        47.41982
310.74        47.71267
311.19        47.94279
311.65          47.961
312.10        47.74374
312.55         47.3401
313.00        46.89333
313.46         46.6273
313.91        46.57673
314.36        46.69413
314.82        46.85896
315.27        46.89875
315.72        46.75103
316.18        46.48333
316.63        46.16522
317.08        45.91767
317.53        45.76791
317.99        45.66338
318.44        45.55627
318.89        45.36158
319.35        45.05897
319.80        44.68554
320.25         44.2824
320.70        43.91326
321.16        43.59179
321.61        43.30265
322.06        43.02172
322.51        42.71518
322.97        42.36505
323.42        41.99576
323.87        41.60611
324.32        41.19917
324.78        40.77549
325.23        40.35017
325.68        39.93119
326.13        39.54173
326.59        39.19076
327.04        38.89997
327.49        38.66046
327.94        38.46186
328.39        38.29115
328.85        38.11646
329.30        37.97614
329.75        37.87729
330.20        37.81159
330.66        37.75238
331.11        37.65574
331.56         37.3915
332.01        36.94242
332.46        36.34786
332.92        35.72005
333.37        35.27021
333.82         35.0618
334.27        35.05966
334.72        35.16729
335.17        35.20927
335.63        35.11303
336.08        34.92864
336.53        34.72765
336.98        34.64824
337.43        34.71952
337.88        34.89593
338.34        35.03046
338.79        34.93971
339.24        34.56891
339.69        33.97607
340.14        33.36974
340.59        33.09437
341.05        33.21458
341.50         33.6336
341.95         34.0973
342.40        34.21105
342.85        33.89395
343.30        33.28336
343.75        32.59877
344.20        32.19869
344.66        32.17539
345.11        32.38274
345.56        32.69268
346.01        32.89926
346.46        32.92526
346.91        32.85367
347.36        32.66962
347.81        32.33775
348.26        31.89031
348.72        31.36216
349.17        30.86367
349.62        30.66084
350.07        30.80272
350.52        31.19683
350.97        31.68591
351.42        32.02844
351.87        32.14661
352.32        32.09728
352.77         31.9088
353.22        31.63483
353.67        31.31602
354.13        30.95967
354.58        30.59091
355.03        30.29288
355.48        30.09342
355.93        29.99294
356.38        29.97702
356.83        30.01014
357.28        30.06379
357.73        30.12012
358.18        30.16135
358.63          30.163
359.08        30.11216
359.53        30.01877
359.98        29.84494
360.43        29.53708
360.88        29.10701
361.33        28.58094
361.78          28.085
362.23        27.82269
362.68        27.82583
363.13        28.02145
363.58        28.25112
364.03        28.26589
364.48        28.00321
364.93        27.53669
365.38        26.96789
365.83        26.47778
366.28        26.13605
366.73        25.89149
367.18        25.71935
367.63        25.57881
368.08        25.44735
368.53        25.34713
368.98        25.25654
369.43        25.12947
369.88        24.96064
370.33        24.76041
370.78         24.5549
371.23        24.39865
371.68        24.30886
372.13        24.26309
372.58        24.26173
373.03        24.30497
373.48        24.37241
373.93        24.44983
374.38         24.4826
374.83        24.38854
375.28        24.15611
375.72        23.80716
376.17        23.41795
376.62        23.07332
377.07        22.81587
377.52        22.63282
377.97        22.52693
378.42        22.49592
378.87        22.52293
379.32        22.59665
379.77        22.68483
380.22        22.73717
380.67         22.7364
381.11        22.69299
381.56         22.5889
382.01        22.42264
382.46        22.20282
382.91        21.92966
383.36        21.65752
383.81        21.46552
384.26        21.36887
384.71         21.3611
385.15        21.36176
385.60        21.24767
386.05        21.00036
386.50        20.65961
386.95         20.3442
387.40        20.24146
387.85        20.37698
388.29        20.67147
388.74        20.98384
389.19          21.108
389.64        21.00154
390.09        20.72202
390.54        20.38304
390.98        20.15982
391.43        20.11766
391.88        20.19104
392.33        20.27789
392.78        20.23259
393.23        20.03841
393.67        19.74218
394.12        19.47585
394.57        19.35125
395.02        19.38932
395.47        19.54758
395.91        19.74027
396.36        19.79665
396.81        19.68301
397.26        19.44976
397.71        19.20489
398.15        19.09222
398.60        19.16002
399.05        19.34124
399.50        19.53433
399.95        19.59692
400.39        19.49717
400.84        19.27337
401.29        19.01612
401.74        18.89044
402.18        18.94675
402.63        19.12655
403.08        19.31185
403.53        19.31352
403.97        19.09748
404.42        18.74201
404.87        18.38072
405.32         18.2299
405.76        18.33516
406.21         18.6168
406.66        18.95233
407.11        19.15249
407.55          19.166
408.00        19.05519
408.45        18.87732
408.90        18.68637
409.34        18.54068
409.79        18.50572
410.24        18.54292
410.68        18.51634
411.13        18.41798
411.58        18.33156
412.03        18.26242
412.47        18.19029
412.92        18.11715
413.37        18.04055
413.81        17.99586
414.26        18.05296
414.71        18.20932
415.15        18.45032
415.60        18.66945
416.05        18.71993
416.49        18.56673
416.94        18.25873
417.39        17.90959
417.83          17.704
418.28        17.69584
418.73         17.8253
419.17        18.00041
419.62        18.06611
420.07        17.98866
420.51        17.81954
420.96        17.63056
421.41        17.51061
421.85        17.47822
422.30        17.51121
422.74        17.56771
423.19        17.61872
423.64        17.64301
424.08        17.66013
424.53        17.65688
424.98        17.64015
425.42        17.61729
425.87        17.58744
426.31        17.54199
426.76         17.4784
427.21        17.38749
427.65        17.26406
428.10        17.15512
428.54        17.11341
428.99        17.15377
429.44        17.33505
429.88        17.53446
430.33        17.44514
430.77        17.12087
431.22        16.91993
431.66         16.9067
432.11        16.98535
432.56        17.13759
433.00        17.43353
433.45        17.68604
433.89        17.62006
434.34        17.34385
434.78        17.03941
435.23        16.70839
435.67        17.48581
436.12        16.92902
436.57        16.85695
437.01        16.61316
437.46        16.50841
437.90         16.5565
438.35        16.61655
438.79        16.65964
439.24        16.71333
439.68        16.76589
440.13        16.66807
440.57        16.50141
441.02        16.66922
441.46        17.00999
441.91        17.00829
442.35        16.28499
442.80        16.00263
443.24        16.00048
443.69        15.92061
444.13        15.75243
444.58        15.65818
445.02        15.64729
445.47        15.71923
445.91        15.82385
446.36        15.84251
446.80        15.75076
447.24        15.60014
447.69        15.44464
448.13        15.33387
448.58         15.2917
449.02        15.30046
449.47        15.32244
449.91        15.29036
450.36        15.19809
450.80        15.06847
451.25        14.95571
451.69         14.9253
452.13         14.9926
452.58        15.12028
453.02        15.26638
453.47        15.36842
453.91        15.40766
454.36        15.40151
454.80        15.35333
455.24        15.27004
455.69        15.17099
456.13        15.04295
456.58        14.92979
457.02        14.88753
457.46        14.92115
457.91        14.97939
458.35        15.03554
458.79        15.08321
459.24        15.10857
459.68        15.11593
460.13         15.1516
460.57        15.14237
461.01        15.07752
461.46        15.36505
461.90        15.41249
462.34        15.24221
462.79        15.36464
463.23        15.26338
463.68        15.17955
464.12        15.09996
464.56        15.15573
465.01         15.2399
465.45        15.32226
465.89        15.37203
466.34        15.38613
466.78        15.32387
467.22         15.2354
467.67        15.31108
468.11         15.5164
468.55        15.54515
468.99        15.41383
469.44        15.40249
469.88        15.52131
470.32        15.60852
470.77        15.63864
471.21        15.65363
471.65        15.64985
472.10        15.61841
472.54        15.57558
472.98        15.58231
473.42        15.64465
473.87        15.70035
474.31        15.73708
474.75         15.8298
475.20        15.94137
475.64        15.90682
476.08        15.77522
476.52        15.76202
476.97        15.87984
477.41        16.02747
477.85        16.15938
478.29        16.24933
478.74        16.28424
479.18        16.24363
479.62          16.185
480.06        16.20427
480.50        16.29839
480.95        16.36604
481.39        16.38412
481.83        16.39367
482.27         16.3948
482.72        16.37777
483.16         16.3651
483.60         16.3903
484.04        16.44971
484.48        16.61067
484.93        16.90167
485.37        16.99611
485.81        16.96673
486.25        17.56036
486.69        18.16927
487.14        17.65717
487.58         17.3203
488.02         18.1223
488.46        17.74655
488.90        17.92161
489.34        17.79065
489.79        17.88407
490.23          18.149
490.67        18.35895
491.11        18.47514
491.55        18.41421
491.99        18.23979
492.43        18.19564
492.88        18.31914
493.32        18.45694
493.76        18.59635
494.20        18.78924
494.64        19.02628
495.08        19.28309
495.52        19.53327
495.96        19.75348
496.41        19.93694
496.85        20.05188
497.29        20.12107
497.73        20.27932
498.17        20.50608
498.61        20.58695
499.05        20.55347
499.49        20.66503
499.93        20.93997
500.37        21.18912
500.82         21.3859
501.26        21.66559
501.70        21.96412
502.14         21.9993
502.58        21.82972
503.02        21.79816
503.46        21.93583
503.90        22.06998
504.34        22.15999
504.78        22.21434
505.22        22.22259
505.66        22.19281
506.10        22.16008
506.54         22.1751
506.98        22.25332
507.42        22.38355
507.86        22.54056
508.30        22.68244
508.74        22.79363
509.18        22.87927
509.62        22.96037
510.06        23.07056
510.50        23.21598
510.94        23.38786
511.38        23.54198
511.82        23.60915
512.26        23.57726
512.70        23.46546
513.14        23.34658
513.58        23.33164
514.02        23.43595
514.46        23.62917
514.90        23.82692
515.34         23.8311
515.78        23.65125
516.22        23.40508
516.66         23.2081
517.10        22.90295
517.54        22.52323
517.98        23.14048
518.42        23.09545
518.86        23.38477
519.30        23.49115
519.74         23.5877
520.18         23.6516
520.62         23.6252
521.06        23.52753
521.50        23.35888
521.93        23.16742
522.37        23.04363
522.81        23.00818
523.25          23.039
523.69        23.10141
524.13        23.13738
524.57        23.12645
525.01        23.08313
525.45        23.01708
525.89        22.94282
526.32        22.86792
526.76        22.79214
527.20         22.7104
527.64        22.62097
528.08        22.52485
528.52        22.42023
528.96        22.33181
529.40        22.29404
529.83        22.30708
530.27        22.36543
530.71        22.41017
531.15        22.35042
531.59        22.17593
532.03        21.91966
532.46        21.66221
532.90        21.54832
533.34        21.59759
533.78        21.75901
534.22        21.95282
534.66        22.05523
535.09        22.02992
535.53        21.92587
535.97        21.77852
536.41        21.64105
536.85        21.53842
537.28        21.46447
537.72        21.43683
538.16        21.41867
538.60        21.51225
539.04        21.62027
539.47        21.73543
539.91        21.85283
540.35        21.97587
540.79        21.91961
541.22        21.98645
541.66         22.0515
542.10        22.22432
542.54         22.1355
542.97        22.36331
543.41        22.48385
543.85        22.65214
544.29        22.81634
544.72        22.94719
545.16        23.06535
545.60         23.1634
546.04         23.1658
546.47        23.15558
546.91        23.41048
547.35        23.87466
547.79        24.23245
548.22        24.41984
548.66         24.5055
549.10        24.53065
549.53        24.67206
549.97        24.95797
550.41        24.98117
550.84        25.21012
551.28        25.38459
551.72        25.64244
552.15        25.89415
552.59        26.13051
553.03        26.36455
553.46        26.56199
553.90        26.69779
554.34        26.76816
554.77        26.78186
555.21         26.7831
555.65        26.83066
556.08         26.9348
556.52        27.07727
556.96         27.2306
557.39        27.38341
557.83         27.5151
558.27        27.57185
558.70        27.56579
559.14        27.59217
559.57        27.64688
560.01        27.73115
560.45        27.82427
560.88        27.82364
561.32        27.77495
561.75        27.90361
562.19        28.05314
562.63        28.17221
563.06        28.20721
563.50        28.24884
563.93        28.30058
564.37        28.42533
564.80        28.49701
565.24        28.62152
565.68        28.73982
566.11        28.85908
566.55        28.99459
566.98        29.09035
567.42        29.13264
567.85        29.46285
568.29        29.32245
568.72        29.63009
569.16        30.08825
569.60        30.35896
570.03        30.40362
570.47        30.54829
570.90        30.67773
571.34        30.87161
571.77         30.7929
572.21        31.16755
572.64        31.31318
573.08        31.45403
573.51        31.40582
573.95        32.01432
574.38        32.47258
574.82        32.76196
575.25        32.67159
575.69         32.4166
576.12        32.34784
576.56        32.32999
576.99        32.41008
577.42        32.85841
577.86        32.68036
578.29         32.5607
578.73        33.03792
579.16        32.66005
579.60        32.58625
580.03        32.32221
580.47        32.51413
580.90        32.24121
581.33        32.11134
581.77        32.12754
582.20         32.4896
582.64        32.17661
583.07        31.71068
583.51        31.63498
583.94        31.15822
584.37        31.12449
584.81        30.74475
585.24         30.7798
585.68        30.93999
586.11        30.83003
586.54        30.70084
586.98        30.26868
587.41        30.44744
587.85        30.48986
588.28        30.54132
588.71        30.42006
589.15        30.20014
589.58        29.80001
590.01        29.76084
590.45        30.26406
590.88        30.14013
591.31        30.10403
591.75          29.778
592.18        29.84123
592.61        29.86847
593.05        30.13126
593.48        30.01018
593.91        30.97984
594.35        30.27716
594.78         30.4163
595.21        30.77498
595.65         31.1346
596.08        31.15705
596.51        31.14319
596.94        31.11094
597.38        31.14018
597.81        31.32582
598.24        31.67981
598.68        32.16132
599.11        32.51285
599.54        33.24561
599.97          32.939
600.41         33.3778
600.84        34.07072
601.27        34.41677
601.70        34.78794
602.14        34.91307
602.57        35.32934
603.00        35.97099
603.43        36.49962
603.87        36.60225
604.30         36.9754
604.73        37.57069
605.16        37.92177
605.60        38.64237
606.03        39.14902
606.46        39.48963
606.89        40.20544
607.32        40.46604
607.76        40.69488
608.19        41.03931
608.62        41.54676
609.05        41.77023
609.48        41.97835
609.92        42.12886
610.35        42.29443
610.78        43.24223
611.21        43.92958
611.64        43.68243
612.07        44.03814
612.50         44.4589
612.94        44.28382
613.37        44.92505
613.80        45.23774
614.23        45.62993
614.66        46.00113
615.09        46.20659
615.52        46.61491
615.96         47.0496
616.39        47.41214
616.82        47.77787
617.25        47.24813
617.68        47.83573
618.11        48.09912
618.54        48.51965
618.97        48.62074
619.40        48.43903
619.84        48.50127
620.27         48.3968
620.70        48.77549
621.13        49.38588
621.56        49.62326
621.99        49.54921
622.42        49.62824
622.85        49.97751
623.28        49.74644
623.71        49.88155
624.14        50.09431
624.57        50.13516
625.00        49.83358
625.43        50.09863
625.86        49.51437
626.29        49.49789
626.72         49.2668
627.15        49.17091
627.58        49.13305
628.01        49.10026
628.44        48.99895
628.87        48.79448
629.30        48.51221
629.73        48.16616
630.16        47.84299
630.59        47.49781
631.02        47.09938
631.45        46.72984
631.88        46.36395
632.31        46.02645
632.74        45.69851
633.17        45.35082
633.60        44.93431
634.03        44.43808
634.46         43.8813
634.89        43.29361
635.32        42.72222
635.75         42.1908
636.18        41.69975
636.61        41.24187
637.04        40.79978
637.47        40.36502
637.89        39.94084
638.32        39.54004
638.75        39.20535
639.18          38.943
639.61        38.74549
640.04        38.55159
640.47        38.26278
640.90        37.86583
641.33        37.39325
641.76        36.94185
642.18        36.67365
642.61        36.61692
643.04        36.72124
643.47        36.88898
643.90        36.95826
644.33         36.8852
644.76        36.72419
645.18        36.53728
645.61        36.42804
646.04        36.43378
646.47        36.52024
646.90        36.68118
647.33        36.91755
647.75        37.22224
648.18        37.57098
648.61        37.93551
649.04        38.33754
649.47        38.74174
649.89        38.97913
650.32        39.13046
650.75        39.55203
651.18        40.24524
651.61        40.84026
652.03         41.3213
652.46        42.06843
652.89         43.0243
653.32        43.50237
653.74        43.55849
654.17        44.39677
654.60        44.84951
655.03        45.85958
655.46        45.41817
655.88        47.39194
656.31        48.32958
656.74        55.64166
657.16        52.48111
657.59        48.57237
658.02        49.31153
658.45        49.45463
658.87        50.73114
659.30        51.04419
659.73        51.41724
660.15        52.51021
660.58        52.19798
661.01        52.25698
661.44        52.17045
661.86        52.46367
662.29        53.10314
662.72        53.94294
663.14        54.75723
663.57        54.80529
664.00         54.2946
664.42         54.2745
664.85        54.83519
665.27         55.3465
665.70        55.69046
666.13        55.97866
666.55        56.22993
666.98        56.36562
667.41        56.45544
667.83        56.58548
668.26        56.77318
668.69        57.00502
669.11        57.24465
669.54        57.43244
669.96        57.56163
670.39        57.65017
670.82        57.74112
671.24        57.90466
671.67         58.1482
672.09        58.41347
672.52        58.65179
672.94        58.83958
673.37        58.93861
673.80        58.83067
674.22        58.60482
674.65        58.51717
675.07        58.61889
675.50        58.78032
675.92          58.953
676.35         59.0665
676.77        59.10342
677.20        59.09669
677.62        59.07484
678.05        59.08848
678.47        59.14579
678.90        59.22992
679.32        59.35012
679.75        59.50038
680.17        59.66642
680.60        59.92347
681.02        60.21178
681.45        60.22606
681.87         60.1105
682.30          60.207
682.72        60.48271
683.15        60.74178
683.57         60.5576
684.00        60.43715
684.42        60.44064
684.85        60.54299
685.27        60.65512
685.70        60.87473
686.12        61.09787
686.54         61.2982
686.97        61.45794
687.39        61.34303
687.82        61.42008
688.24        61.38765
688.66          61.392
689.09        61.40826
689.51         61.4387
689.94        61.45279
690.36        61.45655
690.78        61.45239
691.21        61.46009
691.63        61.57796
692.06        61.82214
692.48        61.99434
692.90        62.08846
693.33        62.56185
693.75        62.34352
694.17        62.32122
694.60        62.22155
695.02        62.11428
695.44        62.00516
695.87        62.05713
696.29        62.22836
696.71        62.08424
697.14         61.8244
697.56        62.20755
697.98        62.99678
698.41        63.74027
698.83        63.41595
699.25        62.98669
699.68        62.90172
700.10        62.87657
700.52        62.80071
700.94        63.05572
701.37        63.23638
701.79        63.47506
702.21        63.64547
702.64        63.56148
703.06        63.65956
703.48        63.68349
703.90        63.77536
704.33        63.89668
704.75        64.00365
705.17        63.99343
705.59        63.85041
706.01        63.61669
706.44        63.41477
706.86        63.42704
707.28        63.67643
707.70        64.11989
708.12        64.61107
708.55        64.85202
708.97        64.81713
709.39        64.72923
709.81        64.64664
710.23         64.5425
710.66        64.45825
711.08        64.44799
711.50        64.50399
711.92        64.58939
712.34        64.69652
712.76        64.84919
713.19        64.99524
713.61        65.09644
714.03        65.11624
714.45        65.06528
714.87        65.00867
715.29         65.0528
715.71        65.21595
716.13        65.46786
716.56        65.71925
716.98        65.88121
717.40        65.89426
717.82        65.81666
718.24        65.72464
718.66        65.61963
719.08        65.72556
719.50        65.84866
719.92        65.99258
720.34        66.06533
720.76        66.04685
721.19        65.96638
721.61        65.87152
722.03        65.80807
722.45        65.81419
722.87        65.85809
723.29        65.93636
723.71         66.0342
724.13          66.141
724.55        66.27042
724.97        66.43368
725.39        66.54603
725.81        66.57739
726.23        66.72541
726.65        67.05012
727.07         66.6516
727.49        67.05544
727.91        67.19356
728.33        67.21742
728.75        67.28831
729.17        67.32787
729.59        67.33485
730.01        67.30339
730.43        67.34159
730.85        67.47104
731.27        67.53449
731.69        67.48026
732.10        67.90553
732.52        67.73867
732.94        67.79154
733.36        67.75217
733.78        67.70476
734.20        67.67278
734.62        67.52951
735.04        67.53257
735.46        67.49324
735.88        67.49326
736.30        67.40895
736.72        67.33266
737.13        67.64577
737.55        68.20522
737.97        68.53052
738.39        68.52579
738.81        68.39609
739.23        68.28279
739.65         68.1747
740.06        68.07733
740.48        68.44133
740.90        69.13535
741.32        68.31297
741.74        68.11452
742.16        67.86362
742.57        68.24669
742.99        68.62738
743.41        68.89252
743.83        69.05653
744.25        69.04982
744.67        68.88303
745.08        68.62947
745.50        68.38916
745.92        68.22046
746.34        68.09734
746.75        68.01867
747.17          67.978
747.59        67.98177
748.01        68.05841
748.42        68.18408
748.84        68.34399
749.26        68.54741
749.68        68.56436
750.09         68.4809
750.51        68.93938
750.93        69.72091
751.35        69.61251
751.76        68.94666
752.18        68.57018
752.60        68.79692
753.01        68.84702
753.43        68.74712
753.85        68.77029
754.27        68.91469
754.68        69.14794
755.10        69.34007
755.52        69.41446
755.93        69.33919
756.35        69.16794
756.77        69.00725
757.18        69.01974
757.60        69.28001
758.02        69.62064
758.43        69.89929
758.85        70.10896
759.26        70.78085
759.68        69.68555
760.10        70.19288
760.51        69.78781
760.93        69.59731
761.34        68.84694
761.76        69.20155
762.18        69.11681
762.59        69.09182
763.01        69.30534
763.42        69.74394
763.84        70.10153
764.26        70.30477
764.67        70.14597
765.09        69.83514
765.50        70.06316
765.92        70.73434
766.33        70.91691
766.75         70.4991
767.16        70.33239
767.58        70.16595
768.00        69.78864
768.41        69.32748
768.83        69.56774
769.24         70.3569
769.66        70.78696
770.07        70.75494
770.49        70.60402
770.90        70.47583
771.32          70.665
771.73        71.09198
772.15        71.17977
772.56        70.91708
772.97          70.712
773.39        70.58115
773.80         70.3792
774.22        70.10899
774.63        69.84891
775.05        69.67095
775.46         69.6938
775.88        69.91106
776.29        70.32193
776.70        70.75018
777.12        70.92491
777.53        70.79707
777.95        70.41679
778.36         69.9687
778.77        69.78236
779.19        69.93635
779.60        70.37186
780.02         70.8588
780.43         71.1751
780.84        71.24886
781.26        70.86082
781.67        70.30319
782.09        70.76402
782.50         71.9537
782.91        72.07338
783.33        71.20271
783.74        71.00423
784.15        71.52377
784.57        71.81769
784.98        71.76785
785.39        71.59461
785.81        71.30376
786.22        70.90602
786.63        70.53952
787.04        70.37815
787.46        70.46278
787.87        70.76205
788.28        71.16312
788.70        71.44556
789.11        71.54168
789.52        71.50768
789.93        71.41599
790.35        71.39482
790.76        71.46017
791.17         71.5095
791.58        71.50532
792.00        71.36465
792.41        71.10396
792.82        70.95076
793.23        70.86318
793.65        70.50667
794.06        70.14748
794.47        70.40057
794.88        71.03188
795.29        72.57192
795.71        72.14294
796.12        72.37485
796.53        72.43533
796.94        71.97494
797.35        71.19105
797.76        70.92258
798.18         71.1867
798.59        71.28904
799.00         71.2196
799.41        71.21242
799.82        71.66763
800.23        71.91692
800.64        72.05607
801.06        71.88202
801.47        71.91982
801.88        71.91275
802.29        72.00242
802.70        72.12231
803.11        72.19732
803.52        72.11258
803.93         71.8615
804.34        71.51631
804.75        71.14765
805.17        70.94291
805.58        70.98544
805.99        70.93594
806.40        70.84605
806.81        71.52023
807.22        72.60109
807.63        72.42136
808.04        71.24722
808.45        70.95951
808.86        71.72294
809.27          72.566
809.68        73.20928
810.09         73.5849
810.50        73.56271
810.91        73.18424
811.32        72.66017
811.73        72.25487
812.14        72.05363
812.55         72.1636
812.96         72.4305
813.37        72.16937
813.78        71.50912
814.19        71.45641
814.60        71.94527
815.01        72.09454
815.42        71.87051
815.83        71.75986
816.24        71.80252
816.65        71.82214
817.05        71.83038
817.46        71.83927
817.87        71.86382
818.28        71.87772
818.69        71.89159
819.10        71.91328
819.51        71.96028
819.92        72.13116
820.33        72.43968
820.74        72.64701
821.14        72.77155
821.55        73.27413
821.96        73.93597
822.37        73.71974
822.78        72.78087
823.19        72.32507
823.60        72.47367
824.00        72.59726
824.41        72.57798
824.82        72.62055
825.23        72.69603
825.64        72.75741
826.04        72.82526
826.45        72.88371
826.86        72.94112
827.27        73.00175
827.68        73.03858
828.08        73.03214
828.49        72.92734
828.90        72.75696
829.31        72.59079
829.72        72.54736
830.12        72.67092
830.53        72.89717
830.94        73.12479
831.35         73.1664
831.75        73.00951
832.16        72.66611
832.57        72.29475
832.97        72.14587
833.38        72.26234
833.79        72.55954
834.20        72.89645
834.60         73.0468
835.01        72.96892
835.42        72.74544
835.82        72.44996
836.23        72.15072
836.64        71.91497
837.04        71.71323
837.45        71.59282
837.86        71.67793
838.26         71.9874
838.67        72.46216
839.08        72.95154
839.48        73.14783
839.89        72.97794
840.29        72.56189
840.70        72.12509
841.11        71.93951
841.51        72.08694
841.92        72.40945
842.33        72.89175
842.73        73.50926
843.14        74.10745
843.54        74.75746
843.95        75.18449
844.35        75.02267
844.76        74.25576
845.17         73.0453
845.57        71.80902
845.98        71.20139
846.38        71.36672
846.79        72.12167
847.19         73.2144
847.60        74.03123
848.00        74.40135
848.41        74.41947
848.81        74.27993
849.22        74.20753
849.62        74.32292
850.03        74.49123
850.43        74.66735
850.84        74.69914
851.24        74.59698
851.65        74.36377
852.05        74.15109
852.46         74.0696
852.86        74.15125
853.27        74.37444
853.67        74.54954
854.07        74.52604
854.48        74.24952
854.88        73.80496
855.29        73.29362
855.69        73.04317
856.10        73.06152
856.50         73.3492
856.90        73.74141
857.31        73.97295
857.71        74.02843
858.12        73.91956
858.52        73.76749
858.92        73.64783
859.33        73.57888
859.73        73.56434
860.13        73.58401
860.54        73.62547
860.94        73.72797
861.34        73.84927
861.75        73.92919
862.15         73.9622
862.55        73.90518
862.96        73.80639
863.36        73.65414
863.76        73.40743
864.17        73.08391
864.57        72.71909
864.97         72.4774
865.38        72.59537
865.78        73.14587
866.18        73.98475
866.58        74.81942
866.99        75.12601
867.39        74.79882
867.79        73.97448
868.19        72.84454
868.60        71.70609
869.00        70.66495
869.40        69.69465
869.80        68.99385
870.21        68.87209
870.61        69.40749
871.01         70.4615
871.41        71.61591
871.81        72.18576
872.22        72.03764
872.62        71.37879
873.02        70.48238
873.42        70.02352
873.82        69.97724
874.22        69.64755
874.63        69.25735
875.03        69.35515
875.43        69.96706
875.83        71.90111
876.23        72.11005
876.63        71.73158
877.03        70.21802
877.44        67.68015
877.84        130.3338
878.24        67.25036
878.64        68.57436
879.04        72.57788
879.44        69.40427
879.84        67.57758
880.24        71.79917
880.64        71.86941
881.04        68.84224
881.44        66.97903
881.84        66.97842
882.24         68.1262
882.65        69.76818
883.05        70.63567
883.45        70.31229
883.85        69.48933
884.25        68.67504
884.65        68.36186
885.05        68.70318
885.45        69.49959
885.85        70.38855
886.25        70.79591
886.65        70.57063
887.05        69.93182
887.45        69.21042
887.85        68.88301
888.25        69.07897
888.65        69.65013
889.04        70.41045
889.44        70.96426
889.84        71.19604
890.24        71.18659
890.64        71.05463
891.04        70.98867
891.44        71.00614
891.84        70.99386
892.24        70.83088
892.64        70.33676
893.04        69.53297
893.44        68.61835
893.83        67.66672
894.23         66.7784
894.63        65.99502
895.03        65.26975
895.43        64.84368
895.83        65.11333
896.23        66.09637
896.63        67.66183
897.02        69.25732
897.42         69.8868
897.82        69.33839
898.22        67.91941
898.62        66.26804
899.01        65.38053
899.41        65.52636
899.81        66.36272
900.21        67.52614
900.61        68.46398
901.00        68.98286
901.40        69.23388
901.80          69.298
902.20        69.27552
902.59         69.2283
902.99        69.10437
903.39        68.87725
903.79        68.53328
904.18        68.09615
904.58        67.64841
904.98        67.36539
905.38        67.49878
905.77        68.05824
906.17        68.95123
906.57        69.87232
906.96        70.37287
907.36        70.29769
907.76        69.75198
908.15        69.03325
908.55        68.57346
908.95        68.51308
909.34        68.77895
909.74        69.05904
910.14        68.80605
910.53        67.91874
910.93        66.65828
911.33        65.55463
911.72        65.43324
912.12        66.38663
912.52         68.0438
912.91        69.80673
913.31        70.68659
913.70        70.48423
914.10        69.46022
914.49        67.93419
914.89        66.65958
915.29        65.97864
915.68        65.73579
916.08        65.84513
916.47        66.15359
916.87        66.54298
917.26        67.04053
917.66        67.60098
918.05        68.16609
918.45        68.66465
918.84        69.13113
919.24        69.32881
919.64        68.91591
920.03        67.90158
920.42        66.43108
920.82         65.1284
921.21        64.90365
921.61        65.85337
922.00        67.73543
922.40        69.74051
922.79         70.7634
923.19        70.48907
923.58        69.02533
923.98        66.86971
924.37        65.68131
924.77          66.101
925.16        64.13012
925.55        66.04111
925.95        66.11917
926.34        66.18919
926.74        66.20857
927.13        66.37537
927.52        66.75098
927.92        67.29424
928.31        68.00673
928.70         68.6617
929.10        68.92597
929.49        68.71539
929.89        68.13056
930.28        67.48003
930.67        67.25819
931.07        67.55535
931.46        68.27517
931.85        69.07967
932.24        69.47215
932.64        69.32735
933.03        68.71032
933.42        67.88305
933.82         67.3936
934.21        67.37134
934.60        67.66711
934.99        67.80491
935.39         67.4119
935.78        66.46154
936.17        64.51694
936.56        61.79829
936.96         62.7792
937.35        61.98809
937.74        63.70851
938.13        65.52231
938.53        66.85812
938.92        67.63467
939.31        68.06139
939.70        68.27233
940.09        68.34031
940.49        68.33696
940.88         68.2495
941.27        68.12405
941.66        68.08035
942.05         68.1336
942.44        68.23078
942.84        68.42513
943.23        68.80565
943.62        69.33118
944.01        70.01152
944.40        70.50035
944.79        70.23763
945.18        69.13322
945.57        67.30471
945.97        65.42552
946.36        64.68576
946.75        65.44527
947.14        67.26071
947.53        69.26915
947.92        70.29172
948.31        70.10181
948.70        69.07269
949.09        67.67789
949.48        66.74441
949.87        66.55947
950.26        66.85053
950.65        67.38485
951.04        67.79268
951.43        67.92951
951.82        67.94808
952.21        67.88085
952.60        67.74535
952.99        67.56757
953.38        67.30339
953.77        67.01164
954.16        66.81397
954.55        66.73452
954.94        66.76734
955.33        66.83434
955.72        66.78204
956.11        66.59166
956.50        66.32723
956.89        66.09666
957.28        66.10725
957.66        66.40549
958.05        66.78876
958.44        67.19698
958.83        67.55952
959.22        67.83375
959.61        68.07925
960.00         68.0612
960.39         67.3834
960.78        66.04448
961.16        64.18456
961.55        62.44384
961.94        61.66437
962.33        62.01027
962.72        63.27015
963.11         64.8249
963.49        65.59299
963.88        65.17986
964.27        63.91452
964.66        62.40388
965.04        61.66055
965.43        61.95742
965.82        63.00316
966.21        64.28357
966.60        64.97159
966.98        64.86505
967.37        64.21384
967.76        63.51451
968.15        63.52523
968.53        64.41397
968.92        65.80081
969.31        67.21311
969.69        67.89361
970.08        67.57238
970.47        66.55141
970.86        65.10934
971.24        63.65781
971.63        62.45168
972.02        61.41106
972.40        60.62129
972.79        60.24623
973.17        60.32779
973.56        60.78844
973.95        61.54134
974.33        62.36974
974.72        63.03313
975.11        63.52237
975.49        63.72546
975.88        63.50588
976.26        62.88729
976.65        61.97364
977.04        60.90136
977.42        59.92991
977.81        59.20381
978.19        58.66706
978.58        58.48663
978.96        58.91557
979.35        59.90255
979.74        61.48202
980.12        63.20021
980.51        63.97993
980.89        63.69153
981.28        62.54921
981.66        61.33039
982.05        61.17088
982.43        62.21857
982.82        64.07955
983.20        66.13285
983.59        66.96365
983.97        66.25388
984.35        64.39159
984.74         62.0852
985.12        60.31287
985.51         59.3978
985.89        59.03934
986.28        59.09763
986.66        59.34925
987.04         59.5755
987.43        59.90828
987.81        60.07571
988.20        59.69208
988.58        58.62521
988.96        56.74905
989.35        54.38021
989.73        52.74575
990.12        52.59372
990.50        53.74928
990.88        55.28455
991.27        56.03985
991.65        56.02378
992.03        55.54323
992.42        55.24316
992.80        56.22393
993.18         58.6574
993.56        61.79402
993.95        64.78741
994.33        66.96284
994.71        67.97864
995.10        68.10039
995.48         67.4417
995.86        66.06308
996.24        64.06456
996.63        61.39785
997.01        58.34703
997.39        55.98582
997.77        54.95767
998.15          55.124
998.54        55.96096
998.92        56.75768
999.30        57.33265
999.68        57.91177
1000.06        58.25075
1000.45        57.75074
1000.83        56.47325
1001.21        54.71507
1001.59        53.20861
1001.97        52.53119
1002.35         52.5694
1002.73         53.1308
1003.12        53.92236
1003.50         54.3111
1003.88        53.94814
1004.26        53.16024
1004.64        52.08085
1005.02         50.8285
1005.40        49.51138
1005.78         48.0065
1006.16        46.95972
1006.54        47.63846
1006.92        49.91257
1007.30        52.87123
1007.69         55.3497
1008.07        56.38122
1008.45        55.71944
1008.83        53.44366
1009.21        49.00584
1009.59        42.71227
1009.97          36.198
1010.35        30.50724
1010.73        27.86424
1011.11        29.61355
1011.49        34.86208
1011.86        42.89654
1012.24        50.21276
1012.62        53.41671
1013.00         52.3039
1013.38        48.06256
1013.76        42.68066
1014.14        39.72791
1014.52        40.27343
1014.90        43.24179
1015.28        47.00176
1015.66        48.80642
1016.04        47.70342
1016.41        44.43399
1016.79        39.91895
1017.17        36.58187
1017.55        35.74024
1017.93         36.4408
1018.31        37.85561
1018.69        39.33448
1019.06        40.61854
1019.44        41.70465
1019.82        42.37059
1020.20        41.83067
1020.58        39.85249
1020.95        36.86475
1021.33           32.76
1021.71        26.25108
1022.09        15.56033
1022.46       -4.590924
1022.84       -34.66675
1023.22       -44.87965
1023.60       -18.11765
1023.97         13.4989
1024.35        31.53872
1024.73        36.98529
