SpectraSmart Spectrum 2.9.0.0
--------- Device Information -----------
Spectrum Name :  反射率_0
Saving Time :  2024/04/20 00:33:20
Spectro-Module Model Name : SE2030-DUVN
Spectro-Module Serial Number : OS361AC55029948
Wavelength Start : 200
Wavelength End : 1025
Wavelength Unit : Wavelength(nm)
Spectrum Unit : Reflectance(%)
-----------Spectrum Setting ------------
Integration Time : 30ms
Average : 10
Boxcar : 0
Background removal :  enabled
linearity correction :  enabled
SC :  disabled
Intensity correction :  disabled
DWT denoise :  enabled
savitzky-golay :  disabled
FFT :  disabled
Running average :  disabled
Kalman :  disabled
High pass :  disabled
---------------BEGIN--------------------
Wavelength(nm)             Reflectance(%)
200.29               0
200.75        62.10166
201.21        62.10227
201.67        64.17809
202.13        68.76086
202.58        75.84888
203.04        86.09199
203.50        95.68354
203.96        95.74084
204.42         86.7442
204.88        74.60661
205.34        64.82928
205.80        60.10865
206.26        59.55637
206.72        62.45785
207.18         68.5158
207.64        73.26593
208.10        72.15331
208.55        67.23125
209.01        61.65105
209.47        59.12529
209.93        59.48033
210.39         61.0775
210.85        62.81208
211.31         63.6768
211.77        63.46452
212.23        62.65232
212.69        61.31929
213.14        60.22822
213.60        59.69361
214.06        59.75612
214.52        60.34838
214.98        61.64252
215.44        63.56916
215.90        65.98999
216.36        68.68078
216.81        70.63802
217.27        71.12434
217.73        70.61098
218.19        68.82889
218.65        65.26787
219.11         59.8961
219.57        52.48455
220.02        44.54824
220.48        40.73526
220.94        42.44735
221.40         49.0597
221.86        56.97981
222.32        60.54822
222.77        58.58327
223.23        53.01545
223.69        47.24519
224.15        46.14603
224.61        49.60536
225.06         54.8524
225.52        59.38693
225.98         61.2157
226.44        60.33647
226.90        57.73687
227.36        54.20153
227.81        51.09638
228.27        49.41017
228.73        48.64802
229.19        48.62462
229.65        49.10107
230.10         49.8332
230.56        50.82933
231.02        51.89418
231.48        52.79425
231.93         53.4404
232.39        53.88503
232.85        54.05504
233.31        53.89788
233.77        53.43865
234.22        52.70483
234.68        51.88008
235.14        51.19824
235.60        50.78891
236.05        50.67031
236.51        50.82514
236.97        51.18089
237.43        51.79096
237.88        52.93857
238.34        54.61041
238.80        56.83738
239.26        59.22733
239.71        61.28112
240.17        62.80606
240.63        64.41226
241.08        66.33997
241.54        68.45148
242.00        69.87679
242.46         68.8665
242.91        64.56104
243.37        55.85075
243.83        43.61178
244.28        36.46596
244.74        42.66158
245.20        60.21874
245.66        77.67542
246.11         85.6715
246.57        83.75336
247.03        73.02817
247.48        55.45464
247.94        46.41296
248.40        50.89681
248.85        58.97799
249.31        65.51179
249.77        69.15456
250.22        70.64829
250.68        71.28682
251.14        71.17329
251.59        70.02813
252.05        68.08097
252.51        65.36356
252.96        62.40196
253.42        60.61789
253.88        60.50996
254.33        61.72109
254.79        64.44511
255.25        68.45792
255.70        73.21412
256.16        78.18334
256.62         82.3193
257.07        84.49104
257.53        84.86592
257.99        83.76211
258.44        81.42183
258.90        79.13531
259.35        76.91661
259.81        75.37985
260.27        74.00297
260.72          72.297
261.18        70.54053
261.63        68.42065
262.09        66.72871
262.55        65.98688
263.00        66.04289
263.46        66.71599
263.91        67.07639
264.37        66.40106
264.83         64.6666
265.28        62.20342
265.74        59.93164
266.19        58.62468
266.65        58.47367
267.11        58.98915
267.56        59.62795
268.02        59.62844
268.47        58.81081
268.93        57.45646
269.38        55.79121
269.84         54.3906
270.30         53.4123
270.75        52.70112
271.21        52.11382
271.66        51.41371
272.12        50.52344
272.57        49.51474
273.03        48.51493
273.48        47.60721
273.94         46.8796
274.39        46.26687
274.85        45.69288
275.31        44.98783
275.76        44.10257
276.22        43.10927
276.67        42.14735
277.13        41.55835
277.58        41.30103
278.04        41.29986
278.49        41.20675
278.95        40.62355
279.40        39.47523
279.86        38.03709
280.31        36.56946
280.77        35.60125
281.22        35.14805
281.68        35.06507
282.13        35.12579
282.59        35.05495
283.04        34.75388
283.50        34.35845
283.95        33.89049
284.41        33.42809
284.86        32.98333
285.32        32.56522
285.77        32.21009
286.22        32.05976
286.68        32.12069
287.13        32.31133
287.59        32.54702
288.04        32.66247
288.50        32.63792
288.95        32.47866
289.41        32.24131
289.86        31.92971
290.32        31.62114
290.77        31.31817
291.22         31.0852
291.68         30.9816
292.13        31.03016
292.59        31.24515
293.04        31.64191
293.50        32.25629
293.95        33.06005
294.40        34.01706
294.86        35.04391
295.31        36.02399
295.77        36.91923
296.22        37.74204
296.68        38.51606
297.13        39.26856
297.58        40.02332
298.04        40.78399
298.49        41.55155
298.95        42.37512
299.40        43.24385
299.85        44.14308
300.31        45.07113
300.76         46.0043
301.21         46.9234
301.67        47.85199
302.12        48.69311
302.58        49.39196
303.03        49.91662
303.48        50.31843
303.94        50.73204
304.39        51.31157
304.84        52.09256
305.30        53.00632
305.75        53.88767
306.20        54.52093
306.66        54.87968
307.11        55.01267
307.57        55.04819
308.02        55.08136
308.47        55.18346
308.93        55.32041
309.38        55.47733
309.83        55.70144
310.29        55.98244
310.74         56.3094
311.19        56.59216
311.65        56.67572
312.10         56.5275
312.55        56.19611
313.00        55.82053
313.46        55.61703
313.91        55.61674
314.36        55.77497
314.82        55.96221
315.27        55.99691
315.72         55.8175
316.18         55.4992
316.63        55.13464
317.08        54.88565
317.53        54.78649
317.99        54.77341
318.44        54.77006
318.89        54.63924
319.35        54.34842
319.80        53.95381
320.25         53.5238
320.70        53.16757
321.16        52.91051
321.61        52.72225
322.06        52.56356
322.51        52.37798
322.97          52.134
323.42         51.8622
323.87        51.55421
324.32        51.20407
324.78        50.80888
325.23        50.38869
325.68        49.95713
326.13         49.5525
326.59        49.19004
327.04        48.89625
327.49        48.66241
327.94        48.47905
328.39        48.33377
328.85        48.19264
329.30        48.10308
329.75         48.0659
330.20        48.07039
330.66          48.088
331.11        48.07154
331.56        47.88191
332.01        47.49961
332.46        46.95995
332.92        46.38078
333.37        45.99924
333.82        45.87644
334.27         45.9726
334.72        46.16438
335.17        46.22994
335.63         46.0873
336.08        45.81261
336.53        45.51434
336.98        45.39837
337.43        45.51123
337.88        45.78234
338.34        46.04055
338.79        46.06576
339.24        45.78503
339.69        45.27148
340.14        44.71273
340.59        44.41878
341.05        44.45977
341.50        44.75167
341.95         45.1013
342.40        45.20987
342.85        45.01318
343.30        44.61782
343.75        44.17949
344.20        43.95049
344.66        43.98782
345.11        44.16915
345.56        44.40115
346.01        44.53734
346.46        44.52024
346.91        44.41699
347.36        44.19204
347.81        43.77895
348.26        43.20636
348.72        42.52444
349.17        41.88155
349.62        41.59742
350.07        41.73262
350.52         42.1764
350.97        42.72804
351.42        43.08057
351.87        43.14168
352.32        42.98731
352.77        42.68087
353.22        42.33383
353.67        41.99992
354.13        41.66442
354.58        41.31982
355.03        41.00663
355.48        40.73837
355.93        40.52838
356.38        40.37854
356.83        40.27568
357.28        40.20215
357.73        40.14069
358.18         40.0618
358.63        39.92577
359.08        39.71891
359.53        39.45166
359.98        39.12477
360.43        38.73928
360.88        38.30749
361.33        37.83936
361.78        37.37943
362.23         37.0014
362.68        36.72254
363.13        36.51987
363.58        36.34764
364.03        36.12914
364.48        35.83426
364.93        35.47559
365.38        35.06337
365.83        34.62452
366.28        34.18005
366.73        33.73215
367.18         33.2949
367.63         32.8871
368.08        32.51858
368.53        32.19608
368.98        31.92048
369.43        31.68323
369.88        31.47694
370.33        31.29865
370.78        31.13727
371.23        30.97893
371.68        30.81808
372.13         30.6495
372.58        30.48138
373.03        30.33487
373.48        30.20752
373.93        30.08252
374.38        29.93749
374.83        29.73635
375.28        29.47018
375.72        29.14862
376.17        28.80037
376.62        28.42987
377.07        28.06262
377.52        27.71065
377.97        27.41999
378.42        27.25925
378.87        27.22625
379.32        27.28053
379.77        27.36486
380.22        27.39052
380.67        27.32994
381.11        27.21644
381.56        27.02666
382.01        26.75119
382.46        26.40871
382.91        26.00135
383.36        25.63083
383.81        25.45035
384.26        25.47661
384.71        25.67007
385.15        25.87354
385.60        25.84768
386.05        25.54848
386.50        25.05736
386.95         24.5465
387.40        24.29115
387.85        24.34812
388.29        24.60899
388.74        24.92842
389.19        25.08698
389.64        25.02917
390.09        24.81352
390.54         24.5306
390.98        24.31344
391.43        24.22431
391.88        24.21408
392.33        24.19953
392.78        24.06473
393.23        23.80592
393.67        23.46018
394.12        23.17494
394.57        23.07346
395.02        23.17274
395.47        23.42291
395.91        23.71221
396.36        23.81623
396.81        23.68876
397.26        23.39881
397.71        23.07503
398.15        22.89198
398.60        22.91462
399.05        23.06387
399.50        23.24879
399.95        23.34261
400.39        23.31249
400.84        23.19487
401.29        23.04919
401.74        22.98086
402.18        23.02542
402.63           23.14
403.08        23.24856
403.53        23.22872
403.97        23.05987
404.42         22.7975
404.87        22.54369
405.32         22.4641
405.76        22.58891
406.21        22.85842
406.66        23.16298
407.11        23.33132
407.55        23.32179
408.00        23.19143
408.45        23.00602
408.90        22.82436
409.34        22.70928
409.79         22.7459
410.24        22.87172
410.68        22.89451
411.13        22.80117
411.58        22.69742
412.03        22.61028
412.47         22.5515
412.92        22.53063
413.37        22.53354
413.81          22.577
414.26        22.70543
414.71         22.9074
415.15        23.17502
415.60        23.40662
416.05         23.4669
416.49        23.32472
416.94        23.02439
417.39        22.67499
417.83        22.45416
418.28         22.4171
418.73        22.51047
419.17        22.65369
419.62        22.70914
420.07        22.64714
420.51        22.51548
420.96        22.37765
421.41        22.30533
421.85        22.31003
422.30        22.37367
422.74          22.462
423.19        22.56549
423.64        22.66361
424.08        22.77175
424.53        22.85369
424.98        22.88156
425.42         22.8555
425.87        22.78735
426.31        22.69557
426.76        22.61813
427.21        22.55648
427.65        22.49507
428.10        22.46841
428.54        22.50111
428.99        22.59711
429.44        22.84316
429.88        23.10403
430.33        23.01764
430.77        22.65823
431.22         22.4865
431.66        22.55564
432.11        22.68448
432.56        22.83344
433.00        23.10931
433.45        23.32969
433.89        23.17619
434.34          22.797
434.78        22.55754
435.23        22.42316
435.67        23.14555
436.12         22.5699
436.57        22.48667
437.01        22.33223
437.46        22.28297
437.90        22.35377
438.35        22.47099
438.79         22.5669
439.24        22.59934
439.68        22.55338
440.13        22.26749
440.57        21.90648
441.02        22.07899
441.46        22.58663
441.91        22.73328
442.35        21.95838
442.80        21.71694
443.24        21.80414
443.69        21.82893
444.13        21.75689
444.58        21.70328
445.02        21.67801
445.47        21.73393
445.91        21.82876
446.36        21.82202
446.80        21.69529
447.24        21.51814
447.69        21.35494
448.13        21.25838
448.58        21.25365
449.02        21.31969
449.47        21.40423
449.91        21.41389
450.36        21.33681
450.80        21.20061
451.25        21.07191
451.69        21.03281
452.13        21.10468
452.58        21.24442
453.02        21.40444
453.47        21.51898
453.91        21.56624
454.36        21.56579
454.80        21.51861
455.24        21.42456
455.69        21.30488
456.13        21.14277
456.58        20.99354
457.02        20.92771
457.46         20.9508
457.91        20.99306
458.35        21.02378
458.79        21.05033
459.24        21.05562
459.68        21.04555
460.13        21.07368
460.57        21.02553
461.01        20.88407
461.46        21.22422
461.90        21.23736
462.34        20.98032
462.79        21.15831
463.23        21.05215
463.68        20.97831
464.12        20.89723
464.56        20.97835
465.01        21.07896
465.45        21.16098
465.89        21.19022
466.34        21.16472
466.78         21.0262
467.22        20.84262
467.67        20.87253
468.11        21.07053
468.55        21.02529
468.99        20.77113
469.44        20.69974
469.88        20.82633
470.32        20.93069
470.77        20.97289
471.21         20.9956
471.65        20.99047
472.10        20.94643
472.54        20.88626
472.98        20.88992
473.42        20.96496
473.87        21.02627
474.31        21.06061
474.75        21.17801
475.20        21.32854
475.64        21.28849
476.08        21.11266
476.52        21.07163
476.97        21.18035
477.41         21.3095
477.85        21.41227
478.29        21.47731
478.74        21.49396
479.18        21.42844
479.62        21.34861
480.06        21.36731
480.50         21.4758
480.95        21.54524
481.39        21.54394
481.83        21.52546
482.27        21.49083
482.72        21.41973
483.16        21.34431
483.60        21.34385
484.04        21.42568
484.48        21.59427
484.93        21.84775
485.37        22.06838
485.81        21.97027
486.25        22.49948
486.69        23.26073
487.14        22.74632
487.58        22.18103
488.02         22.9147
488.46        22.40188
488.90        22.61833
489.34        22.60014
489.79        22.71068
490.23        22.88706
490.67         22.9939
491.11         23.0437
491.55        23.03648
491.99        22.99748
492.43        22.97965
492.88        23.00155
493.32        23.03456
493.76        23.09447
494.20        23.21039
494.64        23.38281
495.08        23.61942
495.52        23.87901
495.96        24.06117
496.41         24.1778
496.85        24.30981
497.29        24.46087
497.73        24.65478
498.17        24.85364
498.61        24.86835
499.05        24.75238
499.49        24.81363
499.93        25.08073
500.37        25.32686
500.82        25.51978
501.26        25.81684
501.70        26.13906
502.14        26.15339
502.58        25.92204
503.02        25.83884
503.46        25.93939
503.90        26.02239
504.34         26.0569
504.78        26.08109
505.22        26.08852
505.66        26.08008
506.10        26.07804
506.54        26.11144
506.98        26.18843
507.42        26.30176
507.86        26.43524
508.30        26.56203
508.74        26.67067
509.18         26.7626
509.62        26.84745
510.06         26.9413
510.50        27.04766
510.94        27.16351
511.38        27.26382
511.82        27.30985
512.26         27.2958
512.70        27.23211
513.14        27.16672
513.58        27.17031
514.02        27.24961
514.46         27.3875
514.90        27.52542
515.34        27.50274
515.78         27.3488
516.22        27.15413
516.66        27.01266
517.10        26.74399
517.54        26.37169
517.98        26.92387
518.42        26.83785
518.86        27.08375
519.30        27.17642
519.74        27.27441
520.18        27.34626
520.62        27.32205
521.06        27.21691
521.50        27.03724
521.93        26.83969
522.37        26.72683
522.81        26.72101
523.25        26.79381
523.69        26.89986
524.13        26.96572
524.57        26.96716
525.01        26.92343
525.45         26.8511
525.89        26.77614
526.32        26.70924
526.76        26.64594
527.20        26.57801
527.64        26.49922
528.08         26.4084
528.52        26.30555
528.96         26.2144
529.40        26.16714
529.83        26.16444
530.27        26.20345
530.71        26.22817
531.15        26.15326
531.59        25.97038
532.03        25.71111
532.46        25.45555
532.90        25.34879
533.34        25.40841
533.78        25.58244
534.22        25.78645
534.66        25.88998
535.09        25.85433
535.53        25.72987
535.97        25.55643
536.41        25.39425
536.85        25.27059
537.28        25.18091
537.72        25.13821
538.16        25.08694
538.60        25.14709
539.04        25.20959
539.47        25.28204
539.91        25.38378
540.35         25.5222
540.79        25.47343
541.22        25.57257
541.66        25.64877
542.10        25.82334
542.54        25.67774
542.97        25.89128
543.41        25.98516
543.85        26.14368
544.29        26.29887
544.72        26.42278
545.16        26.54868
545.60        26.66574
546.04        26.68527
546.47        26.67966
546.91        26.93066
547.35        27.36978
547.79        27.64971
548.22        27.73501
548.66        27.75817
549.10        27.77541
549.53        27.97083
549.97        28.34969
550.41        28.40421
550.84        28.65152
551.28        28.81128
551.72        29.05711
552.15        29.30421
552.59        29.54762
553.03        29.83252
553.46        30.03931
553.90        30.18352
554.34         30.2367
554.77        30.21771
555.21        30.18172
555.65        30.20426
556.08        30.30106
556.52        30.44654
556.96        30.60902
557.39        30.77587
557.83         30.9225
558.27        30.98226
558.70        30.97463
559.14        30.99414
559.57        31.04236
560.01        31.10947
560.45        31.17348
560.88          31.163
561.32        31.13813
561.75        31.18511
562.19        31.40842
562.63        31.52273
563.06        31.55029
563.50         31.5877
563.93        31.63745
564.37        31.76283
564.80        31.81941
565.24        31.92824
565.68        32.03234
566.11        32.15299
566.55        32.31078
566.98        32.44292
567.42        32.51319
567.85        32.87603
568.29        32.67955
568.72        32.93487
569.16        33.33622
569.60        33.61773
570.03        33.74327
570.47        33.92382
570.90        33.95645
571.34        34.32824
571.77        34.01234
572.21        34.24735
572.64        34.51086
573.08        34.91669
573.51        34.76843
573.95        35.32719
574.38        35.73773
574.82        36.06492
575.25        36.08301
575.69        35.89816
576.12          35.688
576.56        35.62172
576.99        35.75407
577.42        36.04901
577.86        35.98945
578.29        36.00209
578.73        36.62965
579.16        36.25374
579.60         35.9948
580.03        35.64554
580.47        35.90003
580.90        35.49151
581.33        35.32563
581.77        35.31186
582.20        36.01873
582.64        35.55684
583.07        34.99447
583.51        35.04641
583.94        34.50467
584.37        34.18423
584.81        34.09642
585.24        34.07929
585.68        34.15883
586.11        34.14999
586.54        34.04763
586.98        33.81086
587.41        33.82928
587.85        33.76668
588.28         33.6941
588.71        33.51667
589.15        33.32906
589.58        32.93465
590.01        33.12036
590.45        33.67759
590.88        33.32628
591.31        33.37072
591.75        32.77382
592.18        32.93623
592.61        32.87177
593.05        33.47283
593.48        33.37159
593.91        33.93758
594.35        33.47507
594.78         33.6062
595.21        33.92706
595.65        34.33369
596.08        34.38905
596.51        34.34499
596.94        34.21206
597.38        34.27802
597.81        34.62896
598.24        34.86628
598.68        35.44274
599.11        35.69411
599.54         36.6959
599.97        36.46074
600.41        36.72495
600.84        37.29198
601.27        37.79553
601.70        38.21973
602.14        38.35142
602.57        38.72837
603.00        39.31993
603.43        39.81479
603.87        40.20255
604.30        40.55481
604.73        40.90717
605.16        41.47634
605.60        41.87851
606.03        42.56179
606.46        43.21155
606.89        43.87466
607.32        44.20599
607.76        44.31743
608.19        44.77722
608.62        45.25603
609.05        45.22792
609.48        45.56589
609.92        46.33805
610.35        46.14473
610.78        47.09054
611.21        47.88567
611.64         47.6204
612.07        47.94139
612.50        48.44764
612.94         48.2238
613.37        48.88391
613.80        49.46104
614.23        49.75396
614.66        50.34727
615.09        50.55386
615.52        50.95631
615.96         51.3222
616.39        51.63106
616.82        51.96523
617.25        51.74382
617.68        52.25478
618.11        52.65021
618.54        53.18602
618.97          53.218
619.40        52.78217
619.84        53.10596
620.27        52.77186
620.70        53.25202
621.13         53.9398
621.56        54.14968
621.99         53.9948
622.42        54.06187
622.85        54.43247
623.28        54.62847
623.71        54.61017
624.14        54.89124
624.57        54.61824
625.00        54.62368
625.43        54.67618
625.86        54.14413
626.29        54.11421
626.72        53.84996
627.15        53.70924
627.58        53.56026
628.01        53.36596
628.44         53.3209
628.87        53.07139
629.30        52.60226
629.73        52.51314
630.16        51.99862
630.59        51.79437
631.02        51.45477
631.45        51.13365
631.88        50.72736
632.31        50.21182
632.74        49.84433
633.17        49.21096
633.60        48.66905
634.03        48.10697
634.46        47.53756
634.89         46.9749
635.32        46.44595
635.75        45.96292
636.18        45.52304
636.61         45.1071
637.04        44.67766
637.47        44.22175
637.89        43.74745
638.32        43.27092
638.75        42.84915
639.18        42.49819
639.61        42.20979
640.04        41.94276
640.47        41.62729
640.90        41.25262
641.33        40.84449
641.76         40.4649
642.18        40.21761
642.61         40.1171
643.04        40.12944
643.47        40.19352
643.90        40.20852
644.33        40.14796
644.76         40.0493
645.18        39.94531
645.61        39.89125
646.04        39.90902
646.47        39.97701
646.90        40.11303
647.33        40.34798
647.75        40.68104
648.18        41.10266
648.61        41.55622
649.04        41.95455
649.47        42.29219
649.89        42.56488
650.32        42.84466
650.75         43.3679
651.18        44.12731
651.61         44.7569
652.03        45.28447
652.46         46.2103
652.89        47.41122
653.32        47.99363
653.74        48.03191
654.17        48.54616
654.60        49.20153
655.03        50.13263
655.46         49.6414
655.88        51.92157
656.31        53.47657
656.74        60.83357
657.16        58.19333
657.59        53.86781
658.02        54.26376
658.45        55.01051
658.87        55.86996
659.30        56.40208
659.73        57.15352
660.15        57.86047
660.58        57.95753
661.01        57.89302
661.44        57.69455
661.86        58.06539
662.29        58.96621
662.72        59.98922
663.14        60.87068
663.57        61.03007
664.00        60.64316
664.42        60.65391
664.85        61.15383
665.27        61.52917
665.70        61.72354
666.13         61.9802
666.55        62.29529
666.98        62.59727
667.41        62.87205
667.83        63.08806
668.26        63.23152
668.69        63.32898
669.11        63.41564
669.54        63.53809
669.96        63.71809
670.39        63.95494
670.82        64.23483
671.24        64.50617
671.67        64.77128
672.09        65.06856
672.52        65.36018
672.94        65.67857
673.37        65.78701
673.80        65.78707
674.22        65.69172
674.65        65.69611
675.07        65.84124
675.50        66.02673
675.92        66.21146
676.35        66.32153
676.77        66.34445
677.20        66.31039
677.62        66.25949
678.05        66.26251
678.47         66.3325
678.90        66.45204
679.32        66.60766
679.75         66.7654
680.17        66.90687
680.60        67.09167
681.02        67.30276
681.45        67.35928
681.87        67.33212
682.30        67.53364
682.72          67.909
683.15        68.07789
683.57        68.04563
684.00        67.95585
684.42        67.96463
684.85        68.18901
685.27        68.27013
685.70        68.54266
686.12        68.81573
686.54        69.01177
686.97        69.10153
687.39         69.0461
687.82        69.01765
688.24        68.97495
688.66        68.97857
689.09        69.00404
689.51        69.05718
689.94         69.1184
690.36        69.20435
690.78        69.28593
691.21        69.34501
691.63        69.51626
692.06        69.82682
692.48        69.70854
692.90        69.82999
693.33         70.2757
693.75         70.0366
694.17        70.13917
694.60        70.21692
695.02        70.06298
695.44         69.7261
695.87        69.83364
696.29         70.3101
696.71        70.15027
697.14        69.57861
697.56        69.96577
697.98        71.09576
698.41        71.59715
698.83        71.38412
699.25        70.94897
699.68        70.80217
700.10        70.77936
700.52        70.70556
700.94        70.86578
701.37        71.07253
701.79        71.25419
702.21         71.3421
702.64        71.37061
703.06        71.37853
703.48        71.43083
703.90        71.54839
704.33        71.70097
704.75        71.84225
705.17        71.86983
705.59        71.76953
706.01        71.57545
706.44        71.40462
706.86        71.44147
707.28        71.70718
707.70        72.12914
708.12        72.56988
708.55        72.80857
708.97        72.79323
709.39        72.60477
709.81        72.32738
710.23         72.1129
710.66        72.02611
711.08        72.03065
711.50        72.11271
711.92         72.2663
712.34        72.47722
712.76        72.75627
713.19        73.03441
713.61         73.2515
714.03        73.35515
714.45        73.35652
714.87        73.32117
715.29        73.37061
715.71        73.52986
716.13        73.74614
716.56        73.92858
716.98        74.10624
717.40        74.07011
717.82        73.97965
718.24        73.84635
718.66        73.76435
719.08        73.75938
719.50        73.80489
719.92        73.86929
720.34        73.89563
720.76        73.87033
721.19        73.81496
721.61        73.76173
722.03        73.71987
722.45        73.72046
722.87        73.74396
723.29        73.80296
723.71        73.89596
724.13        74.02858
724.55        74.22818
724.97         74.4611
725.39         74.6446
725.81        74.75945
726.23        74.82564
726.65        74.87991
727.07        74.97943
727.49        75.13588
727.91        75.33173
728.33        75.51189
728.75        75.58373
729.17        75.52985
729.59         75.3875
730.01        75.22578
730.43        75.15159
730.85        75.19453
731.27        75.32167
731.69        75.49031
732.10        75.64201
732.52        75.74045
732.94        75.80287
733.36        75.83517
733.78        75.84579
734.20        75.84689
734.62         75.8466
735.04        75.83839
735.46         75.8158
735.88        75.77489
736.30        75.70923
736.72        75.67802
737.13        75.75744
737.55        75.90105
737.97        76.23554
738.39        76.61155
738.81        76.50021
739.23        75.99203
739.65        75.82538
740.06        76.00426
740.48        76.07269
740.90        75.96905
741.32        75.85982
741.74         75.7883
742.16        75.83099
742.57         76.0055
742.99        76.17249
743.41         76.3063
743.83        76.46942
744.25        76.53517
744.67        76.57249
745.08        76.54987
745.50        76.44095
745.92         76.2675
746.34        76.04095
746.75        75.81377
747.17        75.66521
747.59        75.62633
748.01        75.69849
748.42        75.84482
748.84        76.01154
749.26        76.19339
749.68        76.22513
750.09        76.18903
750.51        76.59219
750.93        77.25923
751.35        77.30904
751.76        76.80074
752.18        76.55203
752.60        76.64793
753.01        76.58823
753.43        76.40984
753.85        76.36923
754.27        76.47614
754.68        76.78757
755.10         77.2318
755.52        77.07363
755.93        77.28544
756.35        77.10038
756.77        76.90784
757.18        76.91499
757.60        77.20525
758.02        77.49646
758.43        77.58253
758.85        78.17384
759.26        77.98578
759.68        77.44769
760.10        77.26469
760.51         77.0926
760.93        77.19711
761.34        77.16153
761.76        76.88171
762.18         76.9132
762.59        76.65192
763.01        76.77048
763.42        77.09487
763.84        77.41572
764.26        77.67798
764.67        77.60765
765.09        77.46042
765.50        77.75489
765.92        78.86813
766.33        79.05194
766.75        78.39266
767.16        77.73214
767.58        77.24915
768.00        76.92344
768.41         76.8753
768.83        77.06669
769.24        77.43079
769.66        78.00882
770.07        78.58554
770.49        78.66433
770.90         78.3268
771.32        78.25053
771.73        78.47865
772.15        78.40051
772.56          78.188
772.97        78.11041
773.39        78.14144
773.80        78.01048
774.22        77.68309
774.63         77.2673
775.05        76.92367
775.46        76.92181
775.88        77.28432
776.29        77.96591
776.70        78.67635
777.12        78.96059
777.53        78.72023
777.95        78.05321
778.36         77.2775
778.77        76.93044
779.19        77.14982
779.60        77.83054
780.02        78.59508
780.43        79.05333
780.84         79.0994
781.26        78.34955
781.67        77.29548
782.09         77.9988
782.50        80.01397
782.91          80.072
783.33        78.80765
783.74        78.41391
784.15        79.13183
784.57        79.40593
784.98         79.1592
785.39        78.96558
785.81        78.84039
786.22        78.67662
786.63        78.52277
787.04        78.44568
787.46        78.46289
787.87        78.58548
788.28        78.78397
788.70        78.94668
789.11        79.03262
789.52        79.11847
789.93         79.2224
790.35        79.23926
790.76        79.23102
791.17        79.45613
791.58        79.80307
792.00        79.78307
792.41        79.38573
792.82        78.97629
793.23        78.63925
793.65        78.26913
794.06        78.07876
794.47        78.33804
794.88         78.8481
795.29        79.93181
795.71        80.12194
796.12        79.79613
796.53        80.21214
796.94        79.66439
797.35          78.866
797.76        78.55242
798.18        78.76301
798.59        78.88434
799.00        78.82587
799.41        78.88627
799.82        79.04534
800.23        79.20274
800.64        79.33078
801.06        79.33896
801.47        79.31824
801.88        79.41982
802.29        79.65205
802.70        79.92892
803.11        80.14177
803.52         80.1273
803.93        79.87794
804.34        79.48882
804.75        79.05048
805.17        78.80581
805.58        78.85836
805.99         78.7732
806.40        78.65155
806.81        79.53506
807.22        80.98255
807.63         80.9663
808.04        79.70686
808.45        79.25553
808.86        79.83031
809.27        80.49982
809.68        81.04652
810.09        81.39062
810.50        81.42547
810.91        81.28947
811.32        81.05901
811.73        80.72421
812.14         80.3238
812.55        79.97198
812.96        79.69492
813.37        79.30883
813.78        78.94137
814.19        79.08785
814.60        79.59837
815.01        79.82431
815.42        79.69965
815.83        79.52053
816.24        79.38898
816.65         79.3644
817.05        79.49847
817.46        79.72099
817.87        79.94809
818.28        80.00359
818.69        79.86999
819.10        79.61614
819.51        79.36683
819.92        79.39984
820.33        79.78484
820.74        80.23721
821.14        80.69422
821.55         81.4384
821.96        82.22382
822.37        82.16014
822.78        81.36433
823.19        80.87614
823.60        80.81232
824.00        80.62545
824.41        80.28146
824.82        80.12206
825.23        80.17015
825.64        80.35709
826.04        80.63036
826.45        80.84381
826.86         80.9642
827.27        81.02248
827.68        81.03142
828.08        81.04442
828.49        81.01855
828.90        80.96441
829.31         80.8979
829.72        80.85452
830.12         80.8626
830.53        80.88629
830.94        80.91042
831.35        80.87191
831.75         80.7841
832.16        80.62234
832.57        80.45634
832.97        80.38189
833.38        80.39975
833.79        80.48137
834.20        80.58047
834.60          80.614
835.01        80.58328
835.42        80.53429
835.82        80.47771
836.23        80.37412
836.64        80.24914
837.04        80.08195
837.45         79.9781
837.86        80.16142
838.26        80.66977
838.67        81.41603
839.08        82.11317
839.48        82.22457
839.89        81.64816
840.29        80.60078
840.70        79.56022
841.11        79.14575
841.51        79.50703
841.92        80.39235
842.33        81.56102
842.73        82.58221
843.14        83.16225
843.54        83.48438
843.95        83.47825
844.35        83.13423
844.76        82.52367
845.17        81.67487
845.57        80.82502
845.98        80.37522
846.38        80.41003
846.79        80.84214
847.19        81.53651
847.60        82.06405
848.00        82.33736
848.41        82.38625
848.81        82.36205
849.22        82.42558
849.62        82.66591
850.03        82.95874
850.43        83.24908
850.84        83.33553
851.24        83.23586
851.65        82.96314
852.05        82.67847
852.46        82.54885
852.86        82.63307
853.27        82.78759
853.67        82.89685
854.07        83.18871
854.48        83.48375
854.88        83.25063
855.29        82.56795
855.69        82.27846
856.10        82.39783
856.50        82.60379
856.90        82.72995
857.31         82.7155
857.71        82.58944
858.12        82.31577
858.52        82.04056
858.92        81.86846
859.33        81.80837
859.73        81.87242
860.13        81.99783
860.54        82.07693
860.94        82.13921
861.34        82.17406
861.75        82.14574
862.15        82.10137
862.55        82.01309
862.96        81.88718
863.36        81.77026
863.76        81.70971
864.17        81.71072
864.57        81.77713
864.97        81.89058
865.38        81.99697
865.78        82.12901
866.18        82.23098
866.58        82.25105
866.99        82.11313
867.39        81.86414
867.79        81.50914
868.19         81.0371
868.60        80.40377
869.00        79.60098
869.40        78.69698
869.80        77.93331
870.21        77.69517
870.61        78.11235
871.01        79.00461
871.41         79.9993
871.81        80.50288
872.22        80.38369
872.62        79.83137
873.02        79.07921
873.42        78.66647
873.82        78.59441
874.22        78.34933
874.63        78.05497
875.03        78.07231
875.43        78.41219
875.83        79.69651
876.23        79.77006
876.63        79.51267
877.03        78.54475
877.44        76.91943
877.84        121.4305
878.24        77.10979
878.64        78.23207
879.04        81.15235
879.44        79.01959
879.84        77.56505
880.24        80.11322
880.64        79.65845
881.04        76.94262
881.44        75.27335
881.84        75.27881
882.24        76.38106
882.65        77.89722
883.05        78.61841
883.45        78.13535
883.85        77.05534
884.25        75.94138
884.65        75.42497
885.05        75.68618
885.45        76.49436
885.85        77.46754
886.25        77.99393
886.65        77.89445
887.05        77.38335
887.45        76.78323
887.85        76.56023
888.25        76.84096
888.65        77.48293
889.04        78.27439
889.44        78.77348
889.84        78.87561
890.24        78.68562
890.64        78.41241
891.04        78.37508
891.44        78.61015
891.84        78.96327
892.24         79.2056
892.64        78.96577
893.04        78.20375
893.44        77.16883
893.83        76.02031
894.23        74.99749
894.63        74.17499
895.03        73.47762
895.43          73.093
895.83        73.33234
896.23        74.19597
896.63        75.58102
897.02        77.02521
897.42        77.66843
897.82        77.32244
898.22        76.23582
898.62        74.90804
899.01        74.12632
899.41        74.12779
899.81        74.64256
900.21        75.43288
900.61        76.13568
901.00        76.61271
901.40        76.96595
901.80        77.20547
902.20        77.31622
902.59        77.31922
902.99        77.18202
903.39        76.93256
903.79        76.63954
904.18        76.33627
904.58        76.07285
904.98        75.92461
905.38        76.00111
905.77        76.30019
906.17        76.79301
906.57        77.31421
906.96        77.63592
907.36        77.64783
907.76        77.37646
908.15        76.98974
908.55        76.71152
908.95        76.62652
909.34         76.7347
909.74        76.78303
910.14        76.34468
910.53        75.36757
910.93        74.06403
911.33        72.97961
911.72        72.96598
912.12         74.1032
912.52        76.01391
912.91        78.01258
913.31        78.97461
913.70        78.68845
914.10        77.45493
914.49        75.70176
914.89        74.37485
915.29        73.87173
915.68        73.92851
916.08        74.39822
916.47        75.04128
916.87        75.70358
917.26        76.43977
917.66        77.08974
918.05          77.411
918.45        77.32027
918.84        76.91185
919.24        76.20352
919.64        75.27591
920.03        74.24458
920.42        73.16138
920.82         72.3813
921.21        72.37628
921.61        73.14899
922.00        74.58656
922.40        76.13599
922.79        77.11486
923.19        77.29369
923.58        76.69016
923.98        75.55643
924.37        74.91064
924.77        75.18118
925.16        73.48279
925.55        74.58886
925.95         74.5183
926.34        74.68627
926.74        74.96706
927.13        75.38472
927.52        75.79026
927.92        76.11377
928.31        76.45433
928.70        76.69422
929.10         76.6787
929.49        76.40581
929.89         75.9017
930.28          75.467
930.67        75.58411
931.07         76.2912
931.46         77.4628
931.85        78.63889
932.24        79.13981
932.64        78.79556
933.03        77.72734
933.42        76.28304
933.82          75.229
934.21        74.82867
934.60        74.91958
934.99        75.02913
935.39        74.69656
935.78        73.85233
936.17        72.20975
936.56        70.01536
936.96        70.91171
937.35        70.62381
937.74        72.37321
938.13        74.13857
938.53        75.33327
938.92        75.89623
939.31        76.05487
939.70        75.95924
940.09        75.76838
940.49        75.60687
940.88        75.44643
941.27        75.39405
941.66         75.6516
942.05        76.21635
942.44        77.00117
942.84        77.85974
943.23        78.55069
943.62        78.94891
944.01        79.14902
944.40        79.03964
944.79        78.45541
945.18        77.41656
945.57        75.94222
945.97        74.52523
946.36          74.021
946.75        74.67067
947.14        76.17379
947.53        77.80859
947.92        78.57053
948.31        78.28233
948.70        77.25045
949.09         75.9323
949.48         75.1423
949.87         75.1395
950.26        75.64539
950.65        76.38417
951.04          76.908
951.43        77.04681
951.82        76.97133
952.21        76.71961
952.60        76.32712
952.99        75.85703
953.38         75.2892
953.77        74.75523
954.16        74.48672
954.55        74.52233
954.94        74.80875
955.33        75.20882
955.72        75.46922
956.11        75.52222
956.50        75.45126
956.89        75.30469
957.28        75.19512
957.66        75.18233
958.05        75.13227
958.44         75.1355
958.83        75.32021
959.22        75.67532
959.61        76.19917
960.00        76.59328
960.39         76.3216
960.78        75.30387
961.16        73.70746
961.55        72.12614
961.94        71.33852
962.33         71.5153
962.72        72.44827
963.11        73.64053
963.49        74.23934
963.88        73.90441
964.27        72.91879
964.66        71.74348
965.04        71.14323
965.43        71.31545
965.82        72.02796
966.21        72.89215
966.60        73.29031
966.98        73.07504
967.37         72.4361
967.76        71.74414
968.15        71.55474
968.53        72.00896
968.92        72.82233
969.31        73.69254
969.69        74.12564
970.08        73.92926
970.47        73.33268
970.86        72.49147
971.24         71.6207
971.63        70.89078
972.02        70.24205
972.40         69.8063
972.79        69.82774
973.17        70.35258
973.56        71.22297
973.95         72.2354
974.33        72.99199
974.72        73.23688
975.11        73.09099
975.49        72.59374
975.88        71.81977
976.26        70.87373
976.65         69.8028
977.04        68.79274
977.42        68.17144
977.81        68.04476
978.19        68.33003
978.58        68.94918
978.96        69.77262
979.35        70.61926
979.74        71.57847
980.12         72.4435
980.51        72.61304
980.89        72.12817
981.28        71.10268
981.66        70.08375
982.05        69.88753
982.43        70.60944
982.82         71.9911
983.20        73.61572
983.59        74.41759
983.97        74.16848
984.35        73.07048
984.74        71.64143
985.12        70.60059
985.51        70.16264
985.89        70.14384
986.28         70.2667
986.66        70.13853
987.04        69.58526
987.43        68.88777
987.81        68.17484
988.20        67.56572
988.58        67.01371
988.96        66.38706
989.35        65.72109
989.73        65.30508
990.12        65.27695
990.50        65.74577
990.88         66.3045
991.27        66.44677
991.65        66.24582
992.03        65.76334
992.42        65.53986
992.80        66.54759
993.18        68.87498
993.56        71.92802
993.95        74.72831
994.33        76.32644
994.71        76.43143
995.10        75.42754
995.48        73.83324
995.86        72.34626
996.24        71.25116
996.63        70.43218
997.01         69.8623
997.39        69.54668
997.77         69.4754
998.15         69.6066
998.54        70.05134
998.92         70.9688
999.30        72.42634
999.68        74.58257
1000.06        76.58121
1000.45        75.91531
1000.83        72.16927
1001.21        66.90983
1001.59        62.42631
1001.97        60.32612
1002.35        60.37323
1002.73        62.02267
1003.12        64.63022
1003.50        66.66615
1003.88        67.13818
1004.26        66.51225
1004.64        65.10764
1005.02        63.39417
1005.40        61.60213
1005.78        59.44417
1006.16        57.54234
1006.54        57.29292
1006.92        58.79676
1007.30        61.33533
1007.69        63.76148
1008.07         65.0452
1008.45        65.00231
1008.83          63.821
1009.21        61.35954
1009.59        58.31282
1009.97        55.83027
1010.35        54.03766
1010.73        53.71093
1011.11        55.29715
1011.49        58.28354
1011.86         62.5343
1012.24        65.90033
1012.62        66.43259
1013.00         64.1733
1013.38         59.9612
1013.76        55.26929
1014.14        52.80429
1014.52        53.35056
1014.90        56.00471
1015.28        59.67134
1015.66        62.49927
1016.04         63.8048
1016.41        64.26035
1016.79        63.45928
1017.17        61.05994
1017.55        57.67002
1017.93        53.68824
1018.31        50.67818
1018.69        50.17279
1019.06         51.9702
1019.44        55.57884
1019.82        59.60557
1020.20        60.45361
1020.58        56.74289
1020.95        49.68845
1021.33         41.2873
1021.71        33.25919
1022.09        25.20872
1022.46        13.76234
1022.84       0.4968854
1023.22        1.949426
1023.60        21.61576
1023.97        40.66741
1024.35         50.7532
1024.73        53.86905
