SpectraSmart Spectrum 2.9.0.0
--------- Device Information -----------
Spectrum Name :  反射率_0
Saving Time :  2024/04/20 00:10:14
Spectro-Module Model Name : SE2030-DUVN
Spectro-Module Serial Number : OS361AC55029948
Wavelength Start : 200
Wavelength End : 1025
Wavelength Unit : Wavelength(nm)
Spectrum Unit : Reflectance(%)
-----------Spectrum Setting ------------
Integration Time : 30ms
Average : 10
Boxcar : 0
Background removal :  enabled
linearity correction :  enabled
SC :  disabled
Intensity correction :  disabled
DWT denoise :  enabled
savitzky-golay :  disabled
FFT :  disabled
Running average :  disabled
Kalman :  disabled
High pass :  disabled
---------------BEGIN--------------------
Wavelength(nm)             Reflectance(%)
200.29               0
200.75        62.92543
201.21        63.26808
201.67         65.5889
202.13        70.69437
202.58        78.70442
203.04        89.74299
203.50        100.2996
203.96        101.9265
204.42        94.60144
204.88        84.04055
205.34        74.74727
205.80          68.471
206.26        64.08736
206.72        59.91751
207.18        56.09761
207.64        55.36526
208.10          59.794
208.55        68.33587
209.01        75.63699
209.47        78.14803
209.93        76.56771
210.39        72.33748
210.85        67.77306
211.31        65.49715
211.77        65.80382
212.23        68.12579
212.69        71.58429
213.14        72.82623
213.60           70.31
214.06         67.0065
214.52        64.43212
214.98        63.17021
215.44        62.91759
215.90        62.92108
216.36        63.62908
216.81        65.94899
217.27        69.53567
217.73        73.99461
218.19        77.14511
218.65        76.03258
219.11        70.27244
219.57        60.23795
220.02        48.46208
220.48        42.04134
220.94         43.6338
221.40        51.95946
221.86         63.0116
222.32         70.4249
222.77        72.39067
223.23        70.84654
223.69        68.14054
224.15        67.61464
224.61        69.53625
225.06         72.2252
225.52        74.41693
225.98        75.11665
226.44        74.37467
226.90        72.77906
227.36        71.01187
227.81        70.08862
228.27        70.55702
228.73        71.80533
229.19         73.1947
229.65        74.01534
230.10        74.12653
230.56        73.91234
231.02         73.6086
231.48        73.56942
231.93        73.76673
232.39        74.09019
232.85        74.27587
233.31        73.99655
233.77        73.20094
234.22        72.04312
234.68        70.72916
235.14        69.53659
235.60        68.64052
236.05        68.02521
236.51         67.7189
236.97        67.72511
237.43        68.05209
237.88        68.94482
238.34        70.17174
238.80        71.53236
239.26        72.60536
239.71        73.16274
240.17        73.09232
240.63        72.96085
241.08        73.00556
241.54        73.09571
242.00        72.73807
242.46        70.80807
242.91        66.64503
243.37        59.20799
243.83        49.03445
244.28        42.63502
244.74        46.45273
245.20        59.43235
245.66        72.39235
246.11        77.31226
246.57        73.48895
247.03        61.53835
247.48        44.18456
247.94        38.03002
248.40        46.16689
248.85        57.08513
249.31        65.33022
249.77        69.79055
250.22        71.58852
250.68        72.19239
251.14        71.80543
251.59        70.41553
252.05        68.39282
252.51        65.66745
252.96        62.92341
253.42        61.76422
253.88        62.59295
254.33        64.93694
254.79        68.44613
255.25        72.34508
255.70        76.20456
256.16        79.78416
256.62        82.69547
257.07        84.56536
257.53        85.47543
257.99        85.34347
258.44         83.7867
258.90        81.37698
259.35        78.35421
259.81        75.90325
260.27        73.83855
260.72        71.92571
261.18        70.37167
261.63        68.65733
262.09        67.51299
262.55        67.36991
263.00         67.9894
263.46        69.21527
263.91         69.9717
264.37         69.3868
264.83        67.47232
265.28        64.62688
265.74        62.00511
266.19        60.68792
266.65        60.88366
267.11        61.98114
267.56        63.19175
268.02         63.4211
268.47          62.445
268.93        60.66433
269.38        58.53137
269.84        57.00454
270.30        56.33188
270.75         56.2113
271.21         56.2827
271.66        55.99173
272.12        55.19181
272.57        54.06834
273.03        52.86302
273.48        51.82926
273.94        51.11209
274.39        50.56932
274.85        50.11082
275.31         49.5478
275.76        48.80664
276.22        47.97575
276.67        47.13659
277.13        46.54723
277.58        46.16146
278.04        45.94877
278.49         45.6309
278.95        44.92844
279.40        43.77727
279.86        42.40975
280.31         41.0374
280.77        40.13445
281.22        39.68887
281.68         39.5818
282.13        39.57026
282.59        39.36234
283.04        38.86807
283.50        38.24433
283.95        37.55065
284.41        36.93368
284.86        36.40637
285.32        35.94404
285.77        35.56282
286.22        35.37557
286.68        35.37563
287.13        35.49935
287.59        35.61666
288.04        35.48356
288.50         35.0906
288.95        34.47208
289.41        33.80771
289.86        33.29806
290.32        33.04729
290.77        32.97507
291.22        33.00145
291.68        32.96955
292.13        32.84336
292.59        32.70034
293.04        32.62472
293.50        32.76623
293.95        33.13618
294.40         33.6647
294.86         34.2571
295.31        34.77921
295.77        35.19328
296.22        35.54244
296.68        35.85692
297.13         36.1646
297.58        36.49546
298.04        36.84376
298.49        37.23785
298.95        37.76874
299.40         38.4183
299.85        39.14725
300.31        39.87708
300.76        40.47429
301.21        40.90936
301.67        41.25541
302.12        41.50478
302.58        41.71956
303.03        41.90598
303.48        42.07785
303.94        42.33343
304.39        42.77726
304.84        43.42012
305.30        44.20268
305.75        44.96543
306.20        45.49191
306.66        45.75001
307.11        45.78452
307.57        45.70493
308.02        45.59754
308.47        45.53168
308.93        45.47865
309.38        45.45187
309.83        45.53041
310.29         45.7076
310.74        45.96424
311.19        46.18818
311.65        46.19043
312.10        45.93483
312.55        45.48411
313.00        44.98346
313.46        44.65889
313.91        44.54688
314.36        44.59299
314.82        44.68775
315.27        44.67946
315.72        44.51069
316.18        44.24718
316.63        43.93767
317.08        43.66743
317.53        43.45898
317.99        43.27085
318.44        43.08919
318.89        42.88503
319.35         42.6502
319.80        42.40484
320.25         42.1497
320.70        41.88243
321.16        41.60227
321.61         41.3152
322.06        41.03332
322.51        40.78305
322.97        40.56038
323.42          40.362
323.87         40.1612
324.32         39.9223
324.78         39.6276
325.23        39.30063
325.68        38.94016
326.13        38.55463
326.59        38.15647
327.04        37.77419
327.49        37.43018
327.94        37.16383
328.39        36.98172
328.85        36.85318
329.30        36.80101
329.75        36.79854
330.20        36.82518
330.66        36.85839
331.11        36.87305
331.56        36.77361
332.01        36.54267
332.46        36.19767
332.92        35.80473
333.37        35.50121
333.82        35.33012
334.27        35.27927
334.72        35.29107
335.17        35.25944
335.63         35.1415
336.08        34.97319
336.53        34.82252
336.98        34.81854
337.43         34.9782
337.88        35.25497
338.34        35.48503
338.79         35.4539
339.24        35.10118
339.69        34.49915
340.14        33.85573
340.59        33.51952
341.05        33.56809
341.50        33.90513
341.95        34.32785
342.40        34.51832
342.85        34.40057
343.30        34.08638
343.75        33.70469
344.20        33.46529
344.66        33.42318
345.11        33.47002
345.56        33.56706
346.01        33.65702
346.46        33.69977
346.91        33.73299
347.36        33.66835
347.81        33.35646
348.26        32.80691
348.72        32.10204
349.17        31.41458
349.62        31.10851
350.07        31.26218
350.52        31.74639
350.97        32.36643
351.42        32.82796
351.87        33.03312
352.32        33.05313
352.77        32.91698
353.22         32.6778
353.67        32.37835
354.13        32.02185
354.58        31.63925
355.03        31.32855
355.48        31.12038
355.93        31.01072
356.38        30.98455
356.83        31.00257
357.28        31.03509
357.73        31.06978
358.18        31.07741
358.63        31.01582
359.08        30.87176
359.53        30.65914
359.98        30.37397
360.43        30.01164
360.88        29.59294
361.33        29.13716
361.78        28.71946
362.23        28.46016
362.68        28.37726
363.13        28.42036
363.58        28.50774
364.03        28.51017
364.48        28.38228
364.93        28.15535
365.38        27.83322
365.83        27.43375
366.28        26.98764
366.73        26.50172
367.18        26.04271
367.63        25.71325
368.08        25.53194
368.53        25.47427
368.98        25.47702
369.43        25.43077
369.88        25.30641
370.33        25.13703
370.78        24.94593
371.23        24.77891
371.68        24.65431
372.13        24.54427
372.58        24.46872
373.03        24.46702
373.48         24.5295
373.93         24.6364
374.38         24.7106
374.83        24.63195
375.28        24.38104
375.72        23.98978
376.17        23.55715
376.62        23.20612
377.07        22.98326
377.52        22.85588
377.97        22.79903
378.42        22.76902
378.87        22.74264
379.32        22.73192
379.77        22.72031
380.22        22.67756
380.67        22.59975
381.11        22.49504
381.56        22.36759
382.01        22.25143
382.46        22.15475
382.91        22.05899
383.36        21.97754
383.81        21.92754
384.26        21.90587
384.71        21.91934
385.15        21.90234
385.60        21.75957
386.05        21.48454
386.50        21.11025
386.95        20.76155
387.40        20.63624
387.85         20.7614
388.29        21.05758
388.74        21.37619
389.19        21.49578
389.64        21.37136
390.09        21.06668
390.54        20.69932
390.98        20.45128
391.43        20.39303
391.88        20.45816
392.33        20.54989
392.78        20.53039
393.23        20.38048
393.67         20.1402
394.12         19.9336
394.57        19.86165
395.02        19.94339
395.47        20.14012
395.91        20.36419
396.36        20.44079
396.81        20.33583
397.26        20.09891
397.71          19.848
398.15        19.74235
398.60        19.83242
399.05        20.04642
399.50        20.26995
399.95        20.34087
400.39         20.2258
400.84        19.97199
401.29        19.68402
401.74        19.55117
402.18        19.63169
402.63        19.85788
403.08        20.10432
403.53        20.17106
403.97        20.01801
404.42        19.72534
404.87        19.41883
405.32        19.30253
405.76        19.42023
406.21        19.69492
406.66         20.0161
407.11        20.21488
407.55        20.24498
408.00        20.16409
408.45        20.02048
408.90        19.84698
409.34        19.69919
409.79         19.6595
410.24        19.69387
410.68        19.66696
411.13        19.57542
411.58         19.5035
412.03        19.46706
412.47        19.46118
412.92        19.48542
413.37        19.52867
413.81        19.60186
414.26        19.73951
414.71        19.93098
415.15        20.17003
415.60        20.36718
416.05        20.40788
416.49        20.26684
416.94        19.98296
417.39        19.65944
417.83        19.46376
418.28        19.44535
418.73        19.55318
419.17        19.70175
419.62        19.74393
420.07        19.65164
420.51        19.47818
420.96        19.29648
421.41        19.19571
421.85        19.19363
422.30        19.26584
422.74        19.37649
423.19        19.50941
423.64        19.64184
424.08        19.78908
424.53        19.91142
424.98        19.96982
425.42        19.95943
425.87        19.89235
426.31        19.79187
426.76        19.70651
427.21        19.64036
427.65        19.57347
428.10        19.53549
428.54        19.54575
428.99        19.60707
429.44        19.79939
429.88        19.99737
430.33        19.87337
430.77        19.49416
431.22        19.26172
431.66           19.24
432.11        19.30528
432.56        19.43568
433.00        19.71873
433.45        19.96088
433.89        19.87994
434.34        19.60586
434.78        19.33548
435.23         19.0525
435.67        20.01548
436.12        19.45813
436.57        19.43495
437.01        19.20321
437.46        19.12156
437.90        19.20546
438.35        19.28876
438.79        19.33212
439.24        19.36022
439.68        19.36356
440.13        19.18082
440.57        18.92442
441.02        19.08156
441.46        19.47316
441.91        19.50163
442.35        18.72287
442.80        18.45689
443.24        18.51742
443.69        18.49343
444.13          18.362
444.58        18.29456
445.02         18.2989
445.47        18.37474
445.91          18.481
446.36        18.50825
446.80         18.4349
447.24        18.31605
447.69        18.19094
448.13        18.08139
448.58        18.00957
449.02        17.96637
449.47        17.94145
449.91        17.90986
450.36        17.87258
450.80        17.83649
451.25        17.82201
451.69        17.83999
452.13        17.89573
452.58         17.9718
453.02        18.05551
453.47        18.13183
453.91        18.19427
454.36        18.24451
454.80         18.2694
455.24        18.24723
455.69        18.18565
456.13        18.07527
456.58        17.96587
457.02        17.92066
457.46        17.94738
457.91        17.98642
458.35        18.01049
458.79        18.02389
459.24        18.01392
459.68        17.98532
460.13        17.99751
460.57        17.97095
461.01        17.89271
461.46        18.24921
461.90        18.32283
462.34         18.1202
462.79        18.24358
463.23        18.08208
463.68        17.94143
464.12        17.84234
464.56        17.94259
465.01        18.10081
465.45        18.24968
465.89        18.31084
466.34        18.27493
466.78        18.10935
467.22        17.89915
467.67        17.90833
468.11        18.10892
468.55        18.13253
468.99        17.98658
469.44        17.97693
469.88        18.10815
470.32        18.19988
470.77        18.22597
471.21        18.23806
471.65        18.23387
472.10        18.19872
472.54         18.1533
472.98        18.17093
473.42        18.25822
473.87        18.34194
474.31        18.40281
474.75        18.52345
475.20        18.65784
475.64        18.61144
476.08        18.44561
476.52        18.41791
476.97        18.54472
477.41        18.70898
477.85        18.84806
478.29        18.91625
478.74        18.89862
479.18        18.77772
479.62        18.64541
480.06        18.64921
480.50        18.78934
480.95        18.93487
481.39        19.02525
481.83        19.05859
482.27        19.02317
482.72         18.9196
483.16        18.80906
483.60        18.77707
484.04        18.81818
484.48           19.04
484.93        19.46631
485.37        19.53573
485.81        19.37275
486.25        20.27573
486.69         20.4427
487.14         19.9401
487.58        19.84606
488.02        20.47824
488.46         20.2543
488.90        20.29793
489.34        20.05106
489.79        20.11586
490.23        20.45036
490.67        20.73759
491.11        20.89915
491.55        20.84979
491.99        20.64892
492.43        20.57863
492.88        20.67566
493.32        20.74252
493.76         20.7882
494.20        20.91895
494.64        21.13314
495.08        21.42336
495.52        21.73314
495.96        21.91508
496.41        21.99029
496.85        22.11079
497.29        22.28706
497.73        22.49301
498.17        22.69634
498.61        22.75739
499.05         22.7179
499.49        22.82804
499.93        23.10905
500.37        23.36283
500.82        23.55873
501.26        23.84195
501.70        24.14226
502.14        24.15008
502.58        23.93522
503.02        23.88241
503.46        24.02637
503.90        24.17386
504.34        24.27537
504.78        24.33195
505.22        24.33022
505.66        24.28339
506.10         24.2308
506.54        24.22939
506.98        24.29842
507.42        24.42465
507.86        24.58815
508.30        24.75614
508.74        24.91077
509.18        25.05003
509.62        25.18167
510.06        25.31834
510.50        25.46079
510.94        25.60825
511.38        25.72006
511.82        25.73399
512.26        25.64598
512.70        25.47688
513.14        25.31617
513.58        25.29979
514.02        25.44542
514.46        25.71418
514.90        25.99944
515.34        26.06331
515.78        25.90985
516.22        25.65814
516.66        25.43479
517.10        25.10851
517.54        24.72105
517.98         25.3078
518.42         25.2577
518.86        25.54232
519.30        25.65721
519.74        25.76903
520.18        25.85155
520.62        25.84048
521.06        25.75146
521.50        25.58838
521.93        25.39332
522.37        25.24701
522.81        25.17347
523.25        25.15744
523.69        25.18413
524.13         25.2262
524.57        25.26738
525.01        25.30889
525.45        25.34181
525.89        25.35082
526.32        25.33107
526.76        25.28848
527.20          25.216
527.64        25.11038
528.08        24.97769
528.52        24.81945
528.96        24.67492
529.40        24.60171
529.83        24.60515
530.27        24.67393
530.71        24.74231
531.15        24.70653
531.59         24.5502
532.03        24.31012
532.46        24.05897
532.90        23.93027
533.34        23.94427
533.78        24.05422
534.22        24.19745
534.66        24.27789
535.09         24.2633
535.53        24.19281
535.97        24.08644
536.41        23.97169
536.85        23.86574
537.28        23.77242
537.72        23.71298
538.16        23.65003
538.60        23.70208
539.04        23.76123
539.47        23.83326
539.91        23.93482
540.35        24.07215
540.79         24.0362
541.22        24.14229
541.66        24.22653
542.10        24.40324
542.54        24.27721
542.97        24.49159
543.41        24.59609
543.85        24.76501
544.29        24.93232
544.72         25.0708
545.16        25.21128
545.60        25.34317
546.04        25.38278
546.47        25.39661
546.91        25.64933
547.35        26.07569
547.79        26.34607
548.22        26.43205
548.66        26.46801
549.10        26.50908
549.53        26.72865
549.97        27.12664
550.41        27.20725
550.84        27.46309
551.28        27.62701
551.72        27.87202
552.15          28.126
552.59        28.38664
553.03        28.67692
553.46        28.95106
553.90        29.06807
554.34        29.18605
554.77        29.18791
555.21         29.1795
555.65        29.23321
556.08        29.36359
556.52        29.54281
556.96        29.73009
557.39        29.90238
557.83        30.03548
558.27        30.07144
558.70        30.04083
559.14        30.05281
559.57         30.1125
560.01        30.20389
560.45        30.30199
560.88        30.32538
561.32        30.32788
561.75        30.41337
562.19        30.67409
562.63        30.77884
563.06        30.76652
563.50        30.81738
563.93        30.93057
564.37        31.09046
564.80        31.15322
565.24         31.2855
565.68        31.42194
566.11        31.54695
566.55        31.67813
566.98        31.76346
567.42        31.79188
567.85        32.13639
568.29        31.99275
568.72        32.32011
569.16         32.7901
569.60        33.10455
570.03        33.22519
570.47        33.32334
570.90        33.25778
571.34        33.68208
571.77        33.52698
572.21        33.73544
572.64        33.96651
573.08         34.0957
573.51        34.27507
573.95        34.90792
574.38        35.05462
574.82        35.23598
575.25        35.36139
575.69        35.26562
576.12        35.35961
576.56        35.33192
576.99        35.33313
577.42        35.40159
577.86        35.61328
578.29        35.43623
578.73        35.93646
579.16        35.63036
579.60        35.23859
580.03        35.10871
580.47        35.05629
580.90        34.75653
581.33        34.70675
581.77        34.99547
582.20        35.27279
582.64        34.89276
583.07        34.35409
583.51        34.42653
583.94        33.99685
584.37        33.89617
584.81        33.52359
585.24        33.45488
585.68        33.56864
586.11        33.44656
586.54        33.41154
586.98        33.21643
587.41        33.01752
587.85         33.0185
588.28        33.17902
588.71        33.08523
589.15        32.74434
589.58         32.5765
590.01         32.5278
590.45         32.7896
590.88        32.71909
591.31        32.95845
591.75        32.25674
592.18        32.45221
592.61        32.51645
593.05        32.76201
593.48        32.59076
593.91         33.5817
594.35        32.91306
594.78        33.24956
595.21        33.58389
595.65         33.9814
596.08        33.76471
596.51           33.73
596.94        33.79777
597.38         33.9407
597.81        34.22342
598.24        34.45224
598.68        35.00532
599.11        35.39972
599.54        36.21801
599.97        36.15483
600.41        36.30576
600.84         37.1079
601.27         37.5054
601.70        37.93088
602.14        38.26059
602.57        38.69719
603.00        39.25937
603.43        39.93824
603.87        40.15431
604.30        40.67392
604.73        41.27187
605.16        41.89465
605.60        42.14223
606.03        42.70345
606.46        43.35418
606.89        44.26149
607.32        44.60567
607.76        44.77316
608.19         45.2934
608.62        45.89646
609.05        46.01809
609.48        46.33541
609.92        46.91978
610.35        47.09304
610.78         48.0256
611.21        48.78327
611.64        48.41111
612.07        49.24586
612.50        49.39696
612.94        49.38382
613.37        50.01377
613.80        50.39725
614.23        50.93081
614.66        51.18114
615.09        51.84128
615.52        52.30533
615.96        52.67015
616.39        53.01495
616.82        53.42603
617.25        53.13705
617.68        53.45401
618.11        54.05994
618.54        54.51332
618.97        54.67321
619.40         54.3595
619.84        54.59345
620.27        54.29342
620.70        54.88869
621.13        55.82471
621.56        56.10609
621.99        55.85586
622.42        55.87097
622.85        56.22891
623.28         56.3493
623.71        56.26237
624.14        56.19027
624.57        56.23068
625.00        56.05898
625.43        56.31621
625.86        55.52144
626.29        55.67035
626.72        55.47104
627.15        55.44187
627.58        55.32814
628.01        54.98147
628.44        55.33367
628.87        54.97862
629.30        54.05737
629.73        53.98074
630.16        53.48149
630.59        53.40526
631.02        52.93086
631.45        52.22521
631.88        51.65502
632.31        51.22089
632.74        50.75831
633.17        50.14682
633.60        49.60075
634.03        49.09239
634.46         48.5949
634.89        48.09102
635.32        47.55313
635.75        46.98179
636.18        46.39759
636.61        45.82565
637.04        45.29801
637.47        44.82006
637.89        44.38117
638.32        43.96497
638.75        43.57145
639.18         43.1991
639.61        42.85894
640.04        42.52698
640.47        42.15932
640.90         41.7554
641.33        41.33213
641.76        40.94885
642.18         40.7072
642.61        40.61959
643.04        40.65377
643.47        40.74866
643.90        40.80138
644.33        40.78304
644.76        40.72913
645.18        40.66618
645.61        40.64069
646.04        40.67378
646.47        40.74784
646.90         40.8892
647.33        41.14167
647.75        41.50931
648.18        41.98053
648.61         42.4929
649.04        42.94821
649.47        43.33118
649.89        43.64096
650.32        43.95885
650.75        44.49826
651.18        45.26542
651.61        46.00168
652.03        46.68134
652.46        47.59356
652.89        48.65349
653.32        49.25028
653.74        49.47101
654.17        50.43401
654.60        50.80132
655.03        52.53015
655.46        52.01108
655.88        53.88128
656.31        55.33727
656.74        60.82669
657.16        59.36164
657.59        56.59187
658.02         57.0412
658.45        57.48985
658.87        58.43696
659.30        59.12785
659.73        60.25602
660.15        61.33397
660.58        61.15726
661.01        60.96951
661.44        60.70869
661.86        61.18095
662.29        62.29588
662.72        63.30075
663.14        63.97047
663.57        64.13904
664.00        63.98849
664.42        64.15591
664.85        64.72585
665.27        65.24192
665.70        65.62223
666.13        65.99583
666.55        66.34856
666.98        66.64378
667.41        66.88441
667.83        67.06657
668.26        67.18732
668.69        67.26489
669.11        67.34967
669.54        67.48502
669.96        67.68192
670.39        68.01745
670.82        68.43897
671.24        68.59944
671.67         68.6162
672.09        68.99067
672.52        69.61286
672.94        69.93237
673.37        69.69386
673.80        69.58013
674.22        69.74302
674.65         69.8128
675.07        69.86715
675.50        70.02895
675.92        70.26902
676.35        70.42651
676.77        70.48256
677.20        70.49065
677.62        70.48499
678.05        70.51238
678.47        70.58266
678.90        70.75668
679.32        70.88335
679.75        71.06655
680.17        71.25145
680.60        71.43657
681.02        71.61332
681.45         71.7495
681.87        71.85349
682.30        71.94061
682.72        72.01891
683.15         72.0364
683.57        72.03562
684.00        72.06683
684.42        72.24045
684.85         72.4138
685.27        72.60496
685.70        72.86856
686.12        73.12991
686.54        73.28738
686.97        73.32423
687.39        73.21184
687.82        73.02529
688.24        73.10224
688.66        73.39391
689.09        73.43188
689.51        73.25358
689.94        73.31935
690.36        73.62575
690.78        73.72749
691.21        73.60892
691.63        73.68816
692.06        74.01125
692.48        73.85215
692.90        73.92094
693.33        74.38071
693.75        74.17438
694.17        74.30415
694.60        74.39109
695.02         74.4175
695.44        74.35722
695.87         74.4155
696.29        74.55519
696.71        74.41016
697.14        74.22359
697.56        74.62475
697.98        75.31475
698.41        76.62075
698.83        75.88144
699.25        75.65829
699.68         75.5463
700.10          75.423
700.52        75.40358
700.94        75.51854
701.37        75.70493
701.79        75.84594
702.21        75.88289
702.64        75.85312
703.06        75.82442
703.48        75.91348
703.90        76.14406
704.33        76.47146
704.75        76.78529
705.17        76.86588
705.59        76.67039
706.01        76.28536
706.44        75.91114
706.86        75.79796
707.28        76.01649
707.70        76.63242
708.12         77.4047
708.55        77.68526
708.97        77.47108
709.39        77.35741
709.81        77.40964
710.23         77.3297
710.66        77.15825
711.08        77.11254
711.50        77.18733
711.92        77.27913
712.34        77.38013
712.76        77.53201
713.19        77.69234
713.61        77.84832
714.03        77.95829
714.45        78.02177
714.87        78.07069
715.29        78.16585
715.71        78.31797
716.13        78.50601
716.56        78.67508
716.98        78.82565
717.40        78.91369
717.82        78.95059
718.24         78.9586
718.66        78.97429
719.08        79.00731
719.50        79.04455
719.92        79.07204
720.34        79.06456
720.76         79.0206
721.19        78.95528
721.61        78.89448
722.03         78.8357
722.45        78.80845
722.87        78.79379
723.29        78.82034
723.71          78.909
724.13        79.05975
724.55        79.30348
724.97        79.58855
725.39        79.73643
725.81        79.76709
726.23         79.9014
726.65        80.14188
727.07        80.31736
727.49        80.42237
727.91        80.55887
728.33        80.70786
728.75        80.77945
729.17        80.76964
729.59        80.71935
730.01        80.64613
730.43          80.591
730.85        80.57507
731.27        80.53531
731.69        80.50912
732.10        80.69077
732.52        81.00865
732.94        81.16072
733.36        81.12921
733.78        81.13466
734.20        81.19171
734.62        81.18091
735.04        81.09888
735.46        81.02958
735.88        80.96951
736.30        80.83416
736.72        80.74257
737.13        80.89809
737.55        81.20831
737.97        81.79399
738.39        82.38049
738.81        81.97292
739.23         80.8799
739.65        80.74654
740.06        81.48496
740.48        81.99326
740.90        82.08431
741.32        81.26611
741.74         80.9031
742.16        80.67429
742.57        81.02459
742.99        81.44786
743.41        81.81799
743.83        82.11901
744.25        82.27557
744.67        82.27905
745.08         82.1731
745.50        82.00793
745.92        81.83404
746.34        81.63538
746.75         81.4477
747.17        81.33106
747.59        81.30787
748.01        81.39098
748.42         81.5485
748.84         81.7227
749.26        81.90581
749.68        81.93723
750.09        81.89674
750.51        82.24631
750.93        82.82199
751.35        82.84528
751.76        82.37521
752.18        81.98999
752.60        82.09344
753.01        81.93805
753.43        81.70768
753.85        81.69928
754.27        81.92206
754.68        82.52144
755.10        83.25672
755.52        83.02614
755.93        82.57919
756.35        82.31332
756.77        82.51775
757.18         82.5397
757.60        82.48738
758.02        82.86593
758.43        83.45031
758.85        83.63741
759.26        84.01083
759.68        82.86578
760.10        82.54221
760.51        82.43829
760.93        83.25759
761.34        82.20592
761.76        82.78072
762.18        82.68888
762.59        81.47697
763.01        81.56154
763.42        82.47108
763.84        83.23769
764.26        83.58034
764.67        83.47027
765.09        83.16389
765.50        83.31788
765.92        83.89418
766.33        84.19445
766.75        84.04099
767.16        83.59428
767.58        82.97909
768.00        82.60461
768.41        82.70674
768.83        82.98645
769.24         83.8885
769.66        84.41809
770.07        84.46323
770.49        84.14864
770.90        83.66353
771.32        83.76063
771.73        84.33681
772.15         84.4585
772.56        84.12012
772.97        83.86166
773.39        83.73022
773.80        83.78372
774.22        83.88811
774.63        83.52413
775.05         82.8736
775.46        82.77962
775.88         83.2862
776.29        84.01462
776.70        84.64282
777.12        84.84152
777.53        84.52255
777.95        83.75058
778.36        82.89493
778.77        82.57495
779.19        82.93542
779.60        83.84867
780.02        84.86407
780.43        85.46887
780.84        85.51599
781.26        84.66544
781.67         83.4694
782.09        84.05516
782.50        85.96936
782.91        86.12971
783.33        84.63487
783.74        84.23219
784.15        84.99805
784.57        85.33454
784.98        85.11505
785.39        84.86639
785.81        84.60223
786.22        84.23138
786.63        83.87427
787.04        83.71222
787.46        83.77835
787.87        84.03214
788.28        84.41678
788.70        84.76448
789.11        85.01094
789.52        85.28835
789.93        85.55044
790.35        85.54449
790.76          85.355
791.17        85.33018
791.58        85.48201
792.00        85.52029
792.41        85.37582
792.82        85.19878
793.23        84.94987
793.65        84.34541
794.06          83.784
794.47        84.01688
794.88        84.72176
795.29        86.24765
795.71        86.20295
796.12         85.2761
796.53        86.10851
796.94        85.53441
797.35        84.76166
797.76        84.64072
798.18         85.1852
798.59        85.51283
799.00        85.53063
799.41        85.81904
799.82        86.27725
800.23        86.47773
800.64        86.37337
801.06        85.94358
801.47        85.57668
801.88        85.38569
802.29         85.4884
802.70        85.77188
803.11        86.08674
803.52        86.18209
803.93        86.01321
804.34        85.70535
804.75        85.33175
805.17        85.10413
805.58        85.12043
805.99        84.94755
806.40        84.74161
806.81        85.58924
807.22        87.05434
807.63        87.29659
808.04        86.24854
808.45        85.80378
808.86        86.18583
809.27        86.99225
809.68        87.96201
810.09        88.47404
810.50        88.37448
810.91        88.09648
811.32        87.79088
811.73        87.40569
812.14        86.99474
812.55        86.74992
812.96        86.61105
813.37        86.08903
813.78        85.36001
814.19         85.3139
814.60        85.83272
815.01        86.02338
815.42        85.82726
815.83        85.70573
816.24        85.74185
816.65        85.85455
817.05         86.0672
817.46        86.34415
817.87         86.6146
818.28         86.7244
818.69          86.661
819.10        86.46754
819.51        86.26997
819.92        86.35656
820.33        86.79457
820.74        87.30227
821.14        87.77846
821.55        88.45506
821.96        89.07843
822.37        88.74708
822.78        87.68015
823.19        87.11442
823.60         87.2033
824.00        87.33871
824.41         87.3519
824.82        87.36524
825.23          87.338
825.64        87.27159
826.04        87.23077
826.45         87.2573
826.86        87.37293
827.27        87.54541
827.68        87.73624
828.08        87.91692
828.49        87.99831
828.90        88.02258
829.31        87.98946
829.72        87.90154
830.12        87.79263
830.53        87.63643
830.94        87.46967
831.35        87.31094
831.75        87.19791
832.16        87.09012
832.57        87.03893
832.97        87.09827
833.38        87.24433
833.79        87.45472
834.20         87.6725
834.60        87.80436
835.01        87.84354
835.42        87.82082
835.82        87.75546
836.23        87.62227
836.64        87.45837
837.04        87.26073
837.45        87.10619
837.86        87.17133
838.26        87.49702
838.67        88.00203
839.08        88.50716
839.48        88.65465
839.89        88.36052
840.29        87.76897
840.70        87.17849
841.11        86.94231
841.51        87.15974
841.92        87.64748
842.33        88.31915
842.73        89.02771
843.14        89.56716
843.54        90.04829
843.95         90.2765
844.35        90.03854
844.76        89.34747
845.17        88.30728
845.57        87.23707
845.98        86.65388
846.38        86.67435
846.79        87.17123
847.19        87.96899
847.60        88.56054
848.00        88.84068
848.41        88.86459
848.81        88.82976
849.22        88.96383
849.62        89.36888
850.03        89.87911
850.43        90.39314
850.84        90.61324
851.24         90.5236
851.65        90.15804
852.05        89.69878
852.46        89.32125
852.86        89.11726
853.27        89.03329
853.67        88.98192
854.07        89.08619
854.48        89.24391
854.88        89.24362
855.29        89.08588
855.69        89.17309
856.10        89.43414
856.50        89.76185
856.90        89.98679
857.31        89.95298
857.71        89.70636
858.12        89.25076
858.52        88.75798
858.92        88.36971
859.33        88.11908
859.73        88.02438
860.13        88.09167
860.54        88.33118
860.94        88.78153
861.34        89.35706
861.75        89.87233
862.15        90.13966
862.55        90.06474
862.96        89.73255
863.36         89.2399
863.76        88.72845
864.17        88.28225
864.57        87.88864
864.97        87.67843
865.38         87.8239
865.78        88.37738
866.18        89.22815
866.58        90.06449
866.99        90.31445
867.39        89.88531
867.79        88.90935
868.19        87.63049
868.60        86.43397
869.00        85.44587
869.40        84.60555
869.80        84.05686
870.21        84.00951
870.61        84.52046
871.01        85.48488
871.41        86.49847
871.81        86.90032
872.22        86.56259
872.62        85.68598
873.02         84.6278
873.42        84.10244
873.82        84.18141
874.22        84.39531
874.63        84.69894
875.03        85.08575
875.43        85.43332
875.83        86.24417
876.23        86.14017
876.63        85.82394
877.03        85.06678
877.44        83.83951
877.84        115.0871
878.24        83.81195
878.64        84.55013
879.04         86.6124
879.44        85.08559
879.84        83.95844
880.24        85.63194
880.64         85.1111
881.04        82.94815
881.44        81.68324
881.84        81.81779
882.24        82.88467
882.65        84.23265
883.05         84.8064
883.45         84.2421
883.85        83.06393
884.25        81.83379
884.65        81.22934
885.05        81.43935
885.45        82.22192
885.85         83.2485
886.25        83.98479
886.65        84.23375
887.05        84.15627
887.45        83.92858
887.85        83.80447
888.25           83.87
888.65        84.04324
889.04        84.24604
889.44        84.27706
889.84        84.13243
890.24        83.87358
890.64        83.63774
891.04        83.62003
891.44        83.82269
891.84        84.13472
892.24        84.37759
892.64        84.25285
893.04        83.72082
893.44        82.97446
893.83        82.09595
894.23        81.23972
894.63        80.46401
895.03        79.72926
895.43        79.26784
895.83        79.46622
896.23        80.34703
896.63         81.7737
897.02        83.28165
897.42        83.99919
897.82        83.72212
898.22        82.70412
898.62        81.38731
899.01        80.46427
899.41        80.18112
899.81        80.31744
900.21        80.73562
900.61        81.22475
901.00        81.68342
901.40        82.16615
901.80        82.63208
902.20        82.97701
902.59        83.18074
902.99        83.22642
903.39         83.1201
903.79        82.89559
904.18        82.58382
904.58        82.23867
904.98        81.98199
905.38        82.00425
905.77        82.32095
906.17        82.88827
906.57        83.51114
906.96         83.9071
907.36        83.95736
907.76        83.71453
908.15        83.35429
908.55        83.11481
908.95         83.0799
909.34        83.22074
909.74         83.3071
910.14         82.9631
910.53        82.13498
910.93        81.03541
911.33        80.09043
911.72         79.9642
912.12        80.73819
912.52        82.10735
912.91        83.60056
913.31        84.42055
913.70         84.4163
914.10        83.78995
914.49        82.75969
914.89        81.82954
915.29        81.25173
915.68        80.90692
916.08        80.83965
916.47        81.06537
916.87        81.51244
917.26        82.15363
917.66        82.81696
918.05        83.24741
918.45         83.3389
918.84        83.20383
919.24        82.80196
919.64        82.10497
920.03        81.19479
920.42        80.12952
920.82        79.31363
921.21        79.30879
921.61        80.13614
922.00        81.65051
922.40        83.25601
922.79        84.19847
923.19        84.20873
923.58        83.39073
923.98        82.04151
924.37        81.09233
924.77        80.98782
925.16        79.49139
925.55        80.27084
925.95        80.21783
926.34        80.41821
926.74        80.76376
927.13        81.31777
927.52        82.02663
927.92        82.82033
928.31        83.74529
928.70        84.53307
929.10        84.75655
929.49        84.34708
929.89        83.41618
930.28        82.43572
930.67        82.16218
931.07        82.73333
931.46        83.96571
931.85        85.34546
932.24        86.10394
932.64        86.02579
933.03        85.26118
933.42        84.14183
933.82        83.38239
934.21        83.19957
934.60        83.40499
934.99        83.52376
935.39        83.02961
935.78        81.84609
936.17        79.84305
936.56        77.35159
936.96         77.5452
937.35        77.32478
937.74         79.0349
938.13        80.90211
938.53        82.21523
938.92         82.8782
939.31        83.12739
939.70        83.10729
940.09        82.99512
940.49        82.90439
940.88        82.79008
941.27        82.71735
941.66        82.83553
942.05        83.15378
942.44         83.6283
942.84        84.20279
943.23        84.78777
943.62         85.3051
944.01        85.80955
944.40        86.13213
944.79        86.01946
945.18        85.43916
945.57        84.39477
945.97         83.3366
946.36        83.06506
946.75        83.78403
947.14        85.22361
947.53        86.64348
947.92        87.01584
948.31        86.19229
948.70        84.49345
949.09        82.56973
949.48        81.56329
949.87        81.80882
950.26         82.9558
950.65        84.42117
951.04        85.23028
951.43        85.07693
951.82        84.26422
952.21        83.17045
952.60         82.3896
952.99        82.11007
953.38        82.12669
953.77        82.24795
954.16        82.20318
954.55        81.91118
954.94        81.49073
955.33        81.07939
955.72        80.85419
956.11        80.89288
956.50          81.183
956.89         81.5851
957.28        81.85369
957.66        81.91355
958.05         81.7247
958.44         81.5927
958.83        81.94788
959.22        82.82278
959.61        84.11573
960.00        85.25187
960.39        85.20807
960.78        83.78409
961.16        81.31866
961.55        78.78038
961.94        77.50179
962.33        77.78761
962.72          79.283
963.11        81.20847
963.49        82.21243
963.88        81.79585
964.27         80.4031
964.66        78.73737
965.04        77.95026
965.43         78.3476
965.82        79.56593
966.21        81.03333
966.60        81.85085
966.98        81.78485
967.37        81.10774
967.76         80.3199
968.15        80.18085
968.53        80.87203
968.92        82.01387
969.31        83.17522
969.69        83.66161
970.08        83.23405
970.47        82.22478
970.86        80.88764
971.24        79.58083
971.63        78.54875
972.02         77.7182
972.40        77.26579
972.79        77.49519
973.17        78.44375
973.56        79.88963
973.95         81.5356
974.33        82.81664
974.72        83.37312
975.11        83.33432
975.49         82.6873
975.88        81.44124
976.26        79.75882
976.65        77.78429
977.04        75.87604
977.42        74.65781
977.81         74.3336
978.19        74.72878
978.58        75.79259
978.96         77.4241
979.35        79.35477
979.74        81.65669
980.12        83.67467
980.51         84.0208
980.89         82.6296
981.28        79.92584
981.66        77.14349
982.05         76.0368
982.43        76.84988
982.82        79.06849
983.20        81.86967
983.59        83.40291
983.97         83.1663
984.35        81.57932
984.74         79.4619
985.12        78.00897
985.51        77.57831
985.89        77.86321
986.28        78.38716
986.66        78.42417
987.04        77.68626
987.43        76.64225
987.81        75.65706
988.20        75.15424
988.58         75.1716
988.96        75.54829
989.35        76.15255
989.73        76.75916
990.12         77.0463
990.50        77.20309
990.88        77.12408
991.27        76.68388
991.65        76.00963
992.03        75.12513
992.42        74.41285
992.80        74.65071
993.18        75.99097
993.56        78.00796
993.95        80.12445
994.33        81.89878
994.71        83.01662
995.10        83.58376
995.48        83.60722
995.86        83.03679
996.24         81.9474
996.63        80.38818
997.01        78.48374
997.39        76.71331
997.77        75.50407
998.15        74.80959
998.54        74.87959
998.92        75.94595
999.30        78.08261
999.68        81.62668
1000.06        85.60822
1000.45        86.50523
1000.83        83.17593
1001.21        77.37957
1001.59        72.07928
1001.97         69.5952
1002.35        69.77185
1002.73        71.87462
1003.12        75.10603
1003.50        77.63135
1003.88        78.22393
1004.26        77.46252
1004.64        75.81459
1005.02        73.92886
1005.40        72.10178
1005.78        70.02316
1006.16        68.17862
1006.54        67.74349
1006.92        68.83884
1007.30        70.88273
1007.69         73.0222
1008.07        74.53305
1008.45        75.36263
1008.83         75.8587
1009.21        75.84914
1009.59        74.96102
1009.97        73.04648
1010.35          69.951
1010.73        67.39647
1011.11        67.47417
1011.49        70.00779
1011.86        74.45452
1012.24        78.02099
1012.62        77.86777
1013.00         73.9715
1013.38          67.473
1013.76        60.52541
1014.14        57.03153
1014.52        58.10173
1014.90        62.52122
1015.28        68.24682
1015.66        71.86239
1016.04        72.15428
1016.41        69.95546
1016.79        65.88341
1017.17         62.1877
1017.55        60.31572
1017.93        59.58836
1018.31        59.74313
1018.69        60.58646
1019.06        61.92477
1019.44        63.79259
1019.82        65.86368
1020.20        66.94733
1020.58        66.45283
1020.95        64.54917
1021.33        61.61953
1021.71        57.60903
1022.09        51.77245
1022.46        41.45161
1022.84        25.81126
1023.22         18.4486
1023.60        29.30102
1023.97        43.90009
1024.35        52.86527
1024.73        56.51117
