SpectraSmart Spectrum 2.9.0.0
--------- Device Information -----------
Spectrum Name :  反射率_0
Saving Time :  2024/04/20 00:03:34
Spectro-Module Model Name : SE2030-DUVN
Spectro-Module Serial Number : OS361AC55029948
Wavelength Start : 200
Wavelength End : 1025
Wavelength Unit : Wavelength(nm)
Spectrum Unit : Reflectance(%)
-----------Spectrum Setting ------------
Integration Time : 30ms
Average : 10
Boxcar : 0
Background removal :  enabled
linearity correction :  enabled
SC :  disabled
Intensity correction :  disabled
DWT denoise :  enabled
savitzky-golay :  disabled
FFT :  disabled
Running average :  disabled
Kalman :  disabled
High pass :  disabled
---------------BEGIN--------------------
Wavelength(nm)             Reflectance(%)
200.29               0
200.75        56.83608
201.21        59.75337
201.67        65.57453
202.13        72.59621
202.58        79.50911
203.04        86.66751
203.50        91.97028
203.96        91.09534
204.42        85.05856
204.88        77.22229
205.34        70.54894
205.80        66.17749
206.26        63.19365
206.72        60.49279
207.18        57.98339
207.64        56.73148
208.10        57.95245
208.55        61.87137
209.01        65.11603
209.47        65.46923
209.93        63.34282
210.39         59.6086
210.85        56.20881
211.31        55.42184
211.77        57.58199
212.23        62.63214
212.69        69.22972
213.14        71.69621
213.60        67.70963
214.06        61.59679
214.52        56.94041
214.98          55.683
215.44        57.33429
215.90        60.84328
216.36         65.7491
216.81         70.3953
217.27        73.27732
217.73        74.84859
218.19        74.58091
218.65        71.70294
219.11        66.22227
219.57        57.88344
220.02        48.14384
220.48        41.85878
220.94         40.8429
221.40        44.74817
221.86        50.89154
222.32         54.7092
222.77        55.00201
223.23        53.13401
223.69        51.28389
224.15        52.48088
224.61        56.38066
225.06        61.02277
225.52        64.67799
225.98        66.05214
226.44        65.25019
226.90        62.99091
227.36        60.04458
227.81        57.72468
228.27        56.85962
228.73        56.91973
229.19        57.47128
229.65        57.97573
230.10        58.24911
230.56        58.51545
231.02        58.81342
231.48        59.21578
231.93        59.66331
232.39        60.09739
232.85        60.36189
233.31        60.28579
233.77        59.84941
234.22        59.13923
234.68        58.29466
235.14        57.46841
235.60          56.797
236.05        56.31499
236.51        56.11978
236.97        56.33095
237.43        57.03121
237.88        58.46751
238.34        60.51269
238.80        62.87371
239.26        64.96381
239.71        66.46922
240.17        67.18855
240.63        67.69384
241.08        68.27583
241.54        68.74181
242.00        68.75171
242.46         67.5131
242.91        64.54636
243.37        59.12045
243.83        51.71583
244.28        47.27635
244.74        50.55655
245.20        60.67143
245.66        70.41306
246.11        73.51901
246.57        69.24377
247.03        57.76125
247.48        41.59776
247.94        36.11211
248.40        43.98483
248.85        54.67851
249.31         62.6324
249.77        66.58253
250.22        67.64999
250.68        67.07919
251.14        65.75098
251.59        65.29464
252.05        66.71297
252.51         69.6738
252.96        72.60404
253.42        73.07451
253.88        70.91467
254.33        67.47115
254.79        65.53605
255.25        67.52803
255.70        72.86277
256.16        79.69925
256.62         85.9058
257.07          89.176
257.53        89.55161
257.99        87.94469
258.44        84.79935
258.90        81.64563
259.35        78.75142
259.81         76.7695
260.27        75.24002
260.72         73.7673
261.18        72.55209
261.63        71.13103
262.09        70.24479
262.55        70.29349
263.00        71.01878
263.46        72.27657
263.91         72.9666
264.37        72.21471
264.83        70.05103
265.28         66.9008
265.74        63.98667
266.19        62.46803
266.65        62.56579
267.11        63.63421
267.56         64.8318
268.02        64.99383
268.47        63.87345
268.93        61.88733
269.38        59.51706
269.84        57.77439
270.30        56.93388
270.75        56.69445
271.21         56.6632
271.66        56.23181
272.12        55.24881
272.57        53.91378
273.03        52.54313
273.48        51.50687
273.94        50.94774
274.39        50.65911
274.85        50.42885
275.31        49.89485
275.76        48.96563
276.22        47.81345
276.67        46.61073
277.13        45.74936
277.58        45.22645
278.04        44.95984
278.49        44.67621
278.95        44.10325
279.40         43.1457
279.86        42.01389
280.31        40.83553
280.77         39.9608
281.22        39.37242
281.68        39.00965
282.13        38.70795
282.59        38.29542
283.04        37.72238
283.50        37.10981
283.95        36.51649
284.41         36.0821
284.86        35.80283
285.32        35.65348
285.77        35.59211
286.22        35.63681
286.68        35.76459
287.13        35.93403
287.59        36.08124
288.04        36.06728
288.50         35.9001
288.95        35.57342
289.41        35.21127
289.86        34.92421
290.32        34.79176
290.77        34.76738
291.22        34.80481
291.68        34.79384
292.13        34.72411
292.59        34.67708
293.04        34.74186
293.50        35.07448
293.95        35.69228
294.40        36.53025
294.86        37.51289
295.31        38.53262
295.77        39.54292
296.22        40.55832
296.68        41.55405
297.13        42.47316
297.58        43.31233
298.04        44.08207
298.49        44.82734
298.95        45.67702
299.40        46.63893
299.85        47.68225
300.31          48.755
300.76        49.75203
301.21        50.65034
301.67        51.51233
302.12        52.31885
302.58        53.13364
303.03        53.93701
303.48        54.73546
303.94        55.58032
304.39         56.4943
304.84        57.48303
305.30        58.52008
305.75        59.49245
306.20        60.27129
306.66        60.85316
307.11        61.24784
307.57        61.55741
308.02        61.83455
308.47        62.13563
308.93        62.43762
309.38         62.7278
309.83        63.06074
310.29        63.43298
310.74        63.83613
311.19        64.17039
311.65        64.26543
312.10        64.09134
312.55        63.70478
313.00        63.29113
313.46        63.13807
313.91        63.27973
314.36        63.64108
314.82        64.01905
315.27        64.11266
315.72         63.8327
316.18         63.3052
316.63        62.67734
317.08        62.19737
317.53        61.93333
317.99        61.79921
318.44        61.72843
318.89         61.5994
319.35        61.36517
319.80        61.06453
320.25        60.72317
320.70        60.37842
321.16        60.03514
321.61         59.6914
322.06        59.30449
322.51        58.82032
322.97        58.23047
323.42        57.57388
323.87        56.93372
324.32        56.45101
324.78         56.1434
325.23        55.98965
325.68        55.86775
326.13        55.58244
326.59        55.07952
327.04        54.44629
327.49        53.77841
327.94        53.24557
328.39        52.89382
328.85        52.64025
329.30        52.48507
329.75        52.34074
330.20        52.16981
330.66        51.97958
331.11        51.76664
331.56        51.44673
332.01        51.01047
332.46         50.4684
332.92        49.88264
333.37        49.40856
333.82        49.08441
334.27        48.89406
334.72        48.77821
335.17        48.62614
335.63        48.38885
336.08        48.11466
336.53        47.85329
336.98        47.71135
337.43        47.70473
337.88        47.79248
338.34        47.84367
338.79        47.70178
339.24        47.31345
339.69        46.73127
340.14        46.11565
340.59        45.73735
341.05        45.65495
341.50        45.79533
341.95         45.9949
342.40        45.99527
342.85        45.73762
343.30        45.31833
343.75        44.84697
344.20        44.50238
344.66        44.33485
345.11        44.25229
345.56        44.23635
346.01        44.25873
346.46        44.28391
346.91        44.33406
347.36        44.30091
347.81        44.00706
348.26        43.44981
348.72        42.71286
349.17        41.97359
349.62        41.60217
350.07        41.68174
350.52        42.08449
350.97        42.61495
351.42        42.97691
351.87        43.07464
352.32        42.98276
352.77        42.74631
353.22        42.44227
353.67        42.11702
354.13        41.76766
354.58        41.39735
355.03        41.06544
355.48        40.79403
355.93        40.59023
356.38        40.46549
356.83        40.42223
357.28         40.4412
357.73        40.49881
358.18        40.54012
358.63        40.48161
359.08         40.2989
359.53        40.01568
359.98        39.65561
360.43        39.25666
360.88         38.8435
361.33        38.41745
361.78         38.0185
362.23        37.71048
362.68        37.50679
363.13        37.39061
363.58        37.31298
364.03          37.192
364.48         36.9964
364.93        36.73428
365.38        36.42163
365.83        36.09663
366.28        35.77602
366.73        35.45273
367.18        35.11763
367.63        34.75596
368.08        34.37346
368.53        33.99118
368.98        33.63776
369.43        33.34505
369.88        33.12083
370.33        32.95893
370.78        32.83437
371.23        32.70882
371.68        32.56673
372.13        32.40148
372.58        32.24488
373.03        32.15524
373.48        32.13216
373.93        32.14878
374.38        32.11964
374.83        31.91528
375.28        31.51981
375.72        30.97565
376.17        30.41302
376.62        30.00169
377.07        29.79645
377.52        29.74736
377.97        29.78856
378.42        29.81381
378.87        29.78103
379.32        29.71368
379.77        29.62227
380.22        29.51967
380.67        29.41063
381.11        29.29081
381.56        29.13466
382.01        28.93254
382.46        28.68995
382.91        28.41389
383.36        28.16138
383.81        28.01073
384.26         27.9725
384.71        28.03366
385.15        28.09506
385.60         28.0139
386.05        27.76477
386.50        27.39022
386.95        27.02763
387.40         26.8954
387.85         27.0259
388.29        27.32891
388.74         27.6475
389.19        27.73792
389.64        27.55303
390.09        27.16173
390.54        26.70796
390.98        26.41392
391.43        26.35771
391.88         26.4546
392.33        26.56915
392.78        26.50678
393.23        26.24599
393.67        25.85313
394.12        25.49381
394.57        25.30697
395.02        25.31981
395.47        25.47442
395.91        25.68426
396.36        25.77101
396.81        25.69647
397.26        25.51394
397.71        25.30893
398.15        25.18924
398.60        25.20855
399.05        25.30642
399.50        25.41973
399.95        25.46252
400.39         25.4132
400.84        25.29574
401.29        25.15757
401.74        25.08489
402.18        25.10688
402.63        25.18762
403.08        25.26295
403.53        25.22516
403.97        25.05574
404.42        24.80581
404.87        24.56013
405.32        24.45841
405.76        24.52715
406.21         24.7162
406.66        24.94128
407.11        25.06967
407.55        25.06817
408.00        24.98431
408.45        24.85815
408.90        24.69718
409.34        24.55411
409.79        24.54051
410.24        24.61646
410.68        24.61585
411.13        24.53328
411.58        24.46503
412.03        24.42499
412.47        24.40074
412.92        24.39292
413.37        24.39748
413.81        24.43181
414.26        24.54107
414.71         24.7167
415.15        24.94911
415.60        25.14941
416.05        25.20601
416.49        25.09176
416.94        24.84468
417.39        24.55155
417.83        24.35313
418.28        24.29641
418.73        24.33823
419.17        24.42114
419.62          24.445
420.07        24.38862
420.51        24.28856
420.96        24.18947
421.41        24.13185
421.85         24.1216
422.30        24.15546
422.74         24.2159
423.19        24.31977
423.64        24.45116
424.08        24.61459
424.53         24.7629
424.98        24.85068
425.42        24.86824
425.87        24.83107
426.31        24.75132
426.76        24.65848
427.21        24.55413
427.65        24.42345
428.10        24.32186
428.54        24.30898
428.99         24.3997
429.44         24.6819
429.88        24.98942
430.33        24.90128
430.77        24.49113
431.22        24.26399
431.66        24.29765
432.11        24.42789
432.56        24.62134
433.00        24.99407
433.45        25.30302
433.89        25.16475
434.34        24.74667
434.78        24.40912
435.23        23.99852
435.67        25.16131
436.12        24.45679
436.57        24.45402
437.01        24.23677
437.46        24.21127
437.90        24.39142
438.35        24.58829
438.79        24.72659
439.24        24.78851
439.68        24.75824
440.13        24.44545
440.57        24.03637
441.02        24.21677
441.46        24.77319
441.91        24.92319
442.35        24.05255
442.80        23.79145
443.24        23.89661
443.69        23.85485
444.13        23.65853
444.58        23.56026
445.02        23.58107
445.47        23.70869
445.91        23.88106
446.36        23.94262
446.80        23.86258
447.24        23.72042
447.69        23.57091
448.13        23.44944
448.58        23.38433
449.02        23.35659
449.47        23.35247
449.91        23.34112
450.36        23.31937
450.80        23.29481
451.25         23.2787
451.69        23.26276
452.13        23.25442
452.58        23.24659
453.02        23.24517
453.47        23.26763
453.91        23.31461
454.36        23.37837
454.80        23.43627
455.24        23.44659
455.69         23.4098
456.13        23.31614
456.58        23.21509
457.02        23.16842
457.46        23.18322
457.91        23.18567
458.35         23.1604
458.79         23.1485
459.24        23.13916
459.68        23.13229
460.13        23.17712
460.57        23.13133
461.01        22.97093
461.46        23.33643
461.90        23.34064
462.34        23.04994
462.79        23.24104
463.23         23.1227
463.68        23.04407
464.12        22.96513
464.56        23.06965
465.01        23.20055
465.45         23.3135
465.89        23.35609
466.34        23.32363
466.78          23.191
467.22        23.03094
467.67          23.037
468.11        23.19899
468.55        23.26641
468.99        23.22344
469.44        23.23936
469.88         23.3116
470.32        23.33191
470.77        23.29963
471.21        23.27527
471.65        23.26661
472.10        23.25404
472.54        23.24554
472.98        23.29956
473.42         23.4141
473.87        23.50572
474.31        23.55683
474.75        23.68744
475.20        23.84442
475.64        23.77554
476.08         23.5603
476.52        23.53067
476.97        23.70674
477.41        23.93479
477.85        24.13669
478.29        24.25533
478.74        24.26877
479.18        24.15616
479.62         24.0173
480.06        24.01278
480.50        24.14451
480.95        24.25913
481.39        24.31389
481.83        24.35764
482.27        24.38079
482.72        24.36166
483.16        24.34122
483.60         24.3725
484.04        24.46172
484.48        24.71649
484.93         25.1113
485.37        25.20045
485.81        25.12041
486.25        25.70493
486.69        26.71891
487.14        26.40376
487.58        25.90049
488.02        26.59357
488.46        26.13782
488.90        26.31901
489.34        26.28654
489.79        26.48811
490.23         26.8303
490.67        26.99328
491.11        26.99924
491.55        27.02987
491.99        27.10811
492.43        27.15964
492.88        27.19818
493.32        27.25871
493.76        27.37487
494.20        27.57942
494.64        27.87497
495.08        28.26447
495.52        28.67478
495.96        28.95717
496.41        29.11625
496.85        29.24364
497.29        29.37479
497.73        29.60165
498.17        29.89075
498.61        29.99097
499.05        29.94397
499.49        30.08405
499.93        30.43497
500.37        30.74951
500.82         30.9969
501.26        31.35026
501.70        31.73555
502.14        31.80798
502.58        31.63724
503.02        31.63919
503.46        31.85043
503.90        32.05867
504.34        32.21027
504.78        32.30926
505.22        32.34053
505.66        32.31603
506.10         32.2757
506.54        32.27776
506.98        32.34282
507.42        32.45929
507.86         32.6094
508.30        32.76265
508.74        32.90425
509.18        33.03551
509.62        33.16556
510.06        33.30808
510.50         33.4636
510.94        33.62846
511.38        33.76578
511.82         33.8192
512.26        33.78316
512.70        33.67664
513.14        33.57212
513.58          33.578
514.02        33.70904
514.46         33.9371
514.90        34.18301
515.34        34.24397
515.78        34.15522
516.22        33.99234
516.66        33.85712
517.10        33.60246
517.54        33.25733
517.98        33.74772
518.42         33.6598
518.86        33.87959
519.30        33.96773
519.74        34.06811
520.18        34.14649
520.62         34.1287
521.06        34.02475
521.50        33.84172
521.93        33.63472
522.37        33.50324
522.81        33.47153
523.25        33.51611
523.69        33.59101
524.13        33.62216
524.57        33.58702
525.01         33.5027
525.45        33.40125
525.89        33.33323
526.32        33.30867
526.76        33.31293
527.20        33.30305
527.64        33.21721
528.08         33.0466
528.52        32.81459
528.96        32.58224
529.40        32.43994
529.83        32.40244
530.27        32.44651
530.71         32.5032
531.15        32.46661
531.59        32.31675
532.03        32.09418
532.46        31.85681
532.90        31.71676
533.34        31.69041
533.78        31.73545
534.22        31.81349
534.66        31.86722
535.09        31.87017
535.53        31.85274
535.97        31.80396
536.41        31.70071
536.85        31.55091
537.28        31.37979
537.72        31.24452
538.16        31.14246
538.60        31.24004
539.04        31.37596
539.47        31.53444
539.91        31.70421
540.35        31.88534
540.79        31.81561
541.22        31.92295
541.66        32.00682
542.10        32.22377
542.54         32.0438
542.97        32.32143
543.41        32.47097
543.85        32.72089
544.29        32.98211
544.72         33.1986
545.16        33.37897
545.60        33.50679
546.04        33.48612
546.47        33.43223
546.91        33.73713
547.35        34.32951
547.79        34.75237
548.22         34.9436
548.66        35.08013
549.10        35.20063
549.53        35.45363
549.97        35.86396
550.41        35.90746
550.84        36.25187
551.28        36.47303
551.72        36.78046
552.15        37.09096
552.59        37.40115
553.03         37.7179
553.46        37.98646
553.90         38.1666
554.34        38.24941
554.77        38.25127
555.21        38.23985
555.65        38.30709
556.08        38.46793
556.52        38.69025
556.96        38.92444
557.39         39.1381
557.83        39.30325
558.27        39.34702
558.70        39.30772
559.14        39.33493
559.57        39.43584
560.01        39.56036
560.45        39.68181
560.88        39.76456
561.32        39.84538
561.75        39.92263
562.19        40.14194
562.63        40.22132
563.06        40.22475
563.50        40.31577
563.93        40.47849
564.37        40.69211
564.80        40.76307
565.24          40.918
565.68        41.07044
566.11        41.19991
566.55        41.33356
566.98        41.39009
567.42         41.3677
567.85        41.82191
568.29        41.66413
568.72        42.08448
569.16        42.65697
569.60        43.04869
570.03        43.18794
570.47        43.33214
570.90         43.2992
571.34        43.74487
571.77         43.3033
572.21        43.96075
572.64        44.06602
573.08        44.39162
573.51         44.4949
573.95        44.90059
574.38        45.52216
574.82        45.70653
575.25        45.95561
575.69        45.72841
576.12        45.71029
576.56        45.56155
576.99        45.46108
577.42        45.93011
577.86        45.94239
578.29        45.90348
578.73        46.56361
579.16        46.10779
579.60        46.05222
580.03        45.32088
580.47        45.43377
580.90        45.21436
581.33        45.08456
581.77         45.0505
582.20        45.75071
582.64         45.4024
583.07        44.95332
583.51        44.80254
583.94        43.84301
584.37        43.76206
584.81        43.36541
585.24        43.52406
585.68        43.77852
586.11        43.70985
586.54        43.60993
586.98         43.1526
587.41        43.21946
587.85        43.15337
588.28         43.1624
588.71        43.01823
589.15        42.71938
589.58        42.57146
590.01        42.35704
590.45        42.60671
590.88         42.7469
591.31        42.67491
591.75         42.0926
592.18        42.24706
592.61        42.15085
593.05        42.74638
593.48        42.25953
593.91        43.61369
594.35          43.276
594.78        43.39742
595.21        43.63351
595.65         43.7975
596.08        43.73886
596.51        43.82952
596.94        44.04191
597.38        44.06924
597.81        43.99896
598.24        44.39485
598.68        45.30256
599.11        45.38317
599.54        46.54074
599.97        46.48515
600.41        46.75896
600.84        46.92424
601.27        47.86138
601.70        48.22549
602.14        48.62999
602.57         49.0537
603.00        49.66129
603.43        50.04502
603.87        50.24832
604.30        50.89998
604.73        51.94847
605.16        51.86784
605.60        52.24332
606.03        52.64645
606.46        53.37541
606.89        54.13036
607.32        54.59412
607.76        54.59065
608.19        54.98656
608.62         55.9629
609.05        55.80416
609.48        56.04535
609.92        56.50606
610.35        56.30609
610.78        57.28696
611.21        58.44427
611.64         57.8818
612.07        58.06219
612.50        58.48531
612.94        58.49858
613.37        59.00733
613.80        59.34896
614.23        59.73243
614.66         60.2942
615.09        60.44926
615.52        60.87062
615.96        61.25585
616.39        61.58258
616.82        61.95011
617.25        61.26649
617.68        61.86463
618.11        62.12547
618.54        62.57833
618.97        62.57839
619.40        62.17977
619.84        62.11659
620.27        61.79336
620.70        62.32039
621.13        63.24361
621.56        63.62078
621.99        63.40647
622.42         63.2808
622.85        63.48317
623.28        63.68901
623.71        63.85339
624.14         63.9534
624.57        63.65016
625.00        63.21017
625.43        63.69852
625.86        62.95519
626.29        63.04661
626.72        62.89698
627.15         62.8769
627.58        62.88426
628.01        62.75644
628.44        62.93439
628.87        62.54336
629.30        61.94703
629.73         61.7264
630.16         61.1628
630.59        60.96266
631.02         60.6926
631.45        60.45891
631.88        60.17588
632.31        59.81434
632.74        59.39237
633.17        58.91679
633.60        58.41653
634.03        57.90478
634.46        57.37704
634.89        56.84175
635.32         56.3126
635.75          55.801
636.18         55.3191
636.61        54.86832
637.04         54.4422
637.47        54.03466
637.89        53.64405
638.32        53.26715
638.75        52.93434
639.18        52.64769
639.61        52.40273
640.04         52.1525
640.47        51.82062
640.90        51.39908
641.33        50.91713
641.76         50.4538
642.18         50.1421
642.61        50.00554
643.04        50.00906
643.47        50.08448
643.90        50.11625
644.33        50.07177
644.76        49.99049
645.18        49.91228
645.61        49.89966
646.04        49.97944
646.47        50.13044
646.90         50.3483
647.33        50.64313
647.75        51.00575
648.18        51.38535
648.61        51.77461
649.04        52.23466
649.47        52.71857
649.89        53.06953
650.32         53.3239
650.75        53.66518
651.18        54.17313
651.61        54.78965
652.03        55.50378
652.46        56.47837
652.89        57.57171
653.32        58.03748
653.74        57.96444
654.17        58.62038
654.60        59.01141
655.03        59.96218
655.46        59.74323
655.88        61.51835
656.31        62.87139
656.74        69.99371
657.16        68.89044
657.59        65.48741
658.02        65.08228
658.45        64.52548
658.87        65.01598
659.30        65.68551
659.73        66.03729
660.15        67.57964
660.58        66.66589
661.01        66.44805
661.44        66.19016
661.86        66.45619
662.29        67.19082
662.72         68.0582
663.14        68.81665
663.57        68.82896
664.00        68.29991
664.42        68.21944
664.85        68.67731
665.27        69.02341
665.70        69.19439
666.13        69.43964
666.55        69.74834
666.98        70.03934
667.41        70.28156
667.83        70.42179
668.26        70.44269
668.69        70.37914
669.11        70.30133
669.54        70.30167
669.96        70.41107
670.39        70.64698
670.82         70.9631
671.24          71.166
671.67        71.27913
672.09        71.54413
672.52        71.91296
672.94        72.15689
673.37        72.22626
673.80        72.06275
674.22        71.79231
674.65        71.72318
675.07        71.91561
675.50        72.20536
675.92        72.48537
676.35        72.60016
676.77        72.51518
677.20        72.29199
677.62        72.05055
678.05        71.94106
678.47        71.99678
678.90        72.25859
679.32        72.67923
679.75        72.70994
680.17        73.05651
680.60         73.1569
681.02        73.25587
681.45        73.29015
681.87         73.3049
682.30        73.42943
682.72        73.61688
683.15        73.57767
683.57        73.37446
684.00        73.32403
684.42        73.54289
684.85        73.71186
685.27        73.85041
685.70        74.12039
686.12        74.42671
686.54        74.60728
686.97        74.64918
687.39          74.467
687.82        74.16499
688.24        74.32113
688.66        74.87205
689.09        74.71146
689.51        74.62064
689.94         74.5462
690.36        74.74833
690.78        74.85874
691.21        74.84554
691.63        74.91483
692.06        75.07336
692.48        74.97072
692.90        74.87182
693.33        75.31767
693.75        75.08424
694.17        75.34091
694.60        75.60633
695.02        75.37232
695.44        74.74633
695.87        74.75687
696.29        75.34435
696.71        75.23205
697.14         74.6294
697.56        75.00536
697.98        76.13318
698.41        76.69336
698.83         76.4327
699.25        75.94354
699.68        75.69003
700.10        75.58803
700.52         75.5118
700.94         75.6796
701.37        75.89854
701.79        76.07716
702.21        76.13921
702.64        76.12321
703.06        76.09275
703.48        76.15403
703.90        76.33242
704.33        76.58039
704.75        76.80939
705.17        76.85509
705.59        76.66142
706.01        76.32404
706.44        76.00533
706.86        75.92715
707.28        76.15099
707.70        76.69084
708.12        77.34042
708.55        77.64729
708.97        77.55398
709.39        77.32407
709.81        77.06902
710.23        76.86367
710.66        76.77929
711.08        76.82938
711.50        76.96655
711.92        77.10782
712.34        77.22804
712.76        77.36002
713.19         77.4751
713.61        77.58813
714.03        77.66826
714.45        77.70176
714.87        77.71002
715.29        77.75805
715.71        77.86057
716.13        77.91544
716.56        78.04272
716.98        78.13027
717.40        78.18977
717.82        78.22738
718.24        78.26408
718.66        78.30426
719.08        78.39043
719.50        78.47742
719.92        78.55037
720.34        78.56422
720.76         78.5136
721.19        78.41515
721.61        78.30978
722.03        78.22355
722.45        78.19336
722.87        78.19505
723.29        78.24342
723.71        78.32983
724.13        78.44928
724.55        78.64774
724.97        78.89657
725.39        78.99153
725.81        79.10545
726.23        79.21122
726.65         79.3782
727.07        79.54294
727.49        79.70393
727.91         79.9062
728.33        80.08173
728.75        80.09098
729.17        79.92517
729.59        79.64274
730.01         79.3322
730.43        79.20253
730.85        79.31041
731.27          79.438
731.69        79.51868
732.10        80.11272
732.52        80.29616
732.94        80.38136
733.36        80.14655
733.78        80.04584
734.20        80.14854
734.62        80.08183
735.04        79.78671
735.46        80.16006
735.88        79.93856
736.30        79.65827
736.72        79.75166
737.13        79.90553
737.55        80.21356
737.97          80.659
738.39        81.05674
738.81        80.68588
739.23         79.8223
739.65        79.79346
740.06        80.45799
740.48        80.85389
740.90        80.92582
741.32        79.91806
741.74        80.19229
742.16        80.03448
742.57        80.17172
742.99        80.36817
743.41        80.55655
743.83        80.71759
744.25        80.80848
744.67        80.54333
745.08        80.51045
745.50        80.32063
745.92        80.18066
746.34        80.04257
746.75        79.92356
747.17        79.86302
747.59        79.86943
748.01         79.8831
748.42        80.06387
748.84        80.10078
749.26        80.09686
749.68        80.07803
750.09        80.11398
750.51        80.50496
750.93        81.04906
751.35        81.04751
751.76        80.59836
752.18        80.30783
752.60        80.27281
753.01        80.72179
753.43        80.34907
753.85        80.41087
754.27        80.49846
754.68        80.76748
755.10          81.176
755.52        80.80944
755.93        81.05518
756.35        80.86411
756.77        80.73534
757.18        80.72455
757.60        80.92719
758.02        81.21597
758.43        81.41814
758.85        81.57329
759.26        82.22635
759.68        80.87179
760.10         81.1927
760.51        80.91796
760.93        81.24475
761.34        80.12156
761.76        80.88701
762.18        80.53457
762.59        80.17297
763.01        80.13626
763.42        80.59578
763.84        81.09166
764.26        81.49735
764.67        81.40384
765.09        81.04006
765.50        81.36309
765.92        82.22961
766.33        82.43011
766.75        81.85648
767.16        81.40937
767.58        81.16509
768.00        80.67638
768.41        80.20025
768.83        80.49876
769.24        81.41859
769.66        82.14784
770.07        82.46032
770.49        82.35294
770.90        82.00311
771.32        82.07571
771.73        82.52037
772.15        82.58456
772.56        82.26923
772.97        81.96657
773.39        81.73721
773.80        81.74782
774.22        81.87677
774.63        81.58421
775.05         80.9995
775.46        80.87749
775.88        81.24841
776.29        81.75904
776.70        82.17868
777.12         82.3295
777.53        82.15472
777.95        81.67062
778.36         81.1226
778.77        80.93666
779.19        81.21272
779.60         81.8828
780.02        82.60916
780.43        83.04353
780.84        83.09419
781.26        82.43198
781.67        81.51239
782.09        82.17518
782.50         83.9728
782.91          84.145
783.33        82.82162
783.74        82.46245
784.15        83.12161
784.57        83.58535
784.98        83.62043
785.39        82.96033
785.81        81.86367
786.22        81.55791
786.63         82.0078
787.04         82.1002
787.46        81.82097
787.87        81.83447
788.28        82.18062
788.70        82.52477
789.11        82.82181
789.52        83.25879
789.93        83.69724
790.35        83.69868
790.76        83.33259
791.17          83.077
791.58        83.03272
792.00        82.93512
792.41         82.7599
792.82        82.79529
793.23        82.87424
793.65        82.30515
794.06        81.51752
794.47        81.68176
794.88        82.48509
795.29        84.26145
795.71        83.86337
796.12        83.38783
796.53        84.22814
796.94         83.7493
797.35        82.83862
797.76        82.52264
798.18        82.87547
798.59        83.08231
799.00        83.06144
799.41        83.27663
799.82        83.64137
800.23        83.82688
800.64        83.77969
801.06        83.51221
801.47        83.19128
801.88        83.06143
802.29         83.1712
802.70        83.41069
803.11        83.65327
803.52         83.6937
803.93        83.48662
804.34        83.17767
804.75        82.84829
805.17        82.57916
805.58        82.44135
805.99        82.61241
806.40        82.13939
806.81        83.03664
807.22        84.54037
807.63         84.4606
808.04        83.06847
808.45        82.76215
808.86        83.71789
809.27        84.57471
809.68        85.06937
810.09        85.39909
810.50        85.45167
810.91        85.16384
811.32         84.7001
811.73        84.26411
812.14        83.92045
812.55        83.84165
812.96        83.91575
813.37        83.42921
813.78        82.59377
814.19        82.62712
814.60        83.36999
815.01        83.65314
815.42        83.32392
815.83         83.0934
816.24        83.05783
816.65        83.12064
817.05        83.32284
817.46        83.63805
817.87        83.97671
818.28        84.15174
818.69         84.1385
819.10        83.98444
819.51         83.8075
819.92        83.88643
820.33        84.28777
820.74         84.7271
821.14        85.12003
821.55        85.73578
821.96        86.32741
822.37        85.97434
822.78        84.89294
823.19        84.32896
823.60        84.43372
824.00        84.58678
824.41        84.62937
824.82        84.70036
825.23        84.75475
825.64        84.78081
826.04        84.81373
826.45        84.85343
826.86        84.91362
827.27        84.97533
827.68        85.02937
828.08        85.09738
828.49        85.11111
828.90        85.10121
829.31        85.05718
829.72        84.95901
830.12         84.8336
830.53        84.66937
830.94        84.49986
831.35        84.33688
831.75         84.2173
832.16        84.09541
832.57        84.03964
832.97        84.13712
833.38        84.36452
833.79         84.6824
834.20        84.99437
834.60        85.14503
835.01        85.11977
835.42        84.97858
835.82         84.7735
836.23        84.53807
836.64        84.33025
837.04         84.1236
837.45        84.00708
837.86        84.17359
838.26        84.65391
838.67        85.36606
839.08        86.05173
839.48        86.21831
839.89        85.75662
840.29        84.85091
840.70        83.91796
841.11        83.48649
841.51        83.69473
841.92         84.3269
842.33        85.19415
842.73        85.96337
843.14        86.38283
843.54        86.61507
843.95        86.60448
844.35        86.35852
844.76        85.93217
845.17        85.34602
845.57         84.7539
845.98        84.43391
846.38        84.45096
846.79        84.74487
847.19        85.27106
847.60        85.76382
848.00        86.18241
848.41        86.49679
848.81        86.77495
849.22        87.04932
849.62        87.37045
850.03         87.6455
850.43        87.84946
850.84        87.82229
851.24        87.61304
851.65        87.22413
852.05        86.82637
852.46        86.60036
852.86        86.61374
853.27        86.73224
853.67        86.84773
854.07        87.19666
854.48        87.59276
854.88        87.49619
855.29        86.95123
855.69        86.75396
856.10        86.89223
856.50        87.04587
856.90        87.06763
857.31        86.94181
857.71        86.72329
858.12          86.384
858.52        86.03986
858.92        85.73868
859.33        85.48607
859.73        85.31769
860.13        85.26556
860.54        85.39336
860.94        85.76595
861.34        86.29642
861.75         86.7926
862.15        87.05543
862.55        86.98254
862.96        86.64983
863.36        86.18415
863.76        85.77251
864.17        85.49667
864.57        85.33821
864.97        85.31453
865.38        85.42413
865.78        85.69633
866.18        86.05955
866.58        86.40227
866.99        86.52046
867.39        86.40583
867.79        86.07709
868.19        85.50735
868.60        84.64397
869.00        83.49905
869.40        82.14499
869.80        80.92171
870.21         80.3864
870.61        80.71904
871.01        81.70603
871.41        82.86906
871.81        83.43341
872.22        83.21632
872.62        82.45903
873.02        81.47652
873.42        80.92123
873.82        80.84391
874.22        80.73381
874.63        80.63279
875.03        80.74689
875.43        81.03546
875.83        82.08141
876.23        82.06129
876.63        81.85754
877.03        81.16394
877.44        80.01086
877.84        118.3293
878.24        80.43726
878.64        81.15862
879.04        83.34007
879.44        81.04835
879.84        79.49937
880.24        81.83251
880.64        81.54734
881.04        79.29307
881.44        77.99749
881.84        78.16811
882.24        79.31052
882.65        80.75639
883.05        81.37163
883.45        80.78023
883.85        79.53458
884.25         78.2641
884.65        77.72673
885.05        78.11907
885.45        79.18719
885.85        80.46545
886.25        81.18276
886.65        81.11551
887.05        80.52191
887.45        79.79459
887.85        79.51559
888.25        79.83102
888.65        80.53758
889.04        81.38227
889.44         81.8559
889.84        81.83086
890.24        81.45722
890.64        80.92263
891.04        80.49515
891.44        80.23155
891.84        80.01505
892.24        79.75678
892.64        79.32405
893.04        78.72775
893.44        78.12462
893.83        77.52389
894.23        76.95567
894.63        76.42706
895.03        75.90065
895.43        75.58684
895.83        75.84591
896.23         76.6899
896.63         77.9812
897.02        79.25639
897.42        79.66344
897.82        79.04224
898.22        77.69663
898.62        76.14039
899.01        75.15666
899.41        75.00215
899.81        75.41045
900.21        76.21571
900.61        77.16753
901.00        78.11271
901.40        79.07886
901.80        79.92118
902.20        80.37373
902.59         80.3856
902.99         79.9961
903.39        79.31612
903.79        78.57257
904.18        77.88012
904.58        77.25967
904.98        76.85844
905.38        76.87836
905.77        77.32159
906.17        78.16052
906.57        79.08295
906.96        79.61314
907.36        79.59459
907.76         79.1054
908.15         78.5042
908.55        78.33496
908.95         78.7336
909.34        79.58064
909.74        80.37733
910.14        80.27585
910.53         79.1116
910.93        77.25924
911.33        75.46199
911.72        74.87289
912.12        75.68345
912.52        77.42924
912.91        79.41675
913.31        80.51248
913.70        80.47443
914.10        79.61833
914.49         78.2687
914.89        77.14032
915.29        76.56644
915.68        76.34628
916.08        76.46272
916.47        76.86958
916.87        77.46423
917.26        78.24271
917.66        79.02647
918.05        79.53848
918.45        79.66636
918.84         79.5197
919.24        79.05885
919.64         78.2634
920.03        77.23051
920.42        76.03246
920.82        75.09898
921.21        75.02717
921.61        75.84592
922.00        77.39996
922.40        79.08361
922.79        80.12387
923.19        80.25006
923.58        79.53426
923.98        78.24493
924.37         77.3616
924.77        77.33801
925.16        75.53003
925.55        76.35486
925.95        76.18404
926.34        76.33808
926.74         76.6813
927.13        77.23229
927.52        77.84248
927.92        78.42775
928.31        79.07433
928.70        79.59108
929.10         79.6946
929.49        79.34782
929.89        78.60325
930.28        77.85705
930.67        77.74976
931.07        78.37119
931.46        79.57212
931.85        80.82697
932.24        81.34354
932.64        80.92759
933.03        79.74012
933.42        78.21074
933.82        77.25144
934.21        77.14068
934.60        77.62304
934.99         78.1163
935.39        78.01449
935.78        77.21661
936.17        75.53738
936.56        73.25017
936.96        73.76923
937.35        73.34721
937.74        74.85149
938.13        76.43865
938.53        77.54947
938.92        78.11684
939.31        78.36315
939.70        78.39942
940.09        78.30922
940.49        78.18058
940.88        77.99158
941.27        77.87624
941.66        78.08181
942.05        78.62285
942.44        79.41412
942.84        80.28017
943.23        80.93403
943.62        81.25127
944.01        81.34322
944.40        81.18675
944.79         80.7598
945.18        80.10188
945.57        79.17995
945.97        78.33304
946.36         78.1291
946.75        78.71563
947.14         79.9001
947.53        81.09599
947.92        81.48206
948.31        80.93459
948.70        79.69849
949.09        78.26254
949.48        77.49653
949.87        77.65461
950.26        78.46128
950.65        79.50447
951.04        80.09553
951.43        80.01573
951.82        79.49692
952.21        78.76299
952.60        78.16051
952.99        77.81845
953.38         77.6102
953.77        77.50574
954.16        77.47746
954.55        77.49856
954.94        77.61449
955.33          77.772
955.72        77.85084
956.11        77.83643
956.50        77.75436
956.89        77.67998
957.28        77.77581
957.66        78.06932
958.05        78.39273
958.44        78.70203
958.83        78.94155
959.22        79.07941
959.61        79.16601
960.00        79.02289
960.39        78.35165
960.78         77.1688
961.16        75.59378
961.55        74.14702
961.94        73.48042
962.33        73.72709
962.72        74.72211
963.11        76.00343
963.49        76.76946
963.88        76.68157
964.27        75.97916
964.66        75.07607
965.04        74.67882
965.43         74.9642
965.82        75.71932
966.21        76.57514
966.60        76.94502
966.98        76.70399
967.37        76.04594
967.76        75.35787
968.15        75.21643
968.53        75.76791
968.92        76.71738
969.31        77.74751
969.69        78.34541
970.08        78.28011
970.47        77.74052
970.86        76.86692
971.24        75.85085
971.63        74.87043
972.02        73.93797
972.40        73.11864
972.79        72.53722
973.17        72.26991
973.56        72.18758
973.95        72.46715
974.33        73.34238
974.72        74.63134
975.11        76.21234
975.49        77.47807
975.88        77.50717
976.26        76.20464
976.65        73.93612
977.04        71.39767
977.42        69.81634
977.81        69.59763
978.19         70.3737
978.58        71.87377
978.96        73.63574
979.35        75.29285
979.74        77.06662
980.12        78.51669
980.51        78.60514
980.89        77.35752
981.28        75.04583
981.66        72.70015
982.05        71.80782
982.43        72.55714
982.82        74.51046
983.20        76.93648
983.59        78.15666
983.97         77.7466
984.35        76.10713
984.74        73.98778
985.12        72.46933
985.51        71.87917
985.89        71.89854
986.28        72.21651
986.66        72.38059
987.04        72.13779
987.43        71.81005
987.81        71.39941
988.20        70.86927
988.58         70.1573
988.96        69.09446
989.35        67.88233
989.73        67.35165
990.12        67.82295
990.50        69.19307
990.88        70.56701
991.27        70.91294
991.65        70.26056
992.03        68.83005
992.42        67.48679
992.80        67.89056
993.18        70.37856
993.56        74.12489
993.95        77.79108
994.33        79.94187
994.71        80.15699
995.10        78.92379
995.48        76.97221
995.86        75.31738
996.24        74.32447
996.63        73.83329
997.01        73.50134
997.39        72.67063
997.77        71.28104
998.15        69.71742
998.54        68.80154
998.92        69.41874
999.30        71.77851
999.68        76.06925
1000.06        81.24827
1000.45        83.26113
1000.83        80.40445
1001.21        74.54198
1001.59        68.91763
1001.97        66.11869
1002.35        66.02546
1002.73        67.83321
1003.12        70.57121
1003.50        72.12885
1003.88        71.34245
1004.26        69.01083
1004.64        66.09543
1005.02        63.83144
1005.40        62.59362
1005.78        61.94416
1006.16        61.89902
1006.54        62.55511
1006.92        63.60891
1007.30        64.80632
1007.69        65.78423
1008.07        66.31689
1008.45        66.34457
1008.83        66.00632
1009.21         64.7946
1009.59        61.85309
1009.97        57.22066
1010.35        51.50124
1010.73        47.63394
1011.11        48.59945
1011.49         53.9054
1011.86        62.33331
1012.24        69.85229
1012.62        72.32186
1013.00        69.57208
1013.38        63.19743
1013.76        55.84578
1014.14        52.22651
1014.52        53.67101
1014.90        58.63541
1015.28        64.79866
1015.66        68.29802
1016.04        67.76256
1016.41        64.24807
1016.79        58.42077
1017.17        52.80405
1017.55         49.3039
1017.93        47.27467
1018.31        46.77667
1018.69        47.88909
1019.06        50.28026
1019.44        53.98008
1019.82        57.98006
1020.20        59.39378
1020.58         57.0192
1020.95         51.5117
1021.33        44.62962
1021.71        38.08797
1022.09         31.6846
1022.46        22.92704
1022.84        12.56435
1023.22        11.43276
1023.60        23.34536
1023.97        35.98206
1024.35         43.0474
1024.73        45.88296
