SpectraSmart Spectrum 2.9.0.0
--------- Device Information -----------
Spectrum Name :  反射率_0
Saving Time :  2024/04/19 23:51:27
Spectro-Module Model Name : SE2030-DUVN
Spectro-Module Serial Number : OS361AC55029948
Wavelength Start : 200
Wavelength End : 1025
Wavelength Unit : Wavelength(nm)
Spectrum Unit : Reflectance(%)
-----------Spectrum Setting ------------
Integration Time : 30ms
Average : 10
Boxcar : 0
Background removal :  enabled
linearity correction :  enabled
SC :  disabled
Intensity correction :  disabled
DWT denoise :  enabled
savitzky-golay :  disabled
FFT :  disabled
Running average :  disabled
Kalman :  disabled
High pass :  disabled
---------------BEGIN--------------------
Wavelength(nm)             Reflectance(%)
200.29               0
200.75        62.07716
201.21        63.13951
201.67        66.57513
202.13        72.78078
202.58        81.59261
203.04        93.08605
203.50        103.4925
203.96        104.2568
204.42        95.76997
204.88         84.0694
205.34        73.94886
205.80        67.21968
206.26        62.62872
206.72        58.45918
207.18        54.75556
207.64        53.88358
208.10        57.73515
208.55        65.51191
209.01          72.273
209.47        74.76037
209.93        73.59396
210.39        70.07449
210.85         66.2576
211.31        64.52654
211.77        65.20937
212.23        67.86896
212.69        71.90475
213.14        74.30049
213.60        73.17294
214.06        70.98734
214.52        69.12296
214.98        68.30834
215.44        68.35418
215.90         68.5032
216.36        69.28191
216.81        71.67554
217.27        75.41151
217.73        80.29193
218.19        83.86076
218.65         82.7702
219.11        76.62972
219.57         65.7385
220.02        53.57246
220.48        49.09335
220.94         55.2738
221.40        70.00621
221.86         86.8174
222.32        95.81141
222.77        94.77421
223.23        87.28284
223.69        78.03734
224.15        73.82761
224.61        75.46249
225.06        79.63845
225.52        84.07817
225.98        86.93577
226.44        88.10034
226.90        88.49997
227.36        88.44264
227.81        88.10099
228.27        87.89142
228.73        87.51647
229.19        87.06261
229.65        86.71821
230.10        86.42384
230.56        86.32152
231.02        86.28575
231.48        86.24124
231.93        86.08434
232.39        85.86777
232.85        85.51622
233.31        84.99316
233.77        84.29768
234.22        83.47472
234.68         82.4809
235.14        81.19865
235.60        79.71408
236.05        78.14266
236.51        76.79428
236.97        76.06351
237.43         76.0387
237.88        76.90398
238.34        78.17065
238.80        79.08169
239.26        78.95296
239.71        77.78323
240.17        75.95656
240.63        74.64571
241.08        74.18842
241.54        74.34451
242.00        74.21961
242.46        71.94844
242.91        66.51344
243.37        56.61607
243.83        42.92894
244.28        34.12337
244.74        38.93826
245.20        55.85011
245.66        73.04581
246.11        80.37133
246.57        77.01787
247.03        63.79593
247.48        43.53733
247.94        34.82856
248.40        42.38637
248.85         53.8791
249.31        62.62458
249.77         66.8659
250.22        67.78924
250.68        66.92292
251.14        65.29922
251.59        64.82394
252.05        66.62811
252.51         70.1706
252.96        73.66919
253.42        74.41665
253.88         72.0986
254.33        68.17384
254.79        65.50261
255.25        66.50715
255.70        70.76786
256.16        76.66606
256.62        82.19598
257.07        85.17764
257.53        85.66148
257.99        84.43063
258.44        82.04775
258.90        80.09609
259.35        78.50392
259.81        77.65017
260.27        76.88705
260.72        75.68185
261.18        74.37675
261.63        72.69881
262.09         71.5059
262.55        71.34888
263.00        72.02352
263.46        73.31329
263.91        74.19955
264.37         73.9231
264.83        72.45515
265.28        70.14307
265.74        67.97719
266.19        66.77835
266.65        66.76738
267.11        67.43784
267.56          68.204
268.02        68.26357
268.47        67.43394
268.93        66.03053
269.38        64.34412
269.84        63.05331
270.30        62.33108
270.75        61.97036
271.21          61.762
271.66        61.36463
272.12        60.68481
272.57        59.82957
273.03        58.93504
273.48         58.0905
273.94         57.4006
274.39        56.76568
274.85        56.18301
275.31        55.57502
275.76        54.87561
276.22         54.1248
276.67        53.31628
277.13        52.59866
277.58        51.91567
278.04        51.31794
278.49        50.59696
278.95        49.58213
279.40        48.23371
279.86        46.75458
280.31         45.3499
280.77        44.49709
281.22        44.16063
281.68        44.22361
282.13         44.3722
282.59        44.22005
283.04        43.65594
283.50        42.85868
283.95        41.96625
284.41         41.2585
284.86        40.75769
285.32        40.39539
285.77         40.0843
286.22        39.78657
286.68        39.48215
287.13        39.17649
287.59        38.84704
288.04        38.38651
288.50        37.82013
288.95         37.1363
289.41        36.46591
289.86        35.93155
290.32        35.61178
290.77        35.44585
291.22        35.37333
291.68        35.26394
292.13        35.08329
292.59        34.89528
293.04        34.75788
293.50        34.78795
293.95        34.99454
294.40        35.32494
294.86        35.71978
295.31        36.09888
295.77         36.4325
296.22        36.73845
296.68        37.01579
297.13         37.2434
297.58        37.43232
298.04        37.59179
298.49        37.74964
298.95        37.99613
299.40        38.32592
299.85        38.71065
300.31        39.10516
300.76        39.42693
301.21        39.65781
301.67        39.85538
302.12        39.99191
302.58        40.09288
303.03        40.15078
303.48        40.18533
303.94        40.28679
304.39        40.55198
304.84        40.99223
305.30         41.5476
305.75        42.07985
306.20        42.40539
306.66        42.49952
307.11        42.40411
307.57        42.20535
308.02        41.95651
308.47         41.7197
308.93        41.47611
309.38        41.26804
309.83        41.21329
310.29        41.31124
310.74         41.5318
311.19         41.7304
311.65        41.66884
312.10        41.30424
312.55        40.71619
313.00        40.08428
313.46        39.68811
313.91         39.5733
314.36        39.66178
314.82        39.81379
315.27        39.82735
315.72        39.63003
316.18        39.30426
316.63        38.91083
317.08        38.54797
317.53        38.24865
317.99          37.971
318.44        37.71555
318.89         37.4798
319.35        37.25956
319.80        37.06415
320.25        36.87901
320.70        36.67453
321.16        36.43788
321.61        36.17795
322.06        35.89786
322.51        35.61187
322.97        35.31901
323.42        35.01999
323.87        34.71525
324.32        34.41241
324.78        34.10939
325.23        33.82322
325.68        33.53467
326.13        33.21487
326.59         32.8654
327.04        32.52056
327.49         32.2215
327.94        32.03875
328.39         31.9821
328.85        32.00495
329.30        32.09576
329.75        32.18023
330.20        32.22138
330.66        32.21277
331.11        32.14662
331.56        31.95996
332.01        31.64927
332.46        31.22414
332.92         30.7631
333.37        30.41571
333.82        30.22956
334.27        30.19626
334.72        30.23315
335.17        30.18634
335.63        30.00454
336.08        29.73297
336.53        29.48274
336.98        29.45205
337.43        29.67639
337.88        30.09196
338.34        30.48955
338.79        30.58026
339.24        30.28168
339.69        29.67739
340.14        29.01948
340.59        28.73208
341.05        28.90298
341.50          29.406
341.95        29.96873
342.40        30.17002
342.85        29.91946
343.30        29.37104
343.75        28.73428
344.20        28.34671
344.66        28.30175
345.11        28.45749
345.56        28.72043
346.01        28.94257
346.46         29.0541
346.91        29.11619
347.36         29.0707
347.81        28.81531
348.26        28.36843
348.72        27.79034
349.17        27.21784
349.62        26.96268
350.07        27.09222
350.52         27.4991
350.97        28.02724
351.42        28.43772
351.87        28.64645
352.32        28.70861
352.77        28.62779
353.22        28.41622
353.67        28.10514
354.13        27.71075
354.58        27.28307
355.03        26.94657
355.48        26.73908
355.93        26.64829
356.38          26.646
356.83          26.672
357.28        26.69595
357.73        26.71978
358.18        26.73046
358.63        26.71039
359.08        26.65019
359.53        26.54654
359.98         26.3906
360.43        26.17359
360.88        25.90733
361.33        25.60955
361.78        25.32216
362.23        25.11346
362.68        24.99467
363.13        24.93147
363.58        24.89684
364.03        24.84582
364.48         24.7544
364.93        24.63818
365.38        24.44977
365.83        24.11704
366.28        23.64858
366.73        23.07725
367.18        22.53076
367.63        22.20755
368.08        22.14003
368.53        22.26294
368.98          22.444
369.43        22.47152
369.88        22.29477
370.33        21.98429
370.78        21.61519
371.23        21.31951
371.68        21.14805
372.13        21.05046
372.58        21.03017
373.03        21.09653
373.48        21.22423
373.93         21.4026
374.38        21.54815
374.83        21.52956
375.28        21.32502
375.72        20.96431
376.17        20.55094
376.62        20.21843
377.07        20.01901
377.52        19.92214
377.97        19.90169
378.42        19.91182
378.87        19.92676
379.32        19.95234
379.77        19.98096
380.22        19.99712
380.67        19.99398
381.11        19.97387
381.56        19.90551
382.01        19.76347
382.46        19.55082
382.91        19.27653
383.36         19.0108
383.81        18.85666
384.26         18.8306
384.71        18.91164
385.15         19.0002
385.60        18.94386
386.05        18.71773
386.50         18.3734
386.95        18.03599
387.40        17.90337
387.85        18.00874
388.29        18.27147
388.74        18.56149
389.19        18.69346
389.64         18.6248
390.09        18.40713
390.54        18.12951
390.98        17.92702
391.43        17.85674
391.88        17.86929
392.33        17.88855
392.78        17.80655
393.23         17.6145
393.67        17.34758
394.12        17.11874
394.57        17.02194
395.02         17.0715
395.47        17.22833
395.91        17.41244
396.36        17.46492
396.81        17.35341
397.26        17.12594
397.71        16.87701
398.15        16.73223
398.60        16.74052
399.05        16.84945
399.50        16.98306
399.95         17.0344
400.39        16.97799
400.84        16.84141
401.29        16.69637
401.74        16.67128
402.18        16.79872
402.63         17.0243
403.08        17.23575
403.53        17.25713
403.97        17.05857
404.42        16.71238
404.87        16.34721
405.32        16.17366
405.76        16.23891
406.21        16.46932
406.66         16.7552
407.11        16.92381
407.55        16.92903
408.00        16.83217
408.45        16.67999
408.90        16.51179
409.34        16.37903
409.79        16.33984
410.24        16.37561
410.68        16.39159
411.13        16.38177
411.58        16.41029
412.03         16.4546
412.47        16.44925
412.92        16.38296
413.37         16.2679
413.81         16.1615
414.26        16.16743
414.71        16.29555
415.15        16.52265
415.60         16.7402
416.05        16.79617
416.49        16.65184
416.94        16.35939
417.39          16.028
417.83        15.83368
418.28        15.82731
418.73         15.9495
419.17        16.11104
419.62         16.1612
420.07        16.07063
420.51         15.8943
420.96        15.70385
421.41        15.58908
421.85         15.5694
422.30        15.61848
422.74        15.70367
423.19        15.80819
423.64        15.91094
424.08        16.02733
424.53        16.11913
424.98        16.14578
425.42        16.10276
425.87        16.00258
426.31        15.87504
426.76        15.77803
427.21        15.71725
427.65         15.6712
428.10        15.65397
428.54        15.66149
428.99        15.69277
429.44        15.82182
429.88        15.95646
430.33        15.84395
430.77        15.54152
431.22        15.36363
431.66        15.36468
432.11        15.45397
432.56        15.61157
433.00         15.9035
433.45        16.15518
433.89        16.10604
434.34        15.85252
434.78        15.56464
435.23        15.24674
435.67        15.93714
436.12        15.41085
436.57        15.32326
437.01        15.08453
437.46        14.99089
437.90         15.0542
438.35         15.1406
438.79        15.20432
439.24        15.23991
439.68        15.23216
440.13        15.05948
440.57          14.817
441.02        14.89599
441.46        15.16054
441.91        15.14488
442.35        14.50918
442.80        14.28412
443.24         14.3218
443.69        14.30331
444.13        14.20786
444.58        14.16468
445.02         14.1764
445.47        14.24408
445.91         14.3291
446.36        14.33708
446.80        14.25086
447.24        14.11602
447.69        13.97702
448.13        13.87116
448.58        13.81904
449.02        13.80561
449.47        13.80791
449.91        13.78208
450.36        13.72344
450.80        13.64639
451.25         13.5776
451.69        13.54115
452.13        13.54778
452.58         13.5784
453.02        13.62434
453.47        13.67229
453.91        13.71643
454.36        13.75892
454.80        13.78447
455.24         13.7682
455.69        13.71402
456.13        13.61603
456.58        13.51851
457.02        13.47924
457.46        13.50673
457.91        13.55346
458.35        13.59352
458.79        13.61869
459.24        13.61873
459.68        13.59906
460.13        13.61524
460.57        13.62061
461.01        13.60648
461.46        13.93294
461.90         14.0418
462.34        13.91413
462.79        14.00856
463.23        13.86415
463.68        13.72324
464.12        13.61275
464.56        13.66249
465.01        13.76203
465.45          13.868
465.89        13.92942
466.34        13.93756
466.78        13.86359
467.22        13.75765
467.67        13.79879
468.11        13.95763
468.55        13.95422
468.99        13.80493
469.44        13.76285
469.88        13.83769
470.32        13.88874
470.77         13.8895
471.21        13.86987
471.65        13.82662
472.10        13.75534
472.54        13.68396
472.98        13.68895
473.42        13.77823
473.87        13.88752
474.31        13.98446
474.75        14.10335
475.20        14.20372
475.64        14.14613
476.08        13.99233
476.52        13.96205
476.97        14.07197
477.41        14.22367
477.85        14.36025
478.29        14.43153
478.74        14.42122
479.18        14.32364
479.62        14.20787
480.06        14.18362
480.50        14.25456
480.95        14.32288
481.39        14.35678
481.83        14.37703
482.27        14.37425
482.72        14.33814
483.16        14.29976
483.60        14.29284
484.04        14.30382
484.48         14.4619
484.93        14.78402
485.37        14.75698
485.81        14.50101
486.25          15.241
486.69        15.39748
487.14        15.08119
487.58        15.09666
488.02        15.70674
488.46         15.3047
488.90        15.28134
489.34        15.12404
489.79        15.19034
490.23        15.43108
490.67         15.6147
491.11        15.69254
491.55        15.64303
491.99        15.50214
492.43        15.42097
492.88        15.42659
493.32        15.40387
493.76        15.37906
494.20        15.45518
494.64        15.63837
495.08        15.89152
495.52        16.15821
495.96        16.36313
496.41        16.48524
496.85        16.51455
497.29        16.49564
497.73        16.57962
498.17        16.76038
498.61        16.85048
499.05        16.85385
499.49        16.94838
499.93        17.14135
500.37        17.29074
500.82        17.39981
501.26        17.61599
501.70        17.89433
502.14        17.99171
502.58        17.92847
503.02        17.94576
503.46        18.05836
503.90        18.13319
504.34        18.15687
504.78        18.16949
505.22        18.17108
505.66        18.15916
506.10        18.14152
506.54        18.12633
506.98        18.12119
507.42        18.13124
507.86        18.16394
508.30        18.22877
508.74        18.32282
509.18        18.43475
509.62        18.55692
510.06        18.67722
510.50        18.78915
510.94        18.89856
511.38        18.98066
511.82        18.99747
512.26        18.94759
512.70        18.84066
513.14        18.73821
513.58        18.73557
514.02        18.84209
514.46        19.02952
514.90        19.22189
515.34         19.2391
515.78        19.07917
516.22        18.87024
516.66        18.70785
517.10        18.39148
517.54        17.95095
517.98        18.53459
518.42        18.41155
518.86        18.68054
519.30        18.80266
519.74        18.94639
520.18        19.06891
520.62        19.07891
521.06        18.98753
521.50        18.80754
521.93        18.59251
522.37        18.44165
522.81        18.38234
523.25        18.38924
523.69         18.4421
524.13        18.50596
524.57        18.56168
525.01        18.61677
525.45         18.6545
525.89        18.64644
526.32        18.58924
526.76        18.49216
527.20        18.37446
527.64         18.2751
528.08         18.2048
528.52        18.14909
528.96        18.11053
529.40        18.08941
529.83         18.0805
530.27        18.09204
530.71         18.0871
531.15        18.00752
531.59        17.85077
532.03        17.63694
532.46        17.43291
532.90        17.36012
533.34        17.43164
533.78         17.6055
534.22        17.80254
534.66        17.90015
535.09        17.86449
535.53        17.73898
535.97        17.57227
536.41        17.44002
536.85        17.36911
537.28        17.34639
537.72        17.36128
538.16        17.34314
538.60        17.36875
539.04        17.37539
539.47        17.38897
539.91        17.45269
540.35        17.57829
540.79        17.59938
541.22        17.73127
541.66         17.8317
542.10        17.97695
542.54         17.8814
542.97        18.02468
543.41        18.08471
543.85        18.19423
544.29        18.30532
544.72          18.394
545.16        18.47636
545.60        18.54611
546.04        18.54564
546.47        18.54008
546.91        18.74827
547.35        19.12433
547.79        19.41533
548.22        19.57164
548.66        19.65053
549.10        19.68518
549.53        19.81482
549.97        20.06062
550.41        20.09061
550.84        20.27987
551.28        20.42205
551.72        20.62786
552.15        20.82628
552.59        21.01027
553.03        21.18924
553.46        21.34113
553.90         21.4522
554.34        21.52025
554.77        21.55055
555.21        21.56876
555.65         21.6045
556.08        21.66473
556.52        21.74323
556.96        21.83223
557.39        21.94661
557.83          22.074
558.27        22.15571
558.70        22.19983
559.14        22.26329
559.57        22.34136
560.01        22.43093
560.45        22.50461
560.88        22.49221
561.32        22.44002
561.75        22.41829
562.19        22.52571
562.63          22.595
563.06        22.64845
563.50        22.73974
563.93        22.85302
564.37        23.00415
564.80        23.07919
565.24        23.17747
565.68        23.25392
566.11        23.31913
566.55        23.39246
566.98        23.42732
567.42        23.42992
567.85        23.70581
568.29        23.64803
568.72        23.97209
569.16        24.40805
569.60        24.69868
570.03         24.8062
570.47        24.86864
570.90        24.80376
571.34        25.11872
571.77        25.02169
572.21        25.22853
572.64        25.51289
573.08        25.54714
573.51         25.7251
573.95        26.18818
574.38        26.48895
574.82        26.71342
575.25        26.71209
575.69        26.58569
576.12        26.64139
576.56        26.60715
576.99         26.5539
577.42         26.8506
577.86        26.83395
578.29        26.72985
578.73        27.01126
579.16        26.92491
579.60        26.73253
580.03        26.57765
580.47        26.51818
580.90        26.26505
581.33         26.1992
581.77        26.25409
582.20         26.4359
582.64        26.10646
583.07        25.90919
583.51        26.01313
583.94        25.63468
584.37        25.51526
584.81        25.15602
585.24        25.05866
585.68        25.11755
586.11        24.95841
586.54        24.85094
586.98        24.74793
587.41        24.78165
587.85         24.7981
588.28        24.75649
588.71        24.63053
589.15          24.491
589.58        24.11268
590.01        24.26431
590.45        24.51962
590.88         24.3418
591.31        24.25121
591.75        24.04385
592.18        24.16838
592.61        24.06193
593.05        24.40275
593.48        24.17148
593.91        24.81901
594.35        24.59076
594.78        24.63595
595.21        24.95261
595.65        25.22159
596.08        25.14166
596.51        25.24974
596.94        25.45252
597.38        25.59615
597.81        25.74373
598.24        25.78277
598.68        26.47701
599.11        26.51935
599.54        27.23003
599.97        27.06907
600.41        27.49259
600.84        28.04237
601.27        28.43855
601.70        28.78147
602.14        28.92666
602.57        29.34028
603.00         29.9901
603.43        30.49657
603.87        30.84632
604.30        31.26495
604.73        31.73397
605.16        32.22942
605.60        32.70649
606.03        33.26478
606.46        33.77346
606.89        34.40585
607.32        34.88331
607.76        35.14661
608.19        35.56152
608.62        36.10759
609.05        36.25901
609.48        36.61815
609.92        37.01964
610.35        37.14556
610.78        37.88499
611.21         38.5104
611.64         38.4774
612.07        38.93813
612.50        39.31041
612.94        39.52432
613.37        40.07723
613.80        40.46727
614.23        40.84765
614.66        41.41359
615.09        41.73752
615.52        42.14707
615.96        42.47019
616.39        42.79334
616.82        43.18091
617.25        43.11506
617.68        43.64291
618.11        43.99143
618.54        44.39136
618.97        44.47365
619.40        44.27024
619.84          44.558
620.27         44.3299
620.70        44.84193
621.13        45.61057
621.56        45.93376
621.99        45.87267
622.42        45.88665
622.85        46.07318
623.28        46.14013
623.71        46.10311
624.14        46.26046
624.57        46.17929
625.00        46.10203
625.43        46.34427
625.86        45.67853
626.29        45.83086
626.72        45.57578
627.15        45.41375
627.58        45.23318
628.01         45.0042
628.44        44.85098
628.87        44.57786
629.30         44.0696
629.73        43.79959
630.16        43.38509
630.59        43.05365
631.02         42.6414
631.45        42.16613
631.88        41.78783
632.31        41.28286
632.74        40.80043
633.17        40.27604
633.60        39.73311
634.03        39.17595
634.46        38.60876
634.89        38.03516
635.32        37.45209
635.75        36.86861
636.18        36.29777
636.61        35.75381
637.04        35.25195
637.47        34.79271
637.89        34.37064
638.32        33.97524
638.75        33.60944
639.18        33.27164
639.61        32.96385
640.04         32.6674
640.47        32.35022
640.90        32.00866
641.33        31.65382
641.76        31.31965
642.18        31.06557
642.61        30.90133
643.04        30.81277
643.47        30.77283
643.90        30.73391
644.33        30.68474
644.76        30.64536
645.18        30.62854
645.61        30.65877
646.04        30.74251
646.47        30.86485
646.90        31.03811
647.33        31.28421
647.75        31.60304
648.18        31.98773
648.61        32.39309
649.04        32.75023
649.47        33.05616
649.89        33.31346
650.32        33.59718
650.75        34.09906
651.18        34.82801
651.61        35.54626
652.03         36.2213
652.46        37.14283
652.89        38.23517
653.32        38.77467
653.74         38.8334
654.17        39.74901
654.60        40.34239
655.03        41.27365
655.46        41.70664
655.88        43.06544
656.31        44.36559
656.74        49.11177
657.16        49.04075
657.59        47.44358
658.02        47.34126
658.45        47.20149
658.87        48.35688
659.30        48.56115
659.73        49.51287
660.15        50.56811
660.58        50.49945
661.01        50.70173
661.44         50.8671
661.86        51.37883
662.29        52.19051
662.72        53.04133
663.14        53.78104
663.57        54.05412
664.00        53.99942
664.42        54.22859
664.85        54.81461
665.27        55.36773
665.70         55.7995
666.13        56.18185
666.55         56.4972
666.98         56.7273
667.41        56.91054
667.83        57.09613
668.26        57.28376
668.69        57.49809
669.11        57.74285
669.54         57.9111
669.96        57.98621
670.39        58.41719
670.82        58.50103
671.24         58.7413
671.67        58.96735
672.09        59.27562
672.52        59.62376
672.94        60.02625
673.37        60.32907
673.80        60.21972
674.22        59.83618
674.65        59.77047
675.07        60.09792
675.50        60.50002
675.92        60.85751
676.35        61.06588
676.77        61.07872
677.20        60.95859
677.62          60.826
678.05        60.78731
678.47        60.86265
678.90        61.32544
679.32          61.632
679.75        61.80976
680.17        62.05147
680.60        62.13865
681.02        62.22882
681.45        62.15332
681.87        62.29448
682.30        62.36219
682.72        62.43209
683.15         62.4609
683.57        62.50055
684.00        62.49527
684.42        62.55463
684.85        63.05133
685.27        63.05617
685.70        63.38094
686.12        63.68272
686.54        63.87708
686.97        63.93668
687.39        63.91277
687.82        63.84536
688.24        63.81903
688.66        63.85828
689.09        63.89397
689.51        63.94441
689.94        64.11414
690.36        64.37247
690.78        64.46706
691.21        64.39882
691.63        64.51059
692.06        64.84415
692.48        64.75621
692.90        64.84899
693.33        65.27394
693.75         65.0963
694.17        65.18629
694.60        65.22836
695.02        65.23133
695.44        65.17739
695.87        65.27068
696.29        65.47362
696.71        65.29572
697.14        64.95447
697.56        65.25579
697.98        66.19352
698.41         66.6875
698.83        66.93439
699.25        66.41123
699.68        66.12344
700.10        65.93587
700.52        66.15348
700.94        66.48799
701.37        66.79929
701.79        67.04708
702.21        67.14982
702.64        67.09225
703.06        67.03615
703.48        67.07639
703.90        67.27391
704.33        67.55565
704.75        67.83049
705.17        67.96281
705.59        67.89455
706.01        67.58856
706.44        67.21928
706.86        67.14642
707.28        67.42091
707.70        67.90778
708.12        68.44128
708.55        68.74375
708.97        68.76838
709.39        68.69196
709.81        68.58482
710.23        68.48135
710.66        68.42966
711.08         68.4529
711.50        68.52783
711.92        68.60935
712.34        68.68986
712.76        68.79883
713.19        68.91275
713.61        69.04439
714.03        69.16214
714.45        69.25434
714.87        69.34718
715.29        69.49183
715.71        69.69419
716.13        69.92984
716.56        70.11802
716.98        70.23365
717.40        70.24004
717.82        70.04774
718.24        69.93855
718.66        69.86829
719.08        69.92934
719.50        70.07836
719.92        70.26093
720.34        70.38165
720.76        70.41167
721.19        70.38307
721.61        70.33234
722.03        70.28135
722.45        70.26795
722.87        70.26715
723.29        70.29743
723.71        70.38091
724.13         70.5207
724.55        70.71407
724.97        70.93604
725.39        71.14176
725.81        71.31155
726.23        71.44337
726.65        71.55257
727.07        71.67124
727.49        71.80506
727.91        71.94382
728.33        72.05529
728.75        72.08649
729.17        72.03267
729.59        71.92107
730.01        71.80399
730.43        71.76325
730.85        71.82397
731.27        71.94491
731.69        72.08765
732.10        72.24992
732.52        72.40816
732.94        72.37046
733.36        72.47005
733.78        72.44398
734.20        72.43755
734.62        72.37485
735.04        72.22704
735.46        72.29941
735.88        72.50861
736.30        71.86749
736.72        72.16635
737.13        72.35596
737.55        72.81777
737.97        73.20354
738.39        73.38324
738.81        73.13933
739.23        72.66566
739.65        72.63898
740.06         72.9635
740.48        73.30842
740.90         73.5894
741.32        72.68439
741.74        72.52595
742.16         72.4439
742.57        72.52357
742.99        72.69752
743.41         72.7714
743.83        73.21302
744.25        73.15448
744.67        73.20039
745.08        73.10898
745.50        73.25473
745.92        73.04903
746.34        72.97865
746.75        72.89284
747.17        72.83859
747.59        72.82894
748.01        72.87877
748.42        72.96868
748.84        73.04811
749.26        73.12218
749.68        73.06692
750.09         72.9557
750.51        73.20007
750.93        73.66364
751.35        73.66553
751.76        73.27149
752.18        73.09035
752.60        73.11784
753.01        73.30137
753.43        73.28905
753.85        73.13625
754.27        73.27385
754.68        73.72884
755.10        73.92686
755.52        73.76047
755.93        73.91144
756.35        73.76589
756.77        73.68999
757.18        73.52709
757.60        73.90741
758.02        74.18894
758.43        74.35643
758.85        74.67426
759.26        75.07235
759.68        74.06239
760.10        74.20387
760.51        74.02983
760.93        74.33422
761.34        73.58767
761.76        73.72604
762.18        73.46549
762.59        73.44316
763.01        73.52991
763.42        73.77625
763.84        74.26194
764.26        74.83743
764.67        74.78303
765.09        74.32214
765.50        74.55032
765.92        75.34184
766.33        75.48953
766.75        74.91271
767.16         74.4778
767.58        74.26049
768.00        73.92178
768.41        73.62891
768.83        73.81872
769.24        74.40092
769.66        74.95038
770.07        75.28743
770.49        75.28035
770.90        75.05078
771.32        75.11715
771.73        75.46105
772.15        75.57794
772.56        75.46986
772.97        75.27861
773.39        74.98315
773.80        74.88126
774.22        75.00858
774.63        74.04301
775.05        74.11133
775.46         73.9539
775.88        74.18514
776.29        74.64469
776.70        75.13433
777.12        75.34857
777.53        75.20218
777.95         74.7728
778.36        74.27505
778.77        74.08686
779.19        74.30608
779.60        74.86858
780.02        75.49744
780.43        75.93405
780.84        76.09689
781.26        75.65768
781.67        74.98531
782.09        75.68609
782.50        77.35075
782.91        77.49156
783.33         76.2085
783.74        75.91896
784.15        76.38422
784.57        76.63388
784.98        76.46144
785.39        76.03393
785.81        75.61993
786.22        75.29408
786.63         75.1805
787.04        75.12011
787.46        75.11964
787.87        75.29472
788.28        75.61569
788.70        75.88234
789.11        76.04072
789.52        76.29324
789.93        76.56067
790.35        76.40958
790.76        76.00722
791.17        76.00313
791.58        76.37771
792.00        76.68902
792.41        76.76037
792.82        76.38737
793.23        75.68801
793.65         75.2198
794.06         75.2555
794.47        75.54412
794.88        75.85826
795.29        77.13213
795.71        77.54971
796.12        76.72538
796.53        77.43383
796.94        76.60028
797.35        75.56683
797.76        75.46688
798.18        76.25412
798.59        76.76406
799.00        76.76228
799.41        76.63161
799.82        76.45624
800.23        76.42508
800.64        76.57057
801.06        76.62634
801.47        76.62376
801.88        76.70602
802.29        76.86216
802.70        77.01526
803.11        77.09779
803.52        77.01375
803.93        76.77176
804.34        76.44251
804.75        76.08773
805.17        75.89243
805.58        75.92784
805.99        75.84226
806.40        75.76113
806.81        76.56087
807.22        77.77596
807.63         78.1619
808.04        76.65511
808.45        76.32558
808.86        77.00179
809.27         77.7997
809.68        78.44784
810.09        78.80206
810.50        78.74445
810.91        78.40067
811.32        77.94663
811.73        77.49379
812.14         77.1049
812.55        77.00529
812.96        77.07587
813.37        76.53745
813.78        75.62825
814.19        75.68183
814.60        76.55469
815.01        76.96445
815.42        76.83876
815.83         76.8634
816.24        77.10332
816.65        77.32305
817.05         77.5183
817.46        77.68964
817.87         77.8081
818.28        77.78915
818.69         77.6487
819.10        77.42904
819.51        77.20271
819.92        77.19994
820.33        77.48502
820.74         77.6952
821.14          77.868
821.55        78.69509
821.96        79.83891
822.37        79.78449
822.78        78.67316
823.19        78.11996
823.60        78.26661
824.00        78.21094
824.41        77.90002
824.82        77.81854
825.23         77.9793
825.64        78.26299
826.04         78.5825
826.45        78.74136
826.86        78.70474
827.27        78.53964
827.68        78.31134
828.08        78.15315
828.49        78.06136
828.90        78.03386
829.31        78.08588
829.72        78.23991
830.12        78.49525
830.53        78.79626
830.94        79.07951
831.35        79.21684
831.75        79.20489
832.16        79.03481
832.57        78.77917
832.97        78.55106
833.38        78.37677
833.79        78.23302
834.20        78.13753
834.60        78.10089
835.01        78.13541
835.42        78.26321
835.82        78.41081
836.23        78.38934
836.64        78.18883
837.04        77.83984
837.45        77.51503
837.86        77.55103
838.26        78.01871
838.67        78.78318
839.08        79.55818
839.48        79.80711
839.89        79.40363
840.29        78.56721
840.70        77.67946
841.11        77.21717
841.51        77.31654
841.92        77.76324
842.33        78.46498
842.73        79.26006
843.14        79.93777
843.54         80.6116
843.95        81.05384
844.35        80.98102
844.76        80.38684
845.17        79.37958
845.57        78.31915
845.98        77.79242
846.38        77.92819
846.79        78.57327
847.19         79.5072
847.60        80.15724
848.00        80.39222
848.41        80.30669
848.81         80.1143
849.22        80.06743
849.62        80.28156
850.03        80.58997
850.43        80.93977
850.84        81.14169
851.24        81.19736
851.65        81.12589
852.05        80.99193
852.46        80.82133
852.86        80.66243
853.27        80.37896
853.67        80.02129
854.07        80.16264
854.48        80.62166
854.88        80.57028
855.29        79.99476
855.69        79.78066
856.10        79.90234
856.50        79.94758
856.90        79.82874
857.31         79.6968
857.71        79.63132
858.12        79.53367
858.52        79.47665
858.92        79.45991
859.33        79.46394
859.73        79.52689
860.13        79.64194
860.54        79.79902
860.94        80.03782
861.34         80.2971
861.75        80.45264
862.15        80.41347
862.55        80.12761
862.96        79.67271
863.36        79.15753
863.76        78.73462
864.17        78.46545
864.57        78.32573
864.97        78.35832
865.38         78.5999
865.78        79.07811
866.18        79.72012
866.58        80.30209
866.99        80.42902
867.39        80.05313
867.79         79.2475
868.19          78.218
868.60        77.29015
869.00        76.54789
869.40        75.95645
869.80        75.57436
870.21        75.46581
870.61        75.67525
871.01        76.15356
871.41        76.67693
871.81        76.87007
872.22        76.67594
872.62        76.20635
873.02        75.64153
873.42        75.47037
873.82        75.62926
874.22        75.56451
874.63        75.40565
875.03        75.50658
875.43        75.85529
875.83        77.13869
876.23        76.95662
876.63        76.31133
877.03        74.77229
877.44        72.41965
877.84        125.9951
878.24        71.86491
878.64        72.96678
879.04        76.40225
879.44        73.71709
879.84        72.29924
880.24        76.10014
880.64        76.37356
881.04        73.98812
881.44        72.36968
881.84        72.05266
882.24         72.4987
882.65        73.29076
883.05        73.60546
883.45        73.15036
883.85        72.48355
884.25         71.9756
884.65        71.91598
885.05        72.39272
885.45        73.27874
885.85        74.23851
886.25        74.73392
886.65        74.62057
887.05        74.06362
887.45        73.41172
887.85        73.19221
888.25        73.53195
888.65        74.27681
889.04        75.15377
889.44        75.60777
889.84        75.51151
890.24        75.02177
890.64        74.40712
891.04        74.06651
891.44        74.06894
891.84        74.24833
892.24        74.39539
892.64        74.16814
893.04        73.51996
893.44         72.6773
893.83        71.75478
894.23        70.92504
894.63         70.2394
895.03        69.62087
895.43         69.2524
895.83        69.44569
896.23        70.20625
896.63        71.43803
897.02        72.68604
897.42        73.11189
897.82        72.55052
898.22        71.26797
898.62        69.80804
899.01        69.01218
899.41        69.11855
899.81        69.84009
900.21        70.87712
900.61        71.77357
901.00        72.36185
901.40        72.75025
901.80        72.99449
902.20         73.1623
902.59        73.28654
902.99        73.30695
903.39        73.17079
903.79         72.8204
904.18        72.27496
904.58        71.64532
904.98        71.12071
905.38        70.97391
905.77        71.24242
906.17         71.8457
906.57        72.54946
906.96        73.01246
907.36        73.08768
907.76        72.83833
908.15        72.45892
908.55        72.21482
908.95        72.20575
909.34        72.40907
909.74        72.56856
910.14        72.25104
910.53        71.39353
910.93        70.20488
911.33        69.22103
911.72        69.27946
912.12        70.45558
912.52        72.37862
912.91        74.36508
913.31        75.29124
913.70         74.9489
914.10        73.64168
914.49        71.81258
914.89         70.4493
915.29        69.95664
915.68        70.06245
916.08        70.58709
916.47        71.24769
916.87        71.88236
917.26        72.56854
917.66        73.17089
918.05        73.48462
918.45        73.44443
918.84         73.1357
919.24        72.57452
919.64        71.83661
920.03        71.02153
920.42        70.16139
920.82        69.59293
921.21        69.77115
921.61        70.68269
922.00        72.20616
922.40         73.7599
922.79         74.6214
923.19        74.56808
923.58        73.62033
923.98        72.07164
924.37        71.10154
924.77        71.22195
925.16        69.11154
925.55        70.32619
925.95        70.22928
926.34        70.46185
926.74        70.86353
927.13        71.45673
927.52        72.07762
927.92        72.63438
928.31        73.21427
928.70        73.63508
929.10        73.64107
929.49        73.20203
929.89         72.3763
930.28        71.55467
930.67        71.36268
931.07        71.89709
931.46        73.03521
931.85        74.25677
932.24        74.77578
932.64        74.40125
933.03        73.26009
933.42        71.82571
933.82        71.07598
934.21        71.26638
934.60        72.10294
934.99        72.84113
935.39         72.7177
935.78        71.62546
936.17         69.3088
936.56        66.17368
936.96        66.71112
937.35        66.21476
937.74        68.28831
938.13        70.46041
938.53        71.84622
938.92        72.32372
939.31        72.22015
939.70         71.7972
940.09        71.40372
940.49        71.24216
940.88         71.2158
941.27        71.33723
941.66        71.68259
942.05        72.21905
942.44        72.89869
942.84        73.66404
943.23        74.40813
943.62        75.03542
944.01        75.59421
944.40        75.84589
944.79        75.43004
945.18        74.31509
945.57        72.55764
945.97        70.79459
946.36        70.14684
946.75        70.93561
947.14        72.77378
947.53        74.74999
947.92        75.60265
948.31        75.11023
948.70        73.65317
949.09        71.85529
949.48         70.8161
949.87         70.8772
950.26        71.68591
950.65        72.77412
951.04        73.37244
951.43        73.23725
951.82        72.64851
952.21        71.87246
952.60        71.30081
952.99        71.07265
953.38         71.0371
953.77        71.11246
954.16        71.20448
954.55        71.25739
954.94        71.30584
955.33        71.35148
955.72        71.36872
956.11        71.35945
956.50        71.34316
956.89         71.2643
957.28        71.05066
957.66          70.741
958.05        70.31793
958.44        70.00088
958.83         70.0731
959.22        70.54471
959.61        71.33192
960.00        72.09837
960.39        72.23315
960.78        71.58529
961.16        70.33298
961.55        68.95789
961.94        68.07658
962.33        67.85854
962.72         68.1463
963.11        68.65922
963.49        68.92776
963.88        68.72932
964.27        68.25327
964.66        67.76419
965.04        67.68179
965.43        68.10059
965.82         68.8894
966.21        69.76115
966.60        70.26814
966.98        70.31337
967.37        70.00231
967.76         69.6703
968.15        69.83758
968.53        70.61227
968.92        71.71608
969.31        72.79354
969.69        73.26394
970.08        72.90833
970.47        71.95883
970.86        70.63974
971.24         69.2787
971.63        68.09867
972.02        67.07103
972.40        66.25723
972.79        65.76798
973.17        65.65164
973.56        65.81462
973.95        66.31255
974.33        67.17099
974.72        68.19012
975.11        69.30414
975.49        70.14222
975.88        70.16645
976.26        69.32704
976.65        67.82792
977.04        66.10806
977.42        64.95477
977.81         64.6282
978.19        64.89767
978.58        65.57698
978.96        66.33797
979.35        66.94289
979.74        67.61229
980.12        68.14538
980.51        67.93324
980.89        67.06986
981.28        65.66187
981.66        64.41775
982.05        64.37506
982.43        65.62414
982.82        67.81746
983.20        70.28229
983.59         71.4698
983.97        71.00682
984.35        69.25583
984.74        66.97474
985.12        65.26945
985.51        64.48304
985.89        64.28734
986.28        64.45184
986.66        64.60336
987.04        64.51381
987.43        64.46417
987.81        64.28365
988.20        63.68941
988.58        62.56748
988.96        60.73107
989.35        58.60312
989.73        57.62169
990.12        58.42498
990.50        60.64729
990.88        62.91883
991.27        63.66975
991.65        62.89484
992.03        60.98907
992.42        58.99488
992.80        58.91674
993.18        61.26704
993.56        65.06381
993.95         68.9613
994.33        71.55161
994.71        72.35856
995.10        71.88448
995.48        70.62151
995.86        69.20237
996.24        67.89927
996.63        66.56104
997.01        65.14291
997.39        63.82048
997.77        62.83257
998.15        62.29591
998.54         62.3619
998.92        63.14208
999.30        64.66185
999.68        67.10482
1000.06        69.80529
1000.45        70.41965
1000.83        68.14471
1001.21        64.12187
1001.59         60.3278
1001.97        58.25692
1002.35        57.77655
1002.73        58.42521
1003.12        59.65127
1003.50        60.31673
1003.88        59.82269
1004.26        58.64051
1004.64        57.30116
1005.02        56.49997
1005.40        56.44054
1005.78        56.83263
1006.16        57.64219
1006.54        58.77252
1006.92        59.87681
1007.30        60.78198
1007.69         61.2751
1008.07        61.29699
1008.45        60.75592
1008.83        59.63451
1009.21        57.48701
1009.59        53.94743
1009.97        49.55772
1010.35        45.07043
1010.73        42.54512
1011.11        43.68342
1011.49        47.94336
1011.86        54.55451
1012.24        60.42835
1012.62        62.65543
1013.00        61.06734
1013.38        56.71221
1013.76        51.44352
1014.14        48.56215
1014.52        49.03585
1014.90        51.90033
1015.28        55.41531
1015.66        56.63585
1016.04        54.55429
1016.41        49.84719
1016.79        43.82586
1017.17        39.96337
1017.55        39.85252
1017.93        42.08157
1018.31        44.98326
1018.69        47.09285
1019.06        48.14462
1019.44        48.37028
1019.82        47.91083
1020.20        46.89974
1020.58        45.46801
1020.95        43.67252
1021.33        40.96653
1021.71        35.53655
1022.09        25.53799
1022.46        6.276391
1022.84       -23.23087
1023.22       -35.04975
1023.60       -11.13914
1023.97        18.38186
1024.35        36.03194
1024.73        42.98079
