SpectraSmart Spectrum 2.9.0.0
--------- Device Information -----------
Spectrum Name :  反射率_0
Saving Time :  2024/04/19 23:51:38
Spectro-Module Model Name : SE2030-DUVN
Spectro-Module Serial Number : OS361AC55029948
Wavelength Start : 200
Wavelength End : 1025
Wavelength Unit : Wavelength(nm)
Spectrum Unit : Reflectance(%)
-----------Spectrum Setting ------------
Integration Time : 30ms
Average : 10
Boxcar : 0
Background removal :  enabled
linearity correction :  enabled
SC :  disabled
Intensity correction :  disabled
DWT denoise :  enabled
savitzky-golay :  disabled
FFT :  disabled
Running average :  disabled
Kalman :  disabled
High pass :  disabled
---------------BEGIN--------------------
Wavelength(nm)             Reflectance(%)
200.29               0
200.75        66.29059
201.21        68.57642
201.67        74.17336
202.13        82.83193
202.58        93.97685
203.04        108.0512
203.50        120.4364
203.96        120.8588
204.42        110.1636
204.88        95.56541
205.34        83.52225
205.80        77.04325
206.26        74.91883
206.72        75.82912
207.18        79.94797
207.64        85.29711
208.10        88.64069
208.55        90.47063
209.01        89.80439
209.47         87.0395
209.93        83.02707
210.39        77.93582
210.85         73.4098
211.31        71.38214
211.77        71.96844
212.23        75.00679
212.69        79.77486
213.14        82.52554
213.60        81.10004
214.06         78.2605
214.52        75.95919
214.98        75.37771
215.44        76.32714
215.90        78.01331
216.36         80.6955
216.81        84.51541
217.27        88.67545
217.73        93.11372
218.19        96.07072
218.65        95.19348
219.11        90.32534
219.57        81.68625
220.02        71.83443
220.48        67.69389
220.94        71.60096
221.40         82.0004
221.86        94.50939
222.32         102.339
222.77        103.6426
223.23        100.7154
223.69        95.95969
224.15        92.91985
224.61        92.45818
225.06        93.16467
225.52         94.2896
225.98        95.16451
226.44        95.70039
226.90        96.18834
227.36        96.90742
227.81        97.97356
228.27        99.47733
228.73        101.0251
229.19         102.003
229.65        101.7708
230.10        100.4256
230.56        98.62075
231.02        96.95866
231.48        96.31622
231.93        96.63232
232.39        97.55811
232.85        98.57374
233.31        98.96917
233.77        98.54079
234.22         97.5928
234.68        96.13072
235.14        94.12868
235.60        91.80894
236.05        89.26398
236.51        87.05539
236.97         85.9819
237.43        86.20974
237.88        87.94926
238.34        90.50493
238.80        92.33652
239.26         92.2195
239.71        90.40031
240.17        87.37511
240.63        84.59815
241.08        82.59231
241.54        80.93332
242.00        79.47241
242.46        77.71451
242.91         75.3474
243.37        72.03563
243.83        68.27162
244.28        67.09922
244.74        70.88873
245.20         78.4398
245.66        85.27753
246.11        88.37019
246.57        87.45463
247.03        82.61776
247.48        74.29259
247.94         69.2268
248.40        70.08257
248.85        73.01242
249.31        75.36521
249.77         76.0488
250.22        75.24688
250.68        73.38296
251.14        70.91235
251.59         68.9874
252.05        68.55789
252.51        69.69041
252.96        71.29321
253.42         71.5491
253.88        70.32489
254.33        68.48508
254.79        68.34823
255.25        71.97324
255.70        78.62094
256.16         86.4623
256.62        93.32861
257.07        96.86102
257.53        97.25855
257.99         95.6501
258.44         92.4627
258.90        89.24622
259.35        86.32816
259.81        84.42554
260.27        83.27835
260.72        82.72195
261.18        82.90417
261.63          83.144
262.09        83.82977
262.55        84.78095
263.00        85.65059
263.46        86.58918
263.91        86.79417
264.37        85.83618
264.83        83.76204
265.28          80.851
265.74        78.16756
266.19         76.5831
266.65        76.35454
267.11        76.97076
267.56        77.78405
268.02        77.91577
268.47        77.14759
268.93        75.79804
269.38        74.19949
269.84        73.10152
270.30        72.67105
270.75        72.65438
271.21         72.7212
271.66        72.35705
272.12        71.45006
272.57        70.14583
273.03        68.74786
273.48        67.60027
273.94        66.86404
274.39        66.35493
274.85        65.90084
275.31        65.14748
275.76        64.00533
276.22         62.6594
276.67        61.27651
277.13        60.27768
277.58         59.6395
278.04        59.28582
278.49        58.90187
278.95        58.19801
279.40        57.05871
279.86        55.73404
280.31         54.3481
280.77        53.28844
281.22        52.52981
281.68        52.01685
282.13        51.58265
282.59        51.08765
283.04        50.45773
283.50        49.79943
283.95        49.12344
284.41        48.53037
284.86        47.99142
285.32         47.5105
285.77        47.03897
286.22        46.60801
286.68        46.22522
287.13        45.85327
287.59         45.4881
288.04        45.04218
288.50        44.53605
288.95         43.9448
289.41        43.34576
289.86         42.7673
290.32        42.27663
290.77        41.84182
291.22        41.46925
291.68        41.12848
292.13        40.80836
292.59         40.5543
293.04        40.38092
293.50        40.34257
293.95        40.43066
294.40        40.61272
294.86         40.8715
295.31        41.18824
295.77        41.54326
296.22        41.93206
296.68        42.29273
297.13        42.51017
297.58        42.57631
298.04        42.53224
298.49        42.48136
298.95         42.6324
299.40        43.00451
299.85        43.53354
300.31        44.10035
300.76        44.50512
301.21        44.70396
301.67        44.78904
302.12        44.79333
302.58        44.84337
303.03        44.94007
303.48        45.06339
303.94        45.23766
304.39        45.45634
304.84        45.71966
305.30        46.02125
305.75        46.27971
306.20        46.39936
306.66        46.38529
307.11        46.24615
307.57        46.06706
308.02         45.8938
308.47        45.77062
308.93        45.67487
309.38        45.59459
309.83        45.56762
310.29        45.58422
310.74        45.63945
311.19        45.64707
311.65        45.46564
312.10        45.07602
312.55        44.52688
313.00        43.97134
313.46        43.64428
313.91        43.57521
314.36        43.70796
314.82        43.88872
315.27         43.8913
315.72        43.64528
316.18        43.23715
316.63        42.77567
317.08        42.43969
317.53        42.27142
317.99        42.20105
318.44        42.16174
318.89        42.03768
319.35        41.79332
319.80        41.47001
320.25        41.10932
320.70        40.77442
321.16        40.48201
321.61        40.21992
322.06        39.95892
322.51          39.659
322.97        39.30733
323.42        38.93113
323.87        38.56478
324.32         38.2666
324.78        38.04443
325.23        37.89379
325.68        37.76157
326.13        37.56684
326.59        37.28813
327.04        36.96933
327.49         36.6613
327.94        36.45475
328.39        36.36887
328.85        36.35215
329.30        36.39302
329.75        36.41151
330.20        36.37513
330.66        36.28505
331.11        36.15925
331.56        35.96673
332.01        35.71049
332.46        35.39486
332.92        35.05971
333.37        34.79269
333.82        34.62279
334.27        34.55449
334.72        34.55087
335.17        34.54105
335.63        34.48937
336.08        34.40978
336.53        34.35428
336.98        34.42921
337.43        34.64054
337.88        34.95104
338.34        35.18576
338.79        35.11194
339.24        34.67356
339.69        33.95086
340.14        33.19397
340.59        32.82264
341.05        32.92871
341.50         33.3933
341.95        33.96604
342.40         34.2533
342.85        34.16109
343.30        33.82675
343.75        33.40413
344.20        33.14449
344.66        33.11888
345.11         33.2032
345.56        33.36076
346.01        33.53992
346.46        33.69259
346.91        33.85027
347.36        33.90229
347.81        33.66379
348.26        33.13905
348.72        32.42484
349.17        31.70602
349.62         31.3685
350.07        31.50344
350.52        31.97632
350.97        32.60916
351.42        33.13299
351.87        33.44611
352.32        33.60583
352.77        33.60268
353.22        33.42789
353.67        33.10909
354.13        32.66908
354.58        32.16675
355.03        31.74554
355.48        31.45669
355.93        31.29281
356.38        31.23963
356.83        31.25528
357.28        31.31111
357.73        31.40059
358.18        31.49866
358.63        31.56527
359.08        31.57697
359.53        31.52944
359.98        31.39829
360.43        31.15676
360.88        30.81457
361.33        30.39117
361.78        29.95823
362.23         29.6325
362.68        29.44336
363.13        29.35899
363.58        29.31524
364.03         29.2057
364.48        28.99557
364.93        28.70989
365.38        28.37511
365.83         28.0421
366.28        27.73485
366.73         27.4421
367.18        27.16126
367.63         26.8878
368.08        26.62475
368.53         26.3866
368.98        26.18138
369.43        26.01251
369.88        25.87926
370.33        25.77689
370.78        25.69933
371.23        25.63993
371.68        25.59285
372.13        25.55131
372.58        25.51328
373.03        25.47991
373.48        25.44429
373.93        25.39694
374.38        25.32297
374.83         25.2012
375.28        25.02758
375.72        24.80271
376.17         24.5619
376.62        24.31947
377.07        24.09415
377.52         23.8918
377.97         23.7257
378.42        23.61367
378.87        23.55128
379.32        23.52221
379.77        23.51324
380.22         23.5017
380.67        23.47718
381.11        23.45281
381.56        23.38655
382.01        23.23346
382.46        22.99185
382.91        22.66852
383.36        22.35891
383.81        22.20561
384.26        22.23129
384.71        22.40888
385.15        22.58855
385.60        22.54362
386.05        22.23755
386.50        21.74042
386.95        21.25723
387.40         21.1122
387.85        21.35208
388.29        21.84421
388.74        22.35268
389.19        22.53483
389.64        22.32594
390.09        21.83527
390.54        21.25365
390.98        20.87896
391.43        20.81181
391.88        20.94403
392.33        21.12771
392.78        21.15181
393.23        20.98103
393.67        20.68497
394.12        20.41057
394.57        20.28535
395.02        20.33436
395.47        20.50339
395.91         20.7026
396.36        20.75803
396.81        20.63398
397.26        20.38424
397.71        20.11596
398.15         19.9687
398.60        19.99516
399.05        20.13472
399.50        20.29186
399.95        20.33152
400.39        20.22471
400.84        20.00708
401.29        19.77385
401.74        19.69671
402.18        19.82158
402.63        20.08133
403.08         20.3398
403.53        20.38298
403.97        20.17102
404.42        19.78884
404.87        19.38002
405.32        19.17928
405.76         19.2404
406.21        19.48157
406.66        19.78281
407.11        19.95658
407.55        19.95269
408.00        19.83777
408.45        19.66629
408.90        19.48237
409.34        19.34339
409.79        19.31979
410.24        19.37848
410.68        19.38961
411.13        19.34579
411.58         19.3281
412.03        19.33038
412.47        19.31159
412.92         19.2657
413.37        19.19338
413.81        19.13984
414.26        19.19222
414.71        19.35177
415.15        19.59941
415.60        19.81815
416.05        19.84425
416.49        19.64206
416.94        19.27192
417.39        18.86284
417.83        18.62152
418.28        18.60875
418.73        18.75712
419.17        18.97062
419.62        19.08774
420.07        19.06814
420.51        18.96234
420.96        18.82911
421.41        18.73737
421.85        18.70154
422.30        18.70364
422.74        18.71904
423.19        18.74699
423.64        18.77241
424.08        18.81109
424.53        18.83156
424.98        18.80843
425.42        18.74413
425.87        18.65169
426.31        18.55081
426.76        18.48046
427.21        18.43934
427.65        18.40684
428.10        18.40405
428.54        18.43817
428.99        18.50763
429.44        18.68892
429.88        18.86763
430.33        18.74161
430.77        18.37683
431.22        18.15031
431.66        18.12379
432.11         18.1834
432.56        18.30839
433.00        18.58099
433.45        18.81317
433.89        18.73095
434.34        18.45546
434.78        18.17209
435.23        17.87141
435.67        18.75862
436.12         18.2105
436.57        18.17717
437.01        17.95127
437.46        17.86567
437.90        17.93325
438.35        17.99942
438.79        18.03086
439.24        18.05503
439.68        18.06273
440.13        17.90074
440.57         17.6656
441.02        17.79956
441.46        18.13301
441.91        18.11378
442.35        17.34272
442.80        17.06042
443.24        17.09287
443.69        17.05447
444.13        16.91754
444.58        16.82981
445.02        16.79683
445.47        16.82619
445.91        16.88097
446.36        16.86197
446.80        16.75274
447.24        16.60237
447.69        16.46034
448.13         16.3673
448.58        16.34312
449.02        16.37008
449.47        16.41159
449.91        16.40143
450.36        16.33172
450.80         16.2234
451.25        16.12125
451.69        16.07618
452.13        16.10542
452.58        16.18138
453.02        16.28086
453.47        16.36994
453.91        16.43719
454.36        16.49198
454.80        16.52571
455.24        16.52337
455.69        16.49162
456.13        16.41453
456.58        16.33667
457.02        16.31708
457.46        16.36199
457.91        16.41805
458.35        16.45282
458.79        16.45703
459.24        16.42075
459.68        16.35461
460.13        16.33032
460.57        16.30254
461.01        16.26359
461.46        16.64326
461.90        16.77283
462.34        16.62995
462.79        16.75939
463.23        16.60852
463.68        16.45885
464.12        16.33134
464.56        16.37823
465.01        16.47276
465.45        16.56853
465.89        16.61354
466.34        16.60078
466.78        16.49455
467.22        16.35848
467.67        16.41061
468.11        16.61745
468.55        16.64543
468.99        16.50562
469.44        16.48793
469.88        16.59958
470.32         16.6708
470.77        16.67723
471.21        16.66702
471.65         16.6383
472.10        16.58069
472.54         16.5127
472.98        16.50038
473.42        16.55083
473.87        16.59856
474.31        16.63032
474.75        16.72509
475.20        16.84226
475.64        16.80595
476.08        16.66615
476.52        16.64775
476.97        16.76344
477.41        16.90756
477.85        17.03109
478.29        17.10546
478.74        17.11804
479.18        17.04782
479.62        16.96167
480.06        16.96982
480.50        17.06921
480.95        17.14814
481.39        17.17099
481.83        17.16708
482.27         17.1293
482.72        17.04403
483.16        16.95043
483.60        16.90457
484.04        16.91408
484.48         17.0643
484.93        17.34529
485.37        17.38873
485.81        17.38997
486.25        17.85332
486.69        18.07209
487.14        17.98726
487.58        17.99666
488.02        18.35732
488.46        18.04612
488.90        17.93072
489.34        17.76314
489.79        17.81849
490.23        18.05356
490.67        18.27198
491.11         18.3924
491.55        18.30877
491.99        18.07841
492.43        17.97375
492.88        18.03365
493.32         18.0787
493.76        18.10886
494.20        18.21284
494.64        18.38816
495.08        18.60212
495.52        18.82062
495.96        19.00514
496.41        19.14398
496.85        19.21294
497.29        19.23601
497.73        19.34397
498.17        19.51838
498.61        19.55373
499.05        19.48371
499.49        19.56113
499.93        19.80375
500.37        20.02939
500.82        20.20918
501.26        20.46455
501.70        20.73166
502.14        20.74587
502.58        20.55912
503.02        20.48942
503.46         20.5663
503.90        20.62906
504.34        20.65121
504.78        20.65894
505.22        20.64727
505.66        20.62103
506.10         20.6002
506.54        20.61034
506.98        20.66038
507.42        20.74452
507.86        20.85324
508.30        20.97108
508.74        21.08659
509.18        21.19408
509.62        21.29456
510.06         21.3903
510.50        21.48167
510.94        21.57367
511.38        21.63955
511.82        21.63855
512.26        21.56877
512.70        21.44022
513.14        21.32489
513.58        21.33154
514.02         21.4713
514.46         21.7159
514.90        21.96329
515.34        21.98905
515.78        21.79204
516.22        21.49964
516.66        21.25535
517.10        20.94326
517.54        20.60591
517.98        21.32853
518.42        21.37197
518.86        21.69283
519.30        21.75069
519.74        21.74445
520.18        21.69724
520.62        21.62328
521.06        21.55842
521.50        21.47839
521.93        21.39299
522.37        21.32996
522.81        21.29361
523.25        21.28608
523.69        21.29622
524.13        21.30141
524.57        21.29308
525.01        21.27119
525.45        21.24411
525.89        21.22652
526.32        21.21964
526.76        21.22162
527.20        21.20914
527.64        21.15003
528.08        21.04025
528.52        20.88824
528.96        20.73802
529.40        20.65495
529.83        20.65025
530.27        20.71225
530.71        20.77805
531.15        20.74859
531.59        20.60901
532.03        20.39353
532.46        20.18109
532.90        20.11228
533.34        20.20387
533.78        20.40281
534.22        20.62369
534.66         20.7366
535.09        20.70521
535.53        20.58002
535.97        20.40715
536.41        20.25665
536.85        20.15763
537.28        20.10043
537.72        20.09025
538.16        20.07358
538.60        20.14237
539.04        20.21139
539.47        20.28692
539.91        20.38426
540.35        20.50863
540.79        20.47783
541.22        20.55891
541.66        20.61179
542.10        20.73412
542.54        20.59177
542.97        20.73367
543.41        20.78186
543.85         20.8875
544.29        20.99885
544.72         21.0923
545.16        21.19058
545.60        21.28549
546.04        21.30691
546.47        21.31968
546.91        21.56104
547.35        21.97436
547.79        22.27127
548.22        22.40607
548.66         22.4619
549.10        22.48009
549.53        22.61724
549.97        22.88512
550.41        22.88542
550.84         23.0418
551.28        23.13201
551.72        23.30535
552.15        23.49652
552.59        23.70101
553.03        24.00047
553.46        24.20595
553.90        24.36853
554.34        24.43577
554.77        24.43077
555.21        24.41273
555.65        24.44394
556.08          24.578
556.52        24.75656
556.96        24.94024
557.39        25.08168
557.83        25.15577
558.27        25.11939
558.70        25.02463
559.14        25.00333
559.57        25.06816
560.01        25.19596
560.45        25.32911
560.88        25.34622
561.32        25.28718
561.75        25.24615
562.19        25.34807
562.63        25.42546
563.06        25.50752
563.50        25.64281
563.93        25.80387
564.37        25.99696
564.80        26.08981
565.24        26.19909
565.68        26.27484
566.11        26.33745
566.55        26.41123
566.98        26.41994
567.42        26.37708
567.85        26.68673
568.29         26.6432
568.72        26.94543
569.16        27.31165
569.60        27.57245
570.03        27.69017
570.47        27.77552
570.90        27.72122
571.34        28.08688
571.77         27.9765
572.21        28.35697
572.64        28.42711
573.08        28.82554
573.51        28.87319
573.95        29.48256
574.38        29.69242
574.82        29.87446
575.25        29.83203
575.69        29.66022
576.12         29.5963
576.56        29.59794
576.99        29.74625
577.42        29.74845
577.86        29.76351
578.29         29.7159
578.73        30.27867
579.16        29.94246
579.60        29.86788
580.03        29.47183
580.47        29.70743
580.90        29.49544
581.33        29.37067
581.77         29.3071
582.20        29.54819
582.64        29.19358
583.07         29.2622
583.51        29.12959
583.94         28.6603
584.37        28.58444
584.81        28.19305
585.24        28.05678
585.68        27.96007
586.11        27.90787
586.54         27.9073
586.98        27.75403
587.41        27.85855
587.85        27.80137
588.28        27.68194
588.71        27.55746
589.15        27.51798
589.58        27.12556
590.01         27.3455
590.45        27.72644
590.88        27.48416
591.31        27.38668
591.75         27.1398
592.18        27.27651
592.61        27.16351
593.05         27.5287
593.48        27.20923
593.91        28.10584
594.35        27.61458
594.78        27.84083
595.21        27.99656
595.65         28.2838
596.08        28.16907
596.51        28.18261
596.94        28.25948
597.38         28.3973
597.81        28.63412
598.24        28.90785
598.68        29.36264
599.11        29.59071
599.54        30.30865
599.97        30.15318
600.41        30.55571
600.84        31.08307
601.27        31.57339
601.70        31.99213
602.14        32.21219
602.57        32.62374
603.00        33.16685
603.43        33.79483
603.87        33.94778
604.30         34.3432
604.73        34.83392
605.16         35.3311
605.60         35.8179
606.03        36.33788
606.46        36.78669
606.89        37.45903
607.32        37.90572
607.76        38.26913
608.19        38.57301
608.62        39.13228
609.05        39.32613
609.48        39.64169
609.92        39.91094
610.35        40.29146
610.78        40.98287
611.21        41.73377
611.64        41.73218
612.07        42.02731
612.50        42.63657
612.94        42.56835
613.37        43.22614
613.80        43.56095
614.23        43.97349
614.66        44.40176
615.09        44.84114
615.52        45.30309
615.96        45.70803
616.39        46.04635
616.82        46.35577
617.25        46.37381
617.68        46.62823
618.11        47.10769
618.54        47.60612
618.97        47.80821
619.40        47.67553
619.84        47.57656
620.27        47.43537
620.70        47.86901
621.13        48.66857
621.56        49.00159
621.99        48.93279
622.42        49.00174
622.85        49.29779
623.28        49.39888
623.71        49.29501
624.14         49.5631
624.57        49.58156
625.00        49.22529
625.43        49.59329
625.86        48.92604
626.29        48.98183
626.72        48.71325
627.15        48.57442
627.58        48.42516
628.01        48.18983
628.44        48.04845
628.87        48.03311
629.30        47.20742
629.73        46.85778
630.16        46.90685
630.59        46.13054
631.02        45.76569
631.45         45.3806
631.88        44.93972
632.31        44.42162
632.74        43.91819
633.17        43.45731
633.60        42.74633
634.03        42.25548
634.46        41.62706
634.89        41.01386
635.32        40.42723
635.75        39.88205
636.18         39.3754
636.61        38.89973
637.04        38.44925
637.47        38.01371
637.89        37.59472
638.32        37.18567
638.75        36.79298
639.18        36.41961
639.61        36.09412
640.04        35.75657
640.47        35.41576
640.90        35.05789
641.33        34.69613
641.76         34.3685
642.18        34.14075
642.61        34.01934
643.04        33.98261
643.47         33.9906
643.90        33.97551
644.33        33.92042
644.76        33.85294
645.18        33.78976
645.61        33.76141
646.04        33.78298
646.47        33.84302
646.90        33.97049
647.33          34.212
647.75        34.56966
648.18        35.02652
648.61        35.51796
649.04        35.93568
649.47        36.26064
649.89        36.52447
650.32        36.80484
650.75        37.23445
651.18        37.85699
651.61        38.59361
652.03        39.38803
652.46        40.30506
652.89        41.27135
653.32        41.79209
653.74        41.98418
654.17        42.88423
654.60         43.6546
655.03        44.74991
655.46        44.81341
655.88        46.13784
656.31        47.58917
656.74        52.71944
657.16        52.78591
657.59        51.17396
658.02        50.61547
658.45        50.49099
658.87        51.34167
659.30        51.95806
659.73        52.56494
660.15        53.68748
660.58        53.60314
661.01        53.78045
661.44        53.88418
661.86        54.36428
662.29        55.17982
662.72        56.00101
663.14        56.69558
663.57        56.92422
664.00        56.93453
664.42        57.13303
664.85        57.62707
665.27        58.06848
665.70        58.41047
666.13        58.77279
666.55        59.14875
666.98        59.50456
667.41        59.83034
667.83        60.10017
668.26        60.30171
668.69        60.45393
669.11        60.59537
669.54        60.76685
669.96        60.98673
670.39         61.2983
670.82        61.67176
671.24        61.92031
671.67        62.09276
672.09        62.46555
672.52        62.96911
672.94        63.32941
673.37        63.46685
673.80          63.285
674.22        62.93809
674.65        62.84547
675.07          63.081
675.50        63.42736
675.92        63.78224
676.35        64.00008
676.77        64.03709
677.20        64.04794
677.62        63.92383
678.05        63.93882
678.47        64.06544
678.90        64.26371
679.32        64.51102
679.75        64.76025
680.17        64.98371
680.60         65.2599
681.02         65.5413
681.45        65.56867
681.87        65.44894
682.30        65.53073
682.72        65.79622
683.15        66.00408
683.57        65.91661
684.00        65.88599
684.42        66.00824
684.85        66.18174
685.27         66.4379
685.70        66.77793
686.12        67.12089
686.54        67.35639
686.97         67.4523
687.39        67.43421
687.82        67.35463
688.24        67.35258
688.66        67.44579
689.09         67.5603
689.51        67.67392
689.94         67.7626
690.36        67.83527
690.78        67.85123
691.21        67.83288
691.63        67.98062
692.06        68.33549
692.48        68.33791
692.90        68.60468
693.33        69.09055
693.75        68.87587
694.17        68.94884
694.60        69.01938
695.02         68.8476
695.44        68.80716
695.87        68.82253
696.29        68.98148
696.71        68.80551
697.14        68.52513
697.56        68.96682
697.98        69.88223
698.41        70.68272
698.83        70.53647
699.25        70.04467
699.68        70.19826
700.10        70.13167
700.52        70.22015
700.94        70.44527
701.37        70.71819
701.79        70.91319
702.21        70.96011
702.64        70.90726
703.06        70.82343
703.48        70.85489
703.90        71.03643
704.33        71.21647
704.75         71.5308
705.17        71.62351
705.59        71.51488
706.01        71.44568
706.44        71.21237
706.86        71.25185
707.28        71.50159
707.70        71.92446
708.12        72.39674
708.55        72.70526
708.97        72.80184
709.39        72.76672
709.81        72.65689
710.23        72.56458
710.66        72.53286
711.08          72.547
711.50        72.62039
711.92         72.7135
712.34        72.80765
712.76        73.06328
713.19        73.46986
713.61        73.25127
714.03        73.67721
714.45        73.65964
714.87        73.60804
715.29        73.71119
715.71        74.03032
716.13         73.7927
716.56        74.21536
716.98        74.28826
717.40          74.354
717.82        74.39484
718.24        74.43292
718.66        74.47486
719.08        74.51409
719.50        74.55325
719.92        74.59558
720.34        74.65025
720.76        74.71574
721.19         74.7844
721.61        74.84361
722.03        74.84771
722.45        74.78865
722.87        74.69535
723.29         74.6118
723.71        74.60964
724.13        74.71047
724.55        74.89899
724.97        75.16045
725.39        75.42425
725.81        75.65551
726.23         75.9315
726.65        76.26211
727.07        76.25796
727.49        76.57169
727.91        76.66449
728.33        76.72462
728.75        76.72791
729.17        76.69279
729.59        76.63602
730.01        76.56934
730.43        76.55299
730.85        76.60876
731.27        76.62767
731.69         76.6377
732.10        76.93465
732.52        77.44554
732.94        77.46853
733.36        77.30444
733.78        77.26714
734.20        77.57236
734.62        76.99612
735.04        76.81733
735.46        77.21618
735.88        77.04262
736.30        76.67874
736.72        76.98775
737.13        77.30412
737.55        77.82313
737.97        78.27991
738.39        78.49036
738.81        78.19326
739.23        77.66953
739.65        77.45014
740.06        77.37825
740.48        78.49686
740.90        78.35655
741.32        77.22691
741.74        77.35817
742.16        77.23784
742.57        77.46735
742.99        77.85645
743.41        78.23026
743.83        78.48479
744.25        78.53537
744.67        78.42118
745.08        78.21472
745.50         78.0062
745.92        77.85793
746.34         77.7446
746.75         77.6659
747.17        77.61407
747.59        77.58719
748.01        77.63354
748.42        77.75072
748.84        77.83672
749.26        77.91376
749.68        78.06873
750.09        78.33521
750.51        78.55787
750.93        78.62112
751.35        78.74765
751.76        79.05843
752.18        77.93064
752.60        78.52197
753.01        78.42048
753.43        78.19284
753.85        78.14442
754.27        78.14884
754.68        78.79119
755.10        79.02521
755.52        78.89912
755.93         78.5911
756.35        78.38132
756.77        78.46856
757.18        78.56326
757.60        78.75586
758.02        79.19643
758.43        79.66047
758.85        80.05753
759.26        80.30704
759.68        79.29655
760.10        79.22009
760.51        78.95078
760.93        79.15231
761.34        78.67612
761.76         78.7076
762.18         78.5257
762.59        78.52552
763.01        78.65457
763.42        78.93197
763.84        79.18797
764.26        79.41615
764.67        79.42084
765.09         79.3703
765.50        79.86717
765.92        80.73284
766.33        80.91534
766.75        80.33809
767.16        79.92686
767.58        79.73033
768.00        79.18948
768.41        78.56087
768.83        78.65508
769.24        79.38039
769.66        80.08711
770.07        80.51642
770.49        80.40147
770.90        79.92955
771.32        80.03233
771.73        80.63748
772.15        80.75203
772.56        80.37943
772.97        80.08545
773.39        79.89791
773.80        79.92771
774.22        79.78322
774.63        79.46694
775.05        79.02831
775.46        79.02805
775.88        79.48643
776.29        80.17477
776.70        80.82209
777.12        81.10065
777.53        80.92934
777.95        80.36868
778.36        79.70877
778.77        79.44912
779.19        79.71101
779.60        80.39649
780.02        81.16301
780.43        81.64754
780.84        81.74133
781.26        81.14618
781.67        80.28331
782.09        80.86093
782.50        82.47376
782.91        82.55457
783.33        81.22976
783.74        80.85777
784.15        81.50871
784.57        81.90746
784.98        81.88088
785.39        81.55004
785.81        81.00782
786.22        80.69551
786.63        80.66274
787.04        80.57291
787.46        80.45124
787.87        80.54369
788.28        80.83753
788.70        81.15275
789.11        81.44357
789.52        81.74144
789.93        82.00489
790.35        82.23425
790.76        82.27534
791.17        82.24238
791.58         82.1228
792.00        81.87009
792.41        81.54365
792.82        81.43407
793.23        81.41547
793.65        80.98083
794.06        80.44232
794.47        80.49581
794.88        80.93816
795.29        82.91991
795.71        82.40331
796.12        82.79147
796.53        83.16624
796.94        82.48527
797.35        81.16642
797.76        80.85748
798.18        81.58401
798.59         81.8596
799.00        81.61991
799.41        81.83101
799.82        82.42283
800.23        82.75138
800.64        82.74406
801.06        82.55027
801.47        82.31534
801.88        82.20908
802.29        82.27371
802.70        82.40519
803.11        82.53625
803.52        82.55831
803.93        82.45831
804.34        82.36835
804.75        82.25439
805.17        82.02563
805.58        81.81094
805.99        81.51889
806.40        81.32288
806.81        82.15479
807.22        83.58543
807.63        83.62643
808.04        82.47454
808.45        82.15118
808.86        82.84837
809.27        83.58709
809.68        84.15309
810.09        84.53563
810.50        84.62603
810.91        84.50588
811.32        84.27374
811.73        83.93526
812.14        83.52378
812.55        83.29259
812.96        83.19337
813.37        82.56484
813.78        81.68207
814.19        81.85538
814.60        82.85987
815.01        83.27638
815.42        83.00665
815.83        82.78719
816.24        82.75468
816.65        82.80172
817.05        82.97696
817.46        83.24518
817.87        83.52246
818.28        83.63767
818.69        83.57326
819.10        83.38465
819.51        83.17398
819.92        83.20939
820.33        83.56306
820.74        83.89378
821.14        84.16963
821.55        84.89964
821.96        85.77254
822.37        85.48251
822.78        84.25855
823.19         83.6929
823.60        83.94927
824.00        84.19724
824.41        84.24783
824.82        84.29663
825.23        84.30038
825.64        84.24089
826.04        84.18832
826.45        84.19678
826.86        84.29536
827.27        84.45425
827.68        84.65199
828.08        84.88308
828.49         85.0612
828.90        85.21563
829.31        85.31063
829.72        85.28603
830.12        85.15472
830.53        84.90853
830.94        84.60702
831.35        84.30379
831.75        84.05597
832.16        83.82582
832.57        83.67421
832.97        83.67268
833.38        83.80008
833.79        84.01826
834.20        84.27649
834.60        84.48775
835.01        84.63474
835.42         84.7488
835.82        84.77746
836.23        84.58007
836.64        84.18462
837.04        83.63141
837.45        83.13232
837.86        83.08126
838.26        83.56611
838.67        84.43983
839.08        85.39937
839.48        85.86047
839.89        85.65675
840.29        84.99917
840.70         84.2384
841.11        83.80785
841.51        83.84584
841.92        84.15076
842.33        84.67036
842.73        85.32453
843.14        85.92695
843.54        86.57322
843.95        87.03544
844.35        87.02631
844.76        86.52364
845.17        85.63995
845.57        84.67303
845.98        84.11613
846.38        84.09138
846.79        84.47458
847.19        85.14207
847.60        85.69166
848.00        86.04178
848.41         86.2211
848.81        86.36752
849.22        86.60835
849.62        87.02454
850.03        87.49635
850.43        87.94693
850.84        88.12936
851.24        88.04622
851.65         87.6989
852.05          87.307
852.46        87.10484
852.86        87.16263
853.27        87.41627
853.67         87.6442
854.07        87.70215
854.48        87.49307
854.88         87.0237
855.29        86.40051
855.69        86.07319
856.10        86.05059
856.50        86.28177
856.90        86.58434
857.31        86.71205
857.71        86.66154
858.12        86.43522
858.52        86.17761
858.92        85.99587
859.33        85.89888
859.73        85.89053
860.13        85.90639
860.54        85.84982
860.94        85.77107
861.34        85.67194
861.75        85.53554
862.15          85.432
862.55        85.33864
862.96        85.25257
863.36        85.22371
863.76        85.29664
864.17        85.46089
864.57        85.70824
864.97        85.97306
865.38        86.13391
865.78        86.21082
866.18        86.15864
866.58        85.97759
866.99        85.69313
867.39        85.39014
867.79        85.05022
868.19        84.60992
868.60        83.93168
869.00         82.9866
869.40        81.87643
869.80        80.89248
870.21        80.50379
870.61        80.86699
871.01        81.76968
871.41        82.80885
871.81        83.34166
872.22        83.22205
872.62        82.67097
873.02        81.92171
873.42        81.49362
873.82        81.40884
874.22        81.18507
874.63        80.97183
875.03        81.17419
875.43        81.78546
875.83        83.27361
876.23        83.69962
876.63        83.58826
877.03        82.56506
877.44        80.65414
877.84         118.609
878.24        79.69781
878.64        80.63927
879.04        83.40729
879.44        81.78898
879.84        80.58788
880.24         82.6155
880.64        81.91991
881.04        79.16337
881.44        77.41376
881.84        77.31971
882.24        78.32503
882.65        79.75674
883.05        80.45334
883.45        80.01215
883.85        79.01278
884.25        78.01221
884.65        77.64753
885.05        78.08681
885.45        79.08441
885.85        80.22359
886.25        80.83472
886.65        80.72441
887.05        80.12753
887.45         79.3932
887.85        79.03085
888.25        79.18024
888.65        79.67967
889.04        80.33591
889.44        80.73771
889.84        80.78303
890.24         80.5772
890.64        80.26702
891.04        80.06655
891.44        80.00524
891.84        79.97505
892.24        79.85023
892.64        79.43708
893.04         78.7457
893.44        77.96167
893.83        77.16438
894.23        76.48534
894.63        75.95589
895.03        75.51443
895.43        75.34238
895.83        75.74448
896.23        76.71221
896.63        78.12524
897.02        79.51099
897.42        80.00452
897.82        79.43401
898.22        78.07791
898.62        76.47523
899.01         75.4581
899.41        75.28941
899.81        75.70398
900.21        76.46784
900.61        77.21819
901.00        77.80391
901.40        78.30821
901.80        78.72615
902.20        79.01754
902.59        79.18771
902.99        79.20858
903.39        79.05988
903.79        78.74281
904.18        78.28676
904.58         77.7561
904.98        77.34799
905.38        77.35598
905.77        77.80433
906.17        78.61948
906.57        79.47201
906.96        79.86684
907.36        79.65456
907.76        78.95889
908.15        78.14054
908.55        77.73078
908.95        77.87889
909.34        78.46964
909.74        79.09692
910.14        79.06223
910.53        78.21899
910.93        76.88831
911.33        75.64041
911.72        75.36547
912.12        76.20069
912.52        77.74963
912.91        79.48494
913.31        80.53434
913.70        80.71526
914.10        80.26975
914.49          79.368
914.89        78.42628
915.29        77.68275
915.68        77.04387
916.08        76.66568
916.47        76.72739
916.87        77.18203
917.26        77.97083
917.66        78.82092
918.05        79.30346
918.45        79.27289
918.84        78.89005
919.24        78.23349
919.64        77.46841
920.03        76.71204
920.42        75.94578
920.82        75.43925
921.21         75.5545
921.61        76.27328
922.00        77.53018
922.40        78.82603
922.79         79.5662
923.19        79.55382
923.58        78.80254
923.98        77.58494
924.37        76.90207
924.77        77.16407
925.16        75.70671
925.55        76.84027
925.95        76.79047
926.34        76.83764
926.74          76.923
927.13        77.14214
927.52        77.46634
927.92        77.85242
928.31        78.33967
928.70        78.81565
929.10        79.12545
929.49        79.23046
929.89        79.15198
930.28        79.04224
930.67        79.15083
931.07        79.49749
931.46        80.03699
931.85        80.55502
932.24        80.75239
932.64        80.55048
933.03        79.98557
933.42        79.21264
933.82        78.59245
934.21        78.24188
934.60        78.12629
934.99        77.95226
935.39        77.47042
935.78        76.66027
936.17        75.20943
936.56        73.32339
936.96        74.21283
937.35        74.05956
937.74        75.72606
938.13        77.39887
938.53        78.52766
938.92         79.0594
939.31        79.18842
939.70        79.05707
940.09        78.83615
940.49        78.64629
940.88        78.46607
941.27        78.37043
941.66        78.50354
942.05        78.86619
942.44        79.40534
942.84        80.03594
943.23        80.62415
943.62        81.07498
944.01        81.44154
944.40        81.58624
944.79        81.30459
945.18        80.58697
945.57        79.45606
945.97        78.32523
946.36        77.91483
946.75        78.43799
947.14        79.65012
947.53        80.95604
947.92        81.52463
948.31        81.21832
948.70        80.30301
949.09        79.19506
949.48        78.62498
949.87         78.8164
950.26        79.51795
950.65        80.44439
951.04        81.13148
951.43        81.40027
951.82        81.39272
952.21        81.16257
952.60        80.79517
952.99        80.34416
953.38        79.75696
953.77        79.12189
954.16        78.59137
954.55        78.21361
954.94        78.02621
955.33         77.9072
955.72        77.61501
956.11        77.11889
956.50        76.47949
956.89         75.9846
957.28         76.1624
957.66        77.08294
958.05        78.40276
958.44        79.68236
958.83        80.35387
959.22        80.30609
959.61        79.73198
960.00         78.7415
960.39        77.58176
960.78         76.4478
961.16        75.28863
961.55        74.38846
961.94        74.03818
962.33        74.26671
962.72        75.02959
963.11        75.97242
963.49         76.4673
963.88        76.24439
964.27        75.47988
964.66         74.5432
965.04        74.08007
965.43        74.25597
965.82        74.90611
966.21        75.69494
966.60        76.07574
966.98        75.92854
967.37         75.4075
967.76        74.89271
968.15         74.9588
968.53        75.73212
968.92        76.91702
969.31        78.12112
969.69        78.70648
970.08        78.44106
970.47        77.57748
970.86        76.39244
971.24        75.30006
971.63        74.53667
972.02        74.03774
972.40        73.79651
972.79        73.80536
973.17        74.06024
973.56        74.44691
973.95        75.04578
974.33        75.93766
974.72        76.93109
975.11        77.96022
975.49        78.59071
975.88        78.18009
976.26        76.69907
976.65        74.43082
977.04        71.99396
977.42        70.46642
977.81        70.18954
978.19         70.8604
978.58        72.15286
978.96         73.5009
979.35        74.55519
979.74        75.58015
980.12        76.35339
980.51        76.23931
980.89         75.3329
981.28        73.71817
981.66        72.19617
982.05        71.95852
982.43        73.12231
982.82        75.35923
983.20         77.8897
983.59        78.94437
983.97        78.13233
984.35        75.88142
984.74        73.21065
985.12        71.64344
985.51         71.6004
985.89        72.66297
986.28        74.22636
986.66        75.15224
987.04        74.90393
987.43        74.03608
987.81        72.79691
988.20        71.42274
988.58        69.90351
988.96        67.92592
989.35        65.80668
989.73        64.82599
990.12        65.51505
990.50        67.61113
990.88        69.84011
991.27         70.7275
991.65        70.25965
992.03        68.81483
992.42        67.24281
992.80        67.22433
993.18        69.19258
993.56        72.29649
993.95        75.54279
994.33        77.99107
994.71        79.22242
995.10         79.5727
995.48        79.20547
995.86        78.25893
996.24        76.88486
996.63        75.05149
997.01        72.92856
997.39        71.17247
997.77        70.22737
998.15        69.98012
998.54        70.45814
998.92        71.64056
999.30        73.55035
999.68        76.53716
1000.06         79.6767
1000.45         79.8728
1000.83         76.2903
1001.21        70.55296
1001.59        65.47668
1001.97         63.2346
1002.35        63.63173
1002.73        66.03264
1003.12        69.47478
1003.50        71.67548
1003.88        71.34842
1004.26        69.25581
1004.64        66.38329
1005.02        64.09688
1005.40        62.83091
1005.78        62.10081
1006.16        62.05061
1006.54         62.9854
1006.92        64.59187
1007.30        66.52878
1007.69        68.19672
1008.07          69.144
1008.45        69.32199
1008.83        68.86214
1009.21        67.47414
1009.59        65.00727
1009.97        61.91438
1010.35        58.59179
1010.73        56.76007
1011.11        58.04636
1011.49        62.00171
1011.86        67.88907
1012.24        73.01407
1012.62        74.83096
1013.00        73.23479
1013.38        69.29329
1013.76        64.45009
1014.14        61.29245
1014.52        60.66832
1014.90        61.76064
1015.28        63.70501
1015.66        65.02222
1016.04        65.14052
1016.41        64.63985
1016.79        63.39575
1017.17         61.4991
1017.55        59.43849
1017.93        57.28472
1018.31        55.74841
1018.69        55.54264
1019.06        56.55101
1019.44        58.51723
1019.82        60.68701
1020.20        61.09484
1020.58        58.98434
1020.95        54.91124
1021.33        50.11324
1021.71        45.61568
1022.09        41.20139
1022.46        35.01081
1022.84        27.64242
1023.22        26.88982
1023.60        35.48133
1023.97        44.69669
1024.35        49.60001
1024.73        50.95171
