SpectraSmart Spectrum 2.9.0.0
--------- Device Information -----------
Spectrum Name :  反射率_0
Saving Time :  2024/04/20 00:54:51
Spectro-Module Model Name : SE2030-DUVN
Spectro-Module Serial Number : OS361AC55029948
Wavelength Start : 200
Wavelength End : 1025
Wavelength Unit : Wavelength(nm)
Spectrum Unit : Reflectance(%)
-----------Spectrum Setting ------------
Integration Time : 30ms
Average : 10
Boxcar : 0
Background removal :  enabled
linearity correction :  enabled
SC :  disabled
Intensity correction :  disabled
DWT denoise :  enabled
savitzky-golay :  disabled
FFT :  disabled
Running average :  disabled
Kalman :  disabled
High pass :  disabled
---------------BEGIN--------------------
Wavelength(nm)             Reflectance(%)
200.29               0
200.75        52.75564
201.21         55.4738
201.67        61.17088
202.13        68.97707
202.58        77.92768
203.04        88.40827
203.50        96.72901
203.96        95.26289
204.42        85.28663
204.88        72.55274
205.34        62.00158
205.80        55.52229
206.26        51.82554
206.72        49.65953
207.18        48.59672
207.64        47.94257
208.10        47.59518
208.55         48.3653
209.01        49.63213
209.47        51.69165
209.93        54.16962
210.39        56.45718
210.85        57.86086
211.31        57.73932
211.77        55.91189
212.23        52.30046
212.69        47.14386
213.14        43.31755
213.60        42.60432
214.06        44.28863
214.52        46.56499
214.98        48.33298
215.44        49.64154
215.90        50.67328
216.36        51.97877
216.81        54.31473
217.27        57.41972
217.73         60.8429
218.19        62.91618
218.65        61.47965
219.11        56.26472
219.57        47.49678
220.02        37.32703
220.48        31.93713
220.94        33.46121
221.40        40.79733
221.86        50.07029
222.32        55.17986
222.77        54.56284
223.23        50.18433
223.69        44.89869
224.15        42.81474
224.61         44.2019
225.06        47.06074
225.52        49.39739
225.98         49.6296
226.44        47.73442
226.90        44.49877
227.36        40.93004
227.81        38.75157
228.27        38.79802
228.73        40.23809
229.19        42.18549
229.65        43.64484
230.10        44.37693
230.56        44.65347
231.02        44.78774
231.48        45.16496
231.93        45.77319
232.39        46.47611
232.85        46.85043
233.31        46.29176
233.77        44.75449
234.22        42.48202
234.68        40.13243
235.14        38.74302
235.60        38.65047
236.05        39.61116
236.51        41.09798
236.97        42.28725
237.43        42.98876
237.88        43.52656
238.34        44.10154
238.80        45.46792
239.26        47.75073
239.71        50.31263
240.17        52.49189
240.63        54.10514
241.08        55.21259
241.54        55.93528
242.00         55.8885
242.46        54.12747
242.91        50.06366
243.37         42.6565
243.83        32.60027
244.28        26.90025
244.74        32.34916
245.20        47.50321
245.66        62.26981
246.11        68.25063
246.57        64.89729
247.03        52.74728
247.48        34.74751
247.94         28.4418
248.40        37.05696
248.85        48.68696
249.31         57.1901
249.77         61.1297
250.22        61.67125
250.68         60.2416
251.14        57.54215
251.59        54.94332
252.05        53.66354
252.51        53.55066
252.96        53.86934
253.42        53.61726
253.88         52.6567
254.33        51.46937
254.79        51.88223
255.25        55.40608
255.70        61.38403
256.16        68.42429
256.62         74.1319
257.07        75.86871
257.53        73.97031
257.99        69.68314
258.44        64.69564
258.90        61.88656
259.35        60.95046
259.81        61.20081
260.27        61.27038
260.72        60.01903
261.18        57.79215
261.63        54.74618
262.09         51.9857
262.55        50.50941
263.00        50.31654
263.46        51.01657
263.91        51.57886
264.37        51.07386
264.83        49.46126
265.28        47.10381
265.74        44.98808
266.19        44.04465
266.65        44.40617
267.11         45.5379
267.56          46.676
268.02        46.72626
268.47        45.51029
268.93        43.41669
269.38        41.00408
269.84        39.41482
270.30        38.93115
270.75        39.20761
271.21        39.72817
271.66        39.71575
272.12        38.97078
272.57        37.75748
273.03        36.42873
273.48        35.43578
273.94        34.94749
274.39        34.75248
274.85        34.65972
275.31        34.37669
275.76        33.81335
276.22        33.09737
276.67        32.34583
277.13        31.82488
277.58        31.52447
278.04        31.38859
278.49          31.196
278.95        30.70989
279.40         29.8772
279.86        28.87662
280.31        27.87412
280.77        27.23485
281.22        26.95062
281.68        26.92791
282.13        26.96989
282.59        26.82375
283.04        26.43006
283.50        25.91526
283.95        25.36918
284.41        24.95358
284.86         24.6905
285.32        24.54317
285.77        24.47881
286.22        24.51613
286.68        24.62656
287.13        24.77782
287.59        24.91001
288.04        24.91122
288.50        24.78276
288.95        24.52926
289.41        24.22805
289.86        23.92611
290.32        23.69723
290.77        23.52529
291.22        23.44431
291.68        23.46624
292.13        23.59453
292.59        23.84091
293.04         24.1985
293.50        24.66666
293.95        25.22276
294.40         25.8452
294.86        26.50042
295.31        27.15093
295.77        27.78477
296.22        28.40781
296.68        29.01626
297.13        29.58535
297.58        30.12599
298.04        30.65129
298.49          31.201
298.95        31.87695
299.40         32.6741
299.85        33.55365
300.31         34.4401
300.76        35.21192
301.21        35.83847
301.67        36.38209
302.12        36.84694
302.58        37.30371
303.03         37.7544
303.48         38.2007
303.94        38.69962
304.39        39.29695
304.84         39.9964
305.30        40.76385
305.75        41.49197
306.20        42.04036
306.66        42.39951
307.11        42.59921
307.57        42.71986
308.02         42.8067
308.47        42.91351
308.93        43.01833
309.38        43.15385
309.83        43.42466
310.29        43.82452
310.74        44.32312
311.19        44.76776
311.65        44.90986
312.10        44.70569
312.55        44.23746
313.00        43.70933
313.46        43.43975
313.91        43.48318
314.36        43.75548
314.82        44.08279
315.27        44.20592
315.72         44.0373
316.18        43.67492
316.63        43.22341
317.08        42.85122
317.53        42.60637
317.99        42.42987
318.44        42.27029
318.89        42.03826
319.35        41.71276
319.80        41.33266
320.25         40.9532
320.70         40.6559
321.16        40.45101
321.61        40.31134
322.06        40.16699
322.51        39.91354
322.97         39.5168
323.42        39.01496
323.87         38.4643
324.32        37.96473
324.78        37.54264
325.23        37.18908
325.68        36.85304
326.13        36.45465
326.59        35.97982
327.04        35.48597
327.49          35.033
327.94        34.71646
328.39        34.55382
328.85        34.48632
329.30        34.49441
329.75         34.4907
330.20        34.43301
330.66        34.31654
331.11        34.14121
331.56        33.85254
332.01        33.44738
332.46        32.93398
332.92        32.37339
333.37         31.8884
333.82         31.5252
334.27        31.28846
334.72        31.13147
335.17        30.96176
335.63        30.74238
336.08        30.49602
336.53        30.30125
336.98        30.30095
337.43        30.50678
337.88        30.86814
338.34        31.16866
338.79        31.11008
339.24        30.61773
339.69        29.78084
340.14        28.89205
340.59        28.44703
341.05        28.55268
341.50        29.06422
341.95        29.67337
342.40        29.89829
342.85        29.62727
343.30        29.02817
343.75        28.31479
344.20        27.83423
344.66        27.68751
345.11        27.72843
345.56        27.87416
346.01         27.9977
346.46        28.03366
346.91        28.03875
347.36        27.94754
347.81        27.64204
348.26        27.13552
348.72         26.4954
349.17        25.85353
349.62         25.5156
350.07        25.55383
350.52        25.86491
350.97        26.31599
351.42        26.70154
351.87        26.94177
352.32        27.08235
352.77        27.09553
353.22         26.9436
353.67        26.64309
354.13        26.21754
354.58        25.74827
355.03        25.40982
355.48        25.24896
355.93        25.23855
356.38        25.30636
356.83        25.32461
357.28        25.25191
357.73        25.11305
358.18        24.95667
358.63        24.86428
359.08        24.85131
359.53        24.88667
359.98        24.89312
360.43        24.75856
360.88        24.47057
361.33        24.07335
361.78        23.67502
362.23        23.44915
362.68        23.42987
363.13        23.55114
363.58        23.70452
364.03        23.72358
364.48        23.56109
364.93         23.2671
365.38        22.89303
365.83        22.53018
366.28        22.22154
366.73        21.94498
367.18        21.70616
367.63        21.51327
368.08         21.3622
368.53        21.25835
368.98        21.18153
369.43        21.08987
369.88        20.97481
370.33         20.8492
370.78        20.72116
371.23        20.61074
371.68        20.52694
372.13        20.45531
372.58        20.41733
373.03         20.4507
373.48        20.54688
373.93        20.68185
374.38        20.78568
374.83        20.75386
375.28        20.56692
375.72        20.24943
376.17        19.88778
376.62        19.58206
377.07        19.37544
377.52        19.24911
377.97        19.18192
378.42        19.13699
378.87        19.09592
379.32        19.06285
379.77         19.0455
380.22        19.05116
380.67        19.07582
381.11        19.11764
381.56         19.1224
382.01        19.02365
382.46        18.81379
382.91        18.51133
383.36        18.21297
383.81        18.06385
384.26        18.08837
384.71        18.25053
385.15        18.42117
385.60        18.40381
386.05        18.16272
386.50        17.76063
386.95        17.35109
387.40        17.17678
387.85        17.28009
388.29        17.56787
388.74         17.8775
389.19         17.9765
389.64        17.81983
390.09        17.48343
390.54        17.09576
390.98        16.85425
391.43        16.82704
391.88        16.93431
392.33        17.07315
392.78        17.09851
393.23        16.98462
393.67        16.77613
394.12        16.57521
394.57        16.46128
395.02        16.45323
395.47        16.51958
395.91        16.60744
396.36        16.61042
396.81        16.51134
397.26        16.34053
397.71        16.17366
398.15        16.10709
398.60        16.17426
399.05        16.32775
399.50        16.48075
399.95        16.50993
400.39        16.39143
400.84        16.16016
401.29         15.9072
401.74        15.79983
402.18        15.88736
402.63         16.1081
403.08        16.34664
403.53        16.41854
403.97        16.28507
404.42        16.01771
404.87        15.72617
405.32        15.59006
405.76        15.65087
406.21        15.84312
406.66        16.07574
407.11        16.20856
407.55        16.20368
408.00        16.11074
408.45        15.97229
408.90        15.82029
409.34         15.7001
409.79        15.67334
410.24         15.7086
410.68        15.69272
411.13        15.61987
411.58        15.55762
412.03        15.51546
412.47        15.48538
412.92        15.46743
413.37        15.45383
413.81        15.45952
414.26        15.52263
414.71        15.63608
415.15        15.79406
415.60        15.91885
416.05        15.91011
416.49        15.74815
416.94        15.47496
417.39        15.17802
417.83        14.99881
418.28        14.98034
418.73        15.07349
419.17        15.21902
419.62        15.31028
420.07        15.32068
420.51         15.2848
420.96        15.22555
421.41        15.15942
421.85        15.09433
422.30        15.03213
422.74        14.98944
423.19        15.02136
423.64        15.12411
424.08        15.29038
424.53        15.45569
424.98        15.53074
425.42        15.49165
425.87        15.36697
426.31        15.19727
426.76        15.05412
427.21        14.95234
427.65        14.86992
428.10        14.82369
428.54         14.8174
428.99        14.85225
429.44        14.99413
429.88        15.16225
430.33        15.12427
430.77        14.92651
431.22        14.86158
431.66         14.9568
432.11        15.08177
432.56        15.20734
433.00        15.40892
433.45         15.5457
433.89        15.42869
434.34        15.17395
434.78        14.92649
435.23        14.67026
435.67        15.37817
436.12        14.89585
436.57        14.82902
437.01        14.60713
437.46        14.51364
437.90        14.56168
438.35         14.6221
438.79        14.65712
439.24        14.67427
439.68        14.66236
440.13         14.5007
440.57        14.28175
441.02        14.38238
441.46        14.66992
441.91        14.69389
442.35        14.10922
442.80         13.8998
443.24        13.92148
443.69        13.86811
444.13        13.73805
444.58        13.68667
445.02        13.72328
445.47        13.84236
445.91        13.98429
446.36         14.0213
446.80        13.92871
447.24        13.76053
447.69        13.58709
448.13        13.48627
448.58        13.48477
449.02        13.55335
449.47        13.63643
449.91        13.63845
450.36        13.54476
450.80        13.38906
451.25        13.23156
451.69         13.1484
452.13        13.16222
452.58         13.2351
453.02        13.33616
453.47        13.41766
453.91        13.46387
454.36        13.49012
454.80        13.48713
455.24        13.43963
455.69        13.35781
456.13        13.23188
456.58        13.11452
457.02        13.07696
457.46        13.12741
457.91        13.21484
458.35         13.2968
458.79        13.33808
459.24        13.32396
459.68        13.26795
460.13        13.24012
460.57        13.22068
461.01        13.20799
461.46        13.54349
461.90        13.67353
462.34        13.56029
462.79         13.6463
463.23        13.48889
463.68        13.33277
464.12        13.21805
464.56         13.2741
465.01        13.38671
465.45        13.50761
465.89        13.57939
466.34        13.59229
466.78        13.52319
467.22         13.4216
467.67        13.46222
468.11        13.61877
468.55         13.6187
468.99        13.48531
469.44        13.47775
469.88        13.60611
470.32        13.72529
470.77        13.79671
471.21        13.83203
471.65        13.82188
472.10        13.76611
472.54        13.69335
472.98        13.68211
473.42        13.74537
473.87        13.82221
474.31        13.89025
474.75        13.99776
475.20        14.10709
475.64        14.07469
476.08        13.95687
476.52        13.96403
476.97        14.10919
477.41        14.29672
477.85        14.46122
478.29        14.53928
478.74        14.51431
479.18        14.38464
479.62         14.2381
480.06        14.21391
480.50        14.31981
480.95        14.44751
481.39          14.548
481.83        14.61403
482.27        14.63397
482.72        14.61258
483.16        14.58192
483.60        14.59703
484.04        14.66584
484.48         14.8226
484.93        15.11129
485.37        15.24393
485.81         15.3029
486.25        15.80352
486.69        16.39082
487.14        15.67181
487.58        15.63667
488.02        16.64799
488.46        16.04744
488.90        16.20756
489.34        16.14528
489.79        16.26654
490.23        16.51009
490.67        16.72852
491.11         16.8851
491.55        16.86687
491.99        16.72633
492.43        16.69401
492.88        16.80243
493.32        16.89952
493.76        16.99422
494.20        17.17671
494.64        17.44529
495.08        17.76222
495.52        18.08194
495.96        18.35024
496.41        18.55082
496.85        18.66369
497.29         18.7211
497.73        18.86634
498.17        19.08716
498.61         19.1796
499.05        19.16934
499.49        19.29241
499.93        19.56503
500.37        19.81437
500.82         20.0198
501.26        20.31409
501.70        20.63786
502.14        20.72145
502.58        20.61196
503.02         20.6229
503.46        20.78043
503.90        20.92235
504.34        21.01183
504.78        21.06059
505.22        21.06088
505.66        21.02107
506.10        20.97442
506.54        20.96858
506.98        21.02032
507.42        21.12165
507.86        21.25451
508.30        21.38791
508.74        21.50696
509.18        21.61062
509.62         21.7121
510.06        21.83251
510.50        21.97438
510.94        22.13497
511.38        22.26873
511.82        22.30442
512.26        22.23439
512.70        22.08046
513.14         21.9331
513.58        21.93124
514.02        22.09321
514.46        22.37742
514.90        22.67605
515.34          22.754
515.78        22.60595
516.22        22.36277
516.66        22.15091
517.10        21.82921
517.54        21.43981
517.98        22.06539
518.42        22.02348
518.86        22.32525
519.30        22.44513
519.74         22.5577
520.18        22.64124
520.62        22.63808
521.06        22.56512
521.50        22.42161
521.93        22.24354
522.37        22.10252
522.81        22.01927
523.25        21.98131
523.69        21.97608
524.13        21.97944
524.57        21.97812
525.01        21.97488
525.45        21.96387
525.89        21.93419
526.32        21.88307
526.76        21.81577
527.20        21.72679
527.64         21.6145
528.08        21.48293
528.52        21.33093
528.96         21.1911
529.40        21.11074
529.83         21.0944
530.27        21.13561
530.71        21.17328
531.15         21.1108
531.59        20.93561
532.03        20.68147
532.46        20.42852
532.90        20.32071
533.34         20.3758
533.78        20.53959
534.22         20.7306
534.66        20.82341
535.09        20.78214
535.53        20.65855
535.97        20.48698
536.41        20.31875
536.85        20.18115
537.28        20.06921
537.72        20.01224
538.16        19.99541
538.60        20.11593
539.04        20.27607
539.47        20.44831
539.91        20.59622
540.35        20.71578
540.79        20.64109
541.22        20.67481
541.66        20.72738
542.10        20.90992
542.54        20.86728
542.97        21.12926
543.41        21.27391
543.85        21.44112
544.29         21.5865
544.72        21.70035
545.16        21.82909
545.60        21.97095
546.04        22.04749
546.47        22.10789
546.91        22.37503
547.35        22.78961
547.79        23.05283
548.22        23.15058
548.66        23.24546
549.10        23.37296
549.53        23.61572
549.97        23.97275
550.41        24.06013
550.84        24.31487
551.28         24.4665
551.72        24.67301
552.15        24.90679
552.59        25.17034
553.03        25.45563
553.46        25.71188
553.90        25.88998
554.34        25.97924
554.77        25.99792
555.21        25.99715
555.65        26.04427
556.08        26.15384
556.52        26.30565
556.96        26.46805
557.39        26.62478
557.83        26.75488
558.27        26.80151
558.70        26.79471
559.14         26.8349
559.57        26.92402
560.01        27.04806
560.45        27.16534
560.88        27.17094
561.32        27.11325
561.75        27.10415
562.19        27.25995
562.63        27.32523
563.06         27.3514
563.50        27.51042
563.93        27.75972
564.37        27.99229
564.80        28.06005
565.24        28.14804
565.68        28.22162
566.11        28.29872
566.55        28.40664
566.98        28.48539
567.42        28.51636
567.85         28.8316
568.29        28.68791
568.72        28.97348
569.16         29.3947
569.60        29.67172
570.03        29.77102
570.47        29.87995
570.90        29.86206
571.34        30.19205
571.77        30.20923
572.21        30.40667
572.64        30.54386
573.08        31.15051
573.51        30.77678
573.95        31.66253
574.38        31.76314
574.82        32.03848
575.25        32.02065
575.69        31.83704
576.12        31.86714
576.56        31.81882
576.99        31.85054
577.42         32.1777
577.86        32.19615
578.29        32.20109
578.73        32.50295
579.16        32.05872
579.60        32.13694
580.03        31.89103
580.47        31.88281
580.90        31.52686
581.33        31.39256
581.77        31.58011
582.20        31.71397
582.64        31.42999
583.07        31.09139
583.51        31.19147
583.94        30.52048
584.37        30.41071
584.81        30.16023
585.24         30.1295
585.68        30.14009
586.11        29.94285
586.54         29.8926
586.98        29.52803
587.41        29.66915
587.85        29.64672
588.28        29.63767
588.71        29.46941
589.15        29.17808
589.58        29.13113
590.01        28.97329
590.45        29.41699
590.88        29.35582
591.31        29.27632
591.75        28.92224
592.18        29.01691
592.61        28.93484
593.05        29.33474
593.48        29.31728
593.91        29.95499
594.35        29.45664
594.78        29.45798
595.21        29.81342
595.65         30.2755
596.08        30.32896
596.51        30.39726
596.94         30.3988
597.38        30.49528
597.81        30.78708
598.24         30.8186
598.68        31.51083
599.11        31.59956
599.54        32.70541
599.97        32.33179
600.41        32.69534
600.84        33.32317
601.27        33.65437
601.70        34.08153
602.14        34.43333
602.57        34.90244
603.00        35.47768
603.43        35.96117
603.87        36.36333
604.30        36.71237
604.73         37.0408
605.16        37.62952
605.60        38.07164
606.03        38.58549
606.46        38.95437
606.89        39.54177
607.32        40.19796
607.76        40.27558
608.19        40.81773
608.62        41.17681
609.05        41.46979
609.48        41.68431
609.92        41.78628
610.35        42.16377
610.78        42.91933
611.21         43.5389
611.64        43.23857
612.07         43.8927
612.50        43.89181
612.94        44.10458
613.37        44.56478
613.80        44.97492
614.23        45.38409
614.66        45.80862
615.09        45.82689
615.52        46.15798
615.96        46.60847
616.39        46.88332
616.82        47.02262
617.25        47.03028
617.68        47.35353
618.11        47.71815
618.54        48.14346
618.97        48.11248
619.40        47.61977
619.84        47.93919
620.27        47.79002
620.70        48.31789
621.13        48.96163
621.56        49.21178
621.99        49.13996
622.42        49.13599
622.85         49.3105
623.28        49.34383
623.71        49.22251
624.14        49.51517
624.57        49.23355
625.00         49.1153
625.43        49.58023
625.86        48.83601
626.29        48.90996
626.72        48.88993
627.15        48.71339
627.58        48.67539
628.01        48.51265
628.44          48.502
628.87        48.37168
629.30        47.60566
629.73        47.54394
630.16        47.09587
630.59        46.90852
631.02        46.59799
631.45        46.23147
631.88        45.86876
632.31        45.49036
632.74        45.04981
633.17        44.55743
633.60        44.07377
634.03        43.61159
634.46        43.15859
634.89        42.70558
635.32        42.23634
635.75         41.7522
636.18        41.26842
636.61         40.8018
637.04        40.37217
637.47        39.98042
637.89        39.61831
638.32        39.26746
638.75        38.92248
639.18        38.58147
639.61        38.25347
640.04        37.92796
640.47        37.58466
640.90        37.22536
641.33        36.85934
641.76        36.52374
642.18        36.28247
642.61        36.14254
643.04        36.08769
643.47        36.07951
643.90        36.05172
644.33        35.98869
644.76        35.91581
645.18        35.85641
645.61         35.8515
646.04        35.91537
646.47        36.03071
646.90        36.20675
647.33         36.4623
647.75        36.79205
648.18        37.18082
648.61         37.5892
649.04        37.96213
649.47        38.30032
649.89        38.59322
650.32         38.8786
650.75        39.35121
651.18        40.00611
651.61        40.45368
652.03        40.77754
652.46        41.66855
652.89        42.93998
653.32        43.40662
653.74        43.24187
654.17        43.42837
654.60        44.49391
655.03        45.47288
655.46         44.9082
655.88        46.93365
656.31        48.00949
656.74        54.95715
657.16        51.79254
657.59        47.59409
658.02        48.27728
658.45         48.7816
658.87        50.02863
659.30         50.3213
659.73        51.15585
660.15        51.75224
660.58         51.6145
661.01         51.6133
661.44         51.6213
661.86         51.8835
662.29        52.38404
662.72         53.1169
663.14        53.87621
663.57        54.02259
664.00        53.70297
664.42        53.66989
664.85        53.97227
665.27        54.54792
665.70         54.5382
666.13        54.78001
666.55        55.02975
666.98        55.25188
667.41        55.44442
667.83        55.61298
668.26        55.75762
668.69        55.88217
669.11        55.99812
669.54        56.10814
669.96        56.22079
670.39        56.36323
670.82        56.53809
671.24        56.67682
671.67        56.80895
672.09        57.06712
672.52         57.3982
672.94        57.62493
673.37        57.70604
673.80        57.60994
674.22        57.43225
674.65        57.39521
675.07        57.54173
675.50         57.7613
675.92        57.99313
676.35        58.10141
676.77         58.0489
677.20        58.06521
677.62        57.91697
678.05        57.85492
678.47        57.79725
678.90        58.01656
679.32        58.01085
679.75        58.17472
680.17        58.34282
680.60        58.58944
681.02        58.85355
681.45        58.85003
681.87        58.71074
682.30        58.72093
682.72        58.89895
683.15        58.98232
683.57        58.98912
684.00        58.94965
684.42        59.00797
684.85        59.33102
685.27        59.39928
685.70        59.65654
686.12        59.87995
686.54        60.01178
686.97        60.04056
687.39         59.9642
687.82        59.80994
688.24        59.77267
688.66         59.9028
689.09        59.64085
689.51        59.87635
689.94        59.95103
690.36        60.11339
690.78        60.19195
691.21        60.17738
691.63        60.28523
692.06        60.53658
692.48        60.38377
692.90        60.41772
693.33        60.77239
693.75        60.58611
694.17        60.70358
694.60        60.79319
695.02        60.73108
695.44        60.52048
695.87        60.51963
696.29        60.71083
696.71        60.54658
697.14        60.22065
697.56          60.576
697.98        61.39066
698.41         61.9477
698.83         61.6998
699.25        61.15775
699.68        61.09961
700.10         60.9631
700.52        61.03872
700.94        61.29507
701.37        61.61903
701.79        61.85101
702.21        61.90776
702.64        61.84674
703.06        61.74345
703.48        61.72857
703.90        61.83693
704.33        62.01825
704.75        62.20013
705.17        62.24052
705.59        62.11507
706.01         61.8816
706.44        61.65863
706.86        61.63074
707.28        61.82862
707.70        62.17685
708.12        62.57378
708.55          62.858
708.97        62.97985
709.39        62.99585
709.81        62.92493
710.23        62.80575
710.66        62.67092
711.08         62.5162
711.50        62.38492
711.92        62.35986
712.34        62.45626
712.76        62.66383
713.19        62.90175
713.61        63.07831
714.03        63.13585
714.45        63.10105
714.87        63.04438
715.29        63.07979
715.71        63.23009
716.13        63.45591
716.56        63.66993
716.98        63.80606
717.40        63.81375
717.82        63.71287
718.24        63.56404
718.66        63.51453
719.08        63.59388
719.50        63.61863
719.92        63.55782
720.34        63.64744
720.76        63.92408
721.19        63.50169
721.61        63.84629
722.03        63.77809
722.45        63.75294
722.87        63.71979
723.29         63.7182
723.71        63.77606
724.13        63.88721
724.55        64.05514
724.97        64.25211
725.39        64.43243
725.81        64.57685
726.23        64.68968
726.65        64.77479
727.07        64.84322
727.49         64.8988
727.91        64.93542
728.33        64.95057
728.75         64.9423
729.17        64.91486
729.59        64.87943
730.01        64.84508
730.43        64.82088
730.85        64.81292
731.27        64.81966
731.69        64.84746
732.10        64.91548
732.52        65.00962
732.94        65.11624
733.36        65.21095
733.78        65.25962
734.20        65.27029
734.62        65.23834
735.04        65.15359
735.46        65.12038
735.88        65.17085
736.30        64.81399
736.72        64.90965
737.13        65.03693
737.55        65.36167
737.97        65.75737
738.39        66.08749
738.81        66.08375
739.23         65.7914
739.65         65.6219
740.06        65.60789
740.48        65.59942
740.90        65.54475
741.32        65.41911
741.74        65.27578
742.16        65.30386
742.57         65.5224
742.99        65.77048
743.41        65.98143
743.83        66.09539
744.25        66.08326
744.67        65.95286
745.08        65.76637
745.50        65.60198
745.92        65.50738
746.34        65.46462
746.75        65.46106
747.17        65.46511
747.59        65.46546
748.01        65.50768
748.42        65.60081
748.84        65.65527
749.26        65.71239
749.68        65.89893
750.09        66.15398
750.51        66.31506
750.93        66.31821
751.35        66.08855
751.76        65.73062
752.18        65.56142
752.60        65.61688
753.01        65.75561
753.43         65.9066
753.85        66.04237
754.27        66.13204
754.68        66.21461
755.10        66.27617
755.52        66.26324
755.93        66.20301
756.35        66.18607
756.77        66.24011
757.18        66.35199
757.60         66.5478
758.02        66.75661
758.43        66.87776
758.85        67.05411
759.26         67.2118
759.68        66.56644
760.10        66.60839
760.51        66.25207
760.93        66.15808
761.34        65.44308
761.76        66.25534
762.18        66.21403
762.59        66.01569
763.01        66.05483
763.42         66.4024
763.84        66.83512
764.26        67.22432
764.67        67.09713
765.09        66.66176
765.50        66.83856
765.92        67.52016
766.33        67.64669
766.75        67.14297
767.16        66.80396
767.58        66.69189
768.00        66.41827
768.41         66.1321
768.83        66.39642
769.24        67.07896
769.66          67.461
770.07        67.46984
770.49        67.46002
770.90        67.51305
771.32        67.68243
771.73         67.9193
772.15        67.94937
772.56        67.76643
772.97        67.56266
773.39        67.35222
773.80        67.11355
774.22        66.85487
774.63        66.60363
775.05        66.42464
775.46        66.43644
775.88        66.63097
776.29        67.01064
776.70        67.40347
777.12         67.5451
777.53        67.38787
777.95        66.97727
778.36        66.50838
778.77         66.3252
779.19        66.51113
779.60        67.00747
780.02         67.5518
780.43        67.88887
780.84        67.94165
781.26        67.42915
781.67         66.7067
782.09         67.2295
782.50          68.646
782.91        68.76961
783.33        67.67892
783.74        67.35295
784.15        67.85307
784.57        68.04383
784.98        67.83794
785.39        67.59432
785.81        67.34071
786.22        67.07433
786.63        66.87572
787.04           66.81
787.46        66.89729
787.87        67.14313
788.28        67.48349
788.70        67.76653
789.11        67.94296
789.52        68.04946
789.93        68.09615
790.35        68.12166
790.76        68.11806
791.17        67.98808
791.58        67.78457
792.00        67.58685
792.41        67.41766
792.82        67.46769
793.23        67.60294
793.65        67.17282
794.06         66.5009
794.47        66.72421
794.88        67.55109
795.29        68.81445
795.71        68.07075
796.12         67.8782
796.53        68.16661
796.94        67.80544
797.35        67.13123
797.76        67.01076
798.18        67.41758
798.59        67.62469
799.00        67.58946
799.41        67.51073
799.82         67.8393
800.23        67.96992
800.64         68.0172
801.06        67.98614
801.47        67.96018
801.88        68.01231
802.29        68.14595
802.70           68.32
803.11         68.4417
803.52        68.36716
803.93        68.08948
804.34        67.68513
804.75        67.25733
805.17        67.03178
805.58        67.09412
805.99        67.14122
806.40        67.19659
806.81         67.8655
807.22        68.84035
807.63        68.81733
808.04        67.96648
808.45        67.68897
808.86        68.12843
809.27        68.60119
809.68         68.9668
810.09        69.24005
810.50        69.34527
810.91        69.32423
811.32        69.21468
811.73        68.99342
812.14        68.67591
812.55        68.39534
812.96        68.15244
813.37        67.67365
813.78        67.11761
814.19        67.11789
814.60        67.56174
815.01        67.75098
815.42        67.62853
815.83        67.54678
816.24         67.5747
816.65        67.66014
817.05        67.82653
817.46        68.04454
817.87        68.24597
818.28        68.28947
818.69        68.15839
819.10        67.88959
819.51        67.62611
819.92        67.63052
820.33        67.95818
820.74        68.49856
821.14        69.08982
821.55        69.45998
821.96        69.53533
822.37          69.367
822.78         69.0349
823.19        68.71198
823.60        68.46548
824.00        68.24909
824.41        68.08088
824.82        68.09554
825.23        68.29833
825.64        68.66556
826.04          69.068
826.45        69.24786
826.86        69.15851
827.27        68.85689
827.68        68.46785
828.08        68.23866
828.49        68.19932
828.90        68.31602
829.31        68.50941
829.72        68.63691
830.12        68.66582
830.53        68.60741
830.94        68.52946
831.35         68.5021
831.75        68.56448
832.16        68.64811
832.57        68.72597
832.97        68.73608
833.38        68.64722
833.79        68.48481
834.20        68.31351
834.60        68.22079
835.01        68.24323
835.42        68.36504
835.82        68.50932
836.23        68.49671
836.64        68.31042
837.04        67.99192
837.45         67.6832
837.86        67.65525
838.26        67.97238
838.67        68.53165
839.08        69.11095
839.48        69.29312
839.89        68.98093
840.29        68.33875
840.70        67.68388
841.11         67.4149
841.51        67.63678
841.92        68.16434
842.33        68.87241
842.73        69.54427
843.14         69.9818
843.54        70.30566
843.95        70.40034
844.35        70.15849
844.76        69.61342
845.17        68.83131
845.57        68.04969
845.98        67.65521
846.38         67.7317
846.79        68.17776
847.19        68.86665
847.60        69.42068
848.00        69.74996
848.41        69.87943
848.81        69.91176
849.22        69.93803
849.62        70.02585
850.03        70.07257
850.43        70.08253
850.84        69.99561
851.24        69.86271
851.65        69.68684
852.05        69.52307
852.46        69.39519
852.86        69.33633
853.27        69.18288
853.67        68.97269
854.07        69.28955
854.48        69.92438
854.88        69.94504
855.29        69.35342
855.69        69.15044
856.10        69.33832
856.50        69.41547
856.90        69.33611
857.31        69.35062
857.71        69.53242
858.12         69.7496
858.52        69.98114
858.92        70.08668
859.33        70.02175
859.73        69.85104
860.13        69.65277
860.54        69.58236
860.94         69.7317
861.34        70.01795
861.75        70.26022
862.15          70.258
862.55        69.93136
862.96        69.39729
863.36         68.8073
863.76        68.38993
864.17        68.21909
864.57        68.23222
864.97        68.41644
865.38        68.73585
865.78        69.19036
866.18        69.71841
866.58        70.13309
866.99        70.11207
867.39        69.62607
867.79        68.75179
868.19        67.65276
868.60        66.58096
869.00        65.61459
869.40        64.76215
869.80        64.18008
870.21        64.09098
870.61        64.56252
871.01        65.47881
871.41        66.51003
871.81         67.1223
872.22        67.20692
872.62        66.90014
873.02        66.38078
873.42        66.20496
873.82        66.27657
874.22        65.88129
874.63        65.28178
875.03        65.11375
875.43        65.46837
875.83        67.31006
876.23        67.20905
876.63        66.61568
877.03        64.93352
877.44        62.32221
877.84        134.8811
878.24        62.77679
878.64        64.54363
879.04        69.18411
879.44        65.69118
879.84        63.74815
880.24        68.59644
880.64        68.79657
881.04        65.53294
881.44        63.49157
881.84        63.42294
882.24        64.55854
882.65        66.21874
883.05        67.02793
883.45        66.55673
883.85        65.58533
884.25        64.65676
884.65        64.26926
885.05        64.58621
885.45        65.39771
885.85        66.35162
886.25        66.89565
886.65        66.85911
887.05        66.42547
887.45        65.86778
887.85        65.58502
888.25        65.68172
888.65        66.02541
889.04        66.44868
889.44        66.60429
889.84        66.42829
890.24        66.03994
890.64        65.59171
891.04        65.29854
891.44        65.19446
891.84        65.16991
892.24        65.14625
892.64        64.99737
893.04         64.7059
893.44        64.39151
893.83        64.00582
894.23         63.4918
894.63        62.85969
895.03         62.1029
895.43        61.50336
895.83        61.53493
896.23        62.25924
896.63        63.53839
897.02         64.8662
897.42          65.326
897.82        64.72566
898.22        63.36783
898.62        61.83906
899.01        61.03964
899.41        61.21026
899.81        62.03463
900.21        63.16743
900.61        64.08956
901.00        64.61875
901.40        64.88634
901.80        64.98353
902.20        65.03255
902.59        65.09097
902.99        65.10023
903.39         64.9918
903.79        64.68382
904.18        64.18367
904.58         63.5915
904.98        63.12801
905.38        63.11363
905.77        63.58065
906.17        64.42571
906.57         65.3166
906.96        65.75768
907.36        65.58913
907.76        64.93936
908.15        64.14835
908.55        63.71428
908.95        63.78432
909.34        64.24781
909.74        64.74897
910.14        64.65578
910.53        63.83814
910.93        62.59192
911.33        61.44268
911.72        61.21609
912.12        62.02108
912.52        63.48525
912.91        65.10519
913.31        66.02831
913.70        66.08347
914.10        65.52927
914.49        64.52202
914.89        63.50349
915.29        62.71394
915.68        62.06207
916.08          61.728
916.47        61.95001
916.87        62.65839
917.26        63.76966
917.66        64.91937
918.05        65.52402
918.45        65.41202
918.84        64.80306
919.24        63.86663
919.64        62.91552
920.03        62.12062
920.42        61.41468
920.82        61.05377
921.21        61.39318
921.61        62.37773
922.00        63.92265
922.40        65.44878
922.79        66.22877
923.19        66.07934
923.58          64.963
923.98        63.18041
924.37         62.1565
924.77        62.47453
925.16        59.82763
925.55        61.48894
925.95        61.49738
926.34        61.98375
926.74        62.72568
927.13        63.62284
927.52        64.29468
927.92        64.61651
928.31        64.73924
928.70        64.66917
929.10        64.50051
929.49        64.29149
929.89        63.99995
930.28        63.79424
930.67         63.9472
931.07        64.45311
931.46        65.28645
931.85        66.08305
932.24        66.29366
932.64        65.80422
933.03        64.67455
933.42        63.27998
933.82        62.42031
934.21        62.32349
934.60        62.79491
934.99        63.22232
935.39        63.08547
935.78         62.3237
936.17        60.45899
936.56        57.74848
936.96         59.1094
937.35        58.46154
937.74        60.47728
938.13        62.46814
938.53        63.77453
938.92        64.31712
939.31        64.35696
939.70        64.11843
940.09        63.84367
940.49        63.69082
940.88        63.60894
941.27        63.61628
941.66        63.78162
942.05         64.0835
942.44        64.47427
942.84        64.95216
943.23        65.50151
943.62        66.05753
944.01         66.6543
944.40        66.99005
944.79         66.5938
945.18        65.40263
945.57        63.49467
945.97         61.5758
946.36         60.8777
946.75        61.75507
947.14        63.76226
947.53        65.90295
947.92        66.80233
948.31        66.22517
948.70        64.60895
949.09        62.62043
949.48        61.43231
949.87        61.42307
950.26        62.21058
950.65        63.36794
951.04        64.19252
951.43        64.42638
951.82        64.31416
952.21        63.97544
952.60         63.5747
952.99        63.20215
953.38        62.76875
953.77        62.34411
954.16        62.07583
954.55        61.98745
954.94        62.07983
955.33        62.24789
955.72        62.27977
956.11        62.13403
956.50        61.87848
956.89         61.6256
957.28        61.59682
957.66        61.86113
958.05        62.23249
958.44         62.6479
958.83        63.03487
959.22        63.35481
959.61        63.65297
960.00        63.75999
960.39        63.38393
960.78        62.50789
961.16        61.21347
961.55        59.95309
961.94        59.29793
962.33         59.3655
962.72        60.02026
963.11        60.84675
963.49        61.12317
963.88        60.58787
964.27        59.50076
964.66        58.30896
965.04        57.75043
965.43          58.012
965.82        58.85958
966.21        59.93068
966.60        60.64038
966.98        60.82285
967.37        60.63857
967.76        60.33735
968.15        60.29589
968.53        60.62449
968.92        61.09157
969.31        61.54851
969.69         61.7673
970.08        61.61981
970.47        61.24125
970.86        60.65267
971.24        59.83742
971.63        58.90731
972.02        57.89885
972.40        56.98069
972.79        56.47422
973.17         56.4771
973.56        56.82962
973.95        57.45771
974.33        58.19368
974.72        58.80505
975.11        59.31054
975.49        59.51352
975.88        59.11682
976.26         58.1286
976.65        56.70205
977.04        55.12707
977.42         53.9303
977.81        53.32236
978.19        53.15337
978.58        53.42062
978.96        54.07533
979.35        54.97264
979.74        56.22613
980.12        57.47746
980.51        57.84748
980.89         57.3054
981.28        56.02461
981.66        54.78284
982.05        54.69376
982.43        55.90051
982.82        58.02629
983.20         60.4299
983.59        61.64489
983.97        61.30255
984.35        59.75747
984.74          57.715
985.12        56.18439
985.51        55.48591
985.89        55.28353
986.28        55.35601
986.66        55.31888
987.04        54.99123
987.43        54.66503
987.81        54.21361
988.20        53.34985
988.58        51.95234
988.96        49.83726
989.35        47.50398
989.73        46.47078
990.12        47.44439
990.50        49.93684
990.88         52.5467
991.27         53.6806
991.65        53.36291
992.03        52.04822
992.42        50.56259
992.80        50.45422
993.18        52.17986
993.56        54.88446
993.95        57.81543
994.33        60.42472
994.71        62.28116
995.10        63.59554
995.48        64.10036
995.86        63.24338
996.24        60.99374
996.63         57.4292
997.01        53.13388
997.39        50.04196
997.77        49.18731
998.15        50.11751
998.54        51.98616
998.92        53.81083
999.30        55.38514
999.68        57.14199
1000.06        58.66424
1000.45         58.5383
1000.83        56.48947
1001.21        53.25621
1001.59        50.25128
1001.97        48.54514
1002.35        47.97232
1002.73        48.14878
1003.12         48.7826
1003.50        49.22311
1003.88         49.0854
1004.26        48.70695
1004.64        47.95536
1005.02        46.53744
1005.40        44.49555
1005.78        41.78869
1006.16        39.38096
1006.54        39.30921
1006.92        41.68254
1007.30        45.24015
1007.69        48.49912
1008.07        50.23959
1008.45        50.18682
1008.83        48.62066
1009.21        44.88405
1009.59        38.67862
1009.97        31.18423
1010.35        23.50452
1010.73        18.84372
1011.11        19.78764
1011.49        25.53202
1011.86        34.99515
1012.24        43.92011
1012.62        48.03443
1013.00        47.00262
1013.38        42.26088
1013.76        36.22619
1014.14        33.17879
1014.52        34.36715
1014.90         38.5117
1015.28        43.39449
1015.66        45.31977
1016.04        43.03996
1016.41        37.39354
1016.79        30.13185
1017.17        25.65056
1017.55        25.87861
1017.93        28.95224
1018.31        32.70294
1018.69        35.21548
1019.06        36.16605
1019.44        35.94626
1019.82        34.74584
1020.20        32.83914
1020.58         30.5665
1020.95        28.08687
1021.33        24.88036
1021.71        19.03539
1022.09        8.661666
1022.46       -11.15086
1022.84       -40.31183
1023.22       -48.65153
1023.60       -20.31549
1023.97        11.60746
1024.35        29.84606
1024.73        36.38323
