SpectraSmart Spectrum 2.9.0.0
--------- Device Information -----------
Spectrum Name :  反射率_0
Saving Time :  2024/04/20 00:37:48
Spectro-Module Model Name : SE2030-DUVN
Spectro-Module Serial Number : OS361AC55029948
Wavelength Start : 200
Wavelength End : 1025
Wavelength Unit : Wavelength(nm)
Spectrum Unit : Reflectance(%)
-----------Spectrum Setting ------------
Integration Time : 30ms
Average : 10
Boxcar : 0
Background removal :  enabled
linearity correction :  enabled
SC :  disabled
Intensity correction :  disabled
DWT denoise :  enabled
savitzky-golay :  disabled
FFT :  disabled
Running average :  disabled
Kalman :  disabled
High pass :  disabled
---------------BEGIN--------------------
Wavelength(nm)             Reflectance(%)
200.29               0
200.75        62.15237
201.21         63.4473
201.67        67.08164
202.13        73.90103
202.58        83.96172
203.04        97.20035
203.50        109.4033
203.96        110.9472
204.42        102.0364
204.88        89.39385
205.34        78.38436
205.80        71.08274
206.26        66.17446
206.72        61.81505
207.18        58.12793
207.64        57.70892
208.10        62.44316
208.55        71.26534
209.01        78.80735
209.47        81.56999
209.93        80.23372
210.39        76.14347
210.85         71.5947
211.31        69.18817
211.77         69.2345
212.23         71.2534
212.69        74.37442
213.14        75.37629
213.60        72.88496
214.06        69.75492
214.52        67.63044
214.98        67.33975
215.44         68.6063
215.90        70.70769
216.36        73.77183
216.81        77.58112
217.27         81.2799
217.73        84.98817
218.19        87.16841
218.65        85.76284
219.11         80.6775
219.57        72.00285
220.02        62.52823
220.48        59.58331
220.94        65.51781
221.40        78.70728
221.86        93.82257
222.32        102.7269
222.77         103.452
223.23         98.7328
223.69        92.26211
224.15         89.3965
224.61        90.87686
225.06        94.27315
225.52        97.79411
225.98        99.85123
226.44        100.4204
226.90         100.219
227.36        100.0222
227.81         100.793
228.27         102.829
228.73        105.3371
229.19        107.2838
229.65        107.5769
230.10        106.2709
230.56        104.2622
231.02        102.3285
231.48        101.5401
231.93        101.8794
232.39        102.9455
232.85        104.1347
233.31        104.6364
233.77         104.208
234.22        103.1487
234.68        101.5709
235.14        99.62695
235.60        97.55341
236.05        95.39744
236.51        93.43888
236.97        92.02432
237.43         91.1478
237.88        90.91608
238.34        90.87475
238.80         90.7794
239.26        90.30284
239.71        89.52787
240.17         88.0582
240.63        85.76655
241.08        82.75781
241.54        79.13881
242.00        75.02379
242.46        70.27094
242.91        64.53087
243.37        56.51553
243.83        46.93615
244.28        42.36997
244.74        48.68995
245.20        64.12008
245.66        78.58974
246.11        83.97379
246.57        79.65187
247.03        65.86874
247.48         44.8332
247.94        34.47134
248.40        40.31623
248.85        50.69518
249.31        59.12984
249.77        63.96621
250.22        66.22724
250.68        67.41479
251.14        68.03432
251.59        68.46781
252.05        69.08173
252.51        69.72216
252.96        69.76558
253.42        68.72862
253.88        66.96961
254.33        65.09309
254.79        65.08493
255.25        68.53876
255.70        74.79139
256.16        82.39039
256.62        89.25534
257.07        93.09699
257.53        94.06151
257.99        93.05122
258.44          90.618
258.90        88.41099
259.35        86.48834
259.81        85.39368
260.27        84.60773
260.72        83.73438
261.18        83.07602
261.63        82.17654
262.09        81.75795
262.55        82.10966
263.00         82.9588
263.46        84.24849
263.91        84.95877
264.37        84.40081
264.83        82.58166
265.28        79.85238
265.74        77.35429
266.19        76.06211
266.65        76.21864
267.11        77.24001
267.56        78.38391
268.02        78.65513
268.47        77.82521
268.93        76.26826
269.38        74.39057
269.84        73.06974
270.30         72.5224
270.75        72.46233
271.21        72.54866
271.66        72.24104
272.12        71.41748
272.57        70.25254
273.03        69.00935
273.48        67.95967
273.94        67.26087
274.39        66.74149
274.85        66.31963
275.31        65.78061
275.76        65.03376
276.22        64.19175
276.67         63.2934
277.13        62.57573
277.58        61.98182
278.04        61.51811
278.49        60.95004
278.95        60.10747
279.40        58.91385
279.86         57.5882
280.31         56.2536
280.77        55.30538
281.22        54.69793
281.68        54.36411
282.13        54.09247
282.59        53.67978
283.04        53.03081
283.50        52.27065
283.95        51.42345
284.41        50.61702
284.86        49.84283
285.32        49.11921
285.77        48.41873
286.22        47.80613
286.68        47.30171
287.13        46.85794
287.59        46.47727
288.04        46.07494
288.50        45.65762
288.95        45.18805
289.41        44.69277
289.86        44.12058
290.32        43.52827
290.77        42.91133
291.22        42.33124
291.68        41.84515
292.13        41.45816
292.59        41.17988
293.04        41.00047
293.50        40.93589
293.95        40.96171
294.40        41.06669
294.86        41.20995
295.31        41.33195
295.77        41.41972
296.22        41.48667
296.68        41.54993
297.13        41.62306
297.58        41.72786
298.04        41.87169
298.49        42.07512
298.95        42.41125
299.40        42.86427
299.85        43.40924
300.31        43.98799
300.76        44.49444
301.21        44.90791
301.67        45.28915
302.12        45.62604
302.58        45.98402
303.03        46.35248
303.48        46.73393
303.94        47.19624
304.39        47.79463
304.84        48.53339
305.30        49.37362
305.75        50.17479
306.20        50.75536
306.66         51.1027
307.11        51.25473
307.57        51.33679
308.02        51.45021
308.47        51.65967
308.93         51.9211
309.38         52.2158
309.83        52.58192
310.29        52.99576
310.74         53.4387
311.19         53.7937
311.65        53.86802
312.10        53.62803
312.55        53.14183
313.00        52.58056
313.46        52.20918
313.91        52.07843
314.36        52.13698
314.82        52.25978
315.27        52.26612
315.72        52.09144
316.18        51.81082
316.63         51.4975
317.08        51.27971
317.53        51.18171
317.99        51.14088
318.44        51.09608
318.89        50.94144
319.35        50.65003
319.80        50.26662
320.25        49.83789
320.70        49.43754
321.16        49.08727
321.61        48.77478
322.06        48.48645
322.51        48.20555
322.97        47.91394
323.42        47.62719
323.87        47.33198
324.32        47.01221
324.78        46.65625
325.23        46.28437
325.68         45.8868
326.13        45.46254
326.59         45.0202
327.04        44.59277
327.49        44.21152
327.94        43.93145
328.39        43.75975
328.85        43.65622
329.30        43.62682
329.75        43.60521
330.20        43.56141
330.66        43.48218
331.11        43.37196
331.56        43.17837
332.01        42.89596
332.46        42.53115
332.92        42.12491
333.37        41.77926
333.82        41.52475
334.27        41.36413
334.72         41.2629
335.17        41.15258
335.63        41.00325
336.08        40.84624
336.53        40.73371
336.98        40.77118
337.43        40.96568
337.88          41.273
338.34        41.53777
338.79        41.56201
339.24        41.28492
339.69         40.7697
340.14        40.19821
340.59        39.87988
341.05        39.88482
341.50        40.12797
341.95        40.44213
342.40        40.56342
342.85        40.42887
343.30        40.13921
343.75        39.79092
344.20        39.53817
344.66        39.42787
345.11        39.37608
345.56        39.38423
346.01         39.4573
346.46        39.56698
346.91        39.72216
347.36        39.80242
347.81        39.61301
348.26        39.14429
348.72        38.48571
349.17        37.80599
349.62        37.46262
350.07        37.53719
350.52         37.9034
350.97         38.3842
351.42        38.71211
351.87        38.79766
352.32         38.7107
352.77        38.47642
353.22        38.13847
353.67        37.73848
354.13        37.28563
354.58        36.81183
355.03        36.41837
355.48         36.1354
355.93        35.95543
356.38        35.86279
356.83        35.81684
357.28        35.78892
357.73        35.77223
358.18        35.73312
358.63        35.62252
359.08        35.42845
359.53        35.16342
359.98        34.84408
360.43        34.49851
360.88        34.14429
361.33         33.7823
361.78        33.44318
362.23        33.17675
362.68        32.98826
363.13        32.85625
363.58        32.73755
364.03        32.56054
364.48        32.29987
364.93        31.97172
365.38        31.58004
365.83        31.14284
366.28        30.68198
366.73        30.20007
367.18        29.74244
367.63        29.37478
368.08        29.10944
368.53        28.93779
368.98        28.80167
369.43        28.60202
369.88         28.3172
370.33        27.97212
370.78        27.62637
371.23        27.38705
371.68        27.28082
372.13         27.2667
372.58        27.28873
373.03        27.25644
373.48        27.13723
373.93        26.95728
374.38        26.73528
374.83        26.49656
375.28        26.25209
375.72        25.98413
376.17        25.72323
376.62        25.48015
377.07        25.26715
377.52        25.09054
377.97        24.95282
378.42        24.85264
378.87        24.78215
379.32        24.73114
379.77        24.69236
380.22        24.65371
380.67        24.60991
381.11        24.57142
381.56        24.50403
382.01        24.37555
382.46        24.18331
382.91        23.92727
383.36        23.68338
383.81        23.56565
384.26        23.58825
384.71        23.72848
385.15        23.85136
385.60        23.75465
386.05        23.41088
386.50        22.89119
386.95        22.38732
387.40        22.20159
387.85        22.38297
388.29        22.80966
388.74        23.27997
389.19        23.49727
389.64        23.39809
390.09        23.06919
390.54        22.65438
390.98        22.37614
391.43        22.31682
391.88        22.39338
392.33        22.49198
392.78        22.45181
393.23        22.25397
393.67        21.95456
394.12        21.69424
394.57        21.58876
395.02        21.66017
395.47        21.86002
395.91        22.10326
396.36        22.21709
396.81        22.16267
397.26        21.98777
397.71         21.7849
398.15        21.67595
398.60        21.71271
399.05          21.836
399.50        21.96951
399.95        22.00657
400.39        21.92374
400.84        21.75243
401.29        21.56244
401.74        21.47931
402.18        21.54186
402.63        21.70163
403.08        21.86645
403.53        21.88701
403.97        21.73537
404.42        21.47501
404.87        21.21024
405.32        21.11144
405.76        21.21483
406.21        21.45984
406.66        21.75007
407.11        21.93661
407.55        21.97924
408.00        21.92571
408.45        21.82428
408.90        21.70258
409.34        21.61105
409.79        21.64194
410.24        21.73893
410.68        21.72452
411.13        21.59362
411.58        21.44566
412.03        21.33011
412.47         21.2985
412.92        21.36342
413.37        21.49513
413.81        21.66923
414.26        21.86603
414.71         22.0598
415.15        22.26066
415.60        22.39798
416.05        22.39029
416.49        22.22626
416.94        21.93756
417.39        21.62022
417.83        21.43022
418.28         21.4145
418.73        21.52642
419.17        21.69101
419.62          21.777
420.07        21.75368
420.51        21.66232
420.96        21.55386
421.41        21.48329
421.85        21.46237
422.30        21.48321
422.74        21.52724
423.19        21.60601
423.64        21.70552
424.08        21.83473
424.53         21.9565
424.98        22.03756
425.42        22.07105
425.87        22.06733
426.31        22.03216
426.76        21.98633
427.21        21.92817
427.65        21.84428
428.10         21.7817
428.54        21.78915
428.99        21.87856
429.44        22.12935
429.88        22.39785
430.33        22.31386
430.77        21.94593
431.22        21.74608
431.66        21.78202
432.11        21.90005
432.56        22.06657
433.00         22.4021
433.45        22.70869
433.89        22.58656
434.34        22.16727
434.78        21.98535
435.23        21.73689
435.67        22.54367
436.12        22.16208
436.57        22.13252
437.01        21.89225
437.46        21.80702
437.90        21.90022
438.35        21.97803
438.79        21.99626
439.24        22.01011
439.68        22.01374
440.13        21.81775
440.57        21.55398
441.02        21.78453
441.46         22.3036
441.91        22.42051
442.35        21.60152
442.80        21.34062
443.24        21.42389
443.69        21.38229
444.13        21.20244
444.58        21.10237
445.02        21.10041
445.47        21.19463
445.91        21.33437
446.36        21.38631
446.80        21.32419
447.24         21.2132
447.69        21.10566
448.13        21.03857
448.58        21.03436
449.02        21.07262
449.47        21.12142
449.91        21.12178
450.36        21.06775
450.80        20.97841
451.25        20.89116
451.69        20.84118
452.13        20.84454
452.58         20.8786
453.02        20.93166
453.47        20.99156
453.91        21.04912
454.36        21.10598
454.80        21.13982
455.24        21.11045
455.69          21.024
456.13        20.87633
456.58        20.72806
457.02        20.65786
457.46        20.67681
457.91        20.71217
458.35        20.74073
458.79        20.78228
459.24        20.82049
459.68        20.85675
460.13        20.93479
460.57        20.92424
461.01        20.80293
461.46        21.14851
461.90        21.15861
462.34        20.89554
462.79        21.06497
463.23        20.94942
463.68        20.86892
464.12        20.79187
464.56        20.88845
465.01        21.01539
465.45        21.12743
465.89        21.18034
466.34           21.17
466.78        21.03866
467.22        20.86112
467.67        20.90761
468.11        21.13433
468.55        21.12541
468.99        20.90052
469.44        20.83132
469.88        20.93133
470.32        20.98889
470.77        20.98387
471.21        20.99012
471.65        21.00557
472.10        21.00644
472.54        21.00364
472.98         21.0574
473.42        21.16718
473.87        21.25513
474.31        21.30002
474.75        21.40175
475.20        21.51224
475.64        21.40871
476.08        21.17485
476.52        21.12529
476.97        21.28073
477.41        21.49932
477.85        21.69861
478.29        21.80655
478.74        21.79882
479.18        21.66225
479.62        21.49875
480.06        21.47329
480.50        21.58826
480.95        21.69329
481.39         21.7416
481.83        21.76477
482.27        21.75583
482.72        21.70863
483.16        21.65461
483.60        21.64171
484.04        21.66689
484.48        21.79971
484.93        22.09015
485.37        22.17685
485.81        22.28212
486.25        23.01892
486.69        23.47193
487.14        23.09512
487.58        22.69081
488.02        23.22251
488.46         22.8963
488.90        23.03856
489.34         22.9788
489.79        23.03522
490.23        23.17111
490.67        23.29729
491.11        23.39353
491.55        23.36103
491.99        23.24226
492.43        23.22166
492.88        23.32505
493.32        23.44295
493.76        23.57038
494.20        23.73825
494.64        23.93898
495.08        24.18256
495.52        24.42954
495.96        24.58075
496.41        24.65635
496.85        24.74571
497.29        24.86936
497.73        25.06977
498.17        25.31101
498.61        25.39918
499.05         25.3589
499.49        25.45143
499.93        25.69609
500.37        25.88012
500.82        26.00048
501.26        26.26416
501.70        26.60362
502.14         26.6624
502.58        26.49384
503.02        26.48601
503.46        26.66508
503.90         26.8265
504.34        26.91968
504.78        26.95312
505.22        26.91626
505.66         26.8224
506.10        26.72391
506.54        26.68026
506.98        26.71065
507.42        26.83678
507.86        27.04528
508.30        27.11356
508.74        27.33426
509.18        27.45938
509.62        27.58199
510.06        27.69407
510.50        27.79862
510.94        27.89417
511.38        27.95996
511.82        27.97622
512.26        27.94337
512.70        27.86714
513.14        27.80335
513.58        27.83372
514.02        27.96311
514.46        28.17067
514.90        28.37519
515.34        28.37777
515.78        28.20321
516.22        27.95108
516.66        27.74148
517.10        27.43862
517.54        27.07882
517.98         27.6689
518.42        27.64514
518.86        27.94164
519.30        28.06756
519.74        28.18271
520.18        28.26359
520.62        28.25338
521.06        28.16811
521.50        28.00983
521.93        27.81672
522.37        27.66274
522.81        27.57172
523.25        27.53319
523.69        27.53692
524.13        27.56163
524.57        27.59394
525.01        27.63386
525.45        27.67401
525.89        27.70121
526.32        27.70911
526.76        27.70127
527.20        27.66454
527.64        27.58626
528.08        27.46926
528.52        27.31672
528.96        27.17057
529.40        27.09326
529.83        27.09281
530.27        27.15907
530.71        27.22702
531.15        27.19423
531.59        27.04482
532.03        26.81478
532.46        26.57824
532.90        26.47193
533.34        26.51337
533.78        26.65198
534.22        26.81723
534.66        26.90107
535.09        26.87038
535.53        26.77259
535.97        26.63309
536.41        26.48788
536.85        26.35896
537.28        26.24821
537.72        26.18749
538.16        26.14817
538.60        26.25898
539.04        26.39405
539.47        26.53547
539.91        26.66532
540.35        26.78521
540.79        26.67578
541.22        26.71339
541.66        26.75789
542.10        26.94614
542.54        26.82783
542.97        27.09888
543.41        27.23757
543.85        27.42796
544.29        27.60524
544.72        27.73948
545.16        27.86405
545.60        27.96989
546.04        27.96502
546.47        27.93202
546.91        28.17781
547.35        28.63358
547.79        28.93165
548.22        29.03274
548.66        29.07212
549.10        29.10436
549.53        29.32171
549.97        29.72063
550.41        29.75476
550.84        29.96677
551.28        30.06775
551.72        30.25063
552.15        30.45626
552.59        30.68936
553.03        30.94868
553.46        31.18455
553.90        31.35522
554.34        31.44842
554.77        31.48046
555.21        31.49276
555.65        31.53723
556.08        31.62498
556.52        31.73739
556.96        31.86123
557.39        32.01489
557.83        32.18095
558.27        32.28194
558.70        32.32263
559.14        32.37647
559.57        32.43785
560.01        32.50453
560.45        32.56628
560.88        32.56209
561.32        32.55728
561.75        32.65187
562.19        32.94073
562.63         33.0657
563.06        33.06364
563.50         33.1256
563.93         33.2464
564.37        33.40599
564.80        33.45014
565.24        33.55803
565.68        33.66796
566.11        33.78013
566.55        33.91623
566.98        34.01208
567.42        34.05018
567.85        34.43432
568.29        34.27744
568.72        34.63188
569.16        35.14054
569.60         35.4646
570.03        35.55653
570.47        35.64921
570.90        35.62213
571.34         35.9912
571.77        35.86432
572.21        36.24181
572.64         36.5587
573.08        36.60779
573.51        36.84604
573.95        37.52578
574.38        37.55117
574.82        37.76315
575.25        37.89264
575.69        37.70485
576.12        37.65597
576.56         37.5628
576.99        37.53738
577.42        37.95697
577.86        37.69538
578.29        37.73298
578.73         38.3705
579.16        38.06555
579.60        37.62381
580.03        37.35989
580.47        37.51081
580.90        37.42057
581.33        37.17928
581.77        37.31367
582.20        38.08969
582.64        37.44912
583.07        36.87133
583.51        37.04441
583.94        36.47742
584.37        36.33189
584.81         36.0841
585.24        36.09324
585.68        36.27909
586.11        36.10357
586.54        35.97595
586.98        35.85559
587.41        35.88725
587.85        35.91231
588.28        35.87131
588.71        35.66829
589.15        35.39077
589.58        35.00948
590.01        35.26138
590.45        35.62104
590.88         35.5428
591.31          35.586
591.75        34.96136
592.18        35.05395
592.61        34.96635
593.05        35.46271
593.48        35.44996
593.91         36.6035
594.35        35.90717
594.78         35.9122
595.21        36.29564
595.65        36.75113
596.08        36.69941
596.51        36.70412
596.94        36.70171
597.38        36.72225
597.81        36.83877
598.24        37.15885
598.68         38.1339
599.11        37.86795
599.54        39.12873
599.97        39.05975
600.41        39.25801
600.84        39.67975
601.27        40.30087
601.70        40.68713
602.14        40.90704
602.57        41.41347
603.00        42.19427
603.43        42.66491
603.87        42.86156
604.30        43.31992
604.73        44.02393
605.16        44.42735
605.60        44.66161
606.03        45.24702
606.46        46.02996
606.89        46.73764
607.32        47.44219
607.76        47.15299
608.19        47.96824
608.62        48.52721
609.05        48.51795
609.48        48.86977
609.92        49.40565
610.35         49.3155
610.78        50.57465
611.21        51.36931
611.64         51.0313
612.07        51.71132
612.50        52.08988
612.94        51.89354
613.37         52.5802
613.80        52.80753
614.23        53.12352
614.66        53.52111
615.09        54.01601
615.52        54.53248
615.96        54.94266
616.39        55.34042
616.82        55.79645
617.25        55.40969
617.68        55.92793
618.11        56.25959
618.54        56.72089
618.97        56.82481
619.40        56.55421
619.84        56.58002
620.27        56.04625
620.70        56.52188
621.13         57.5071
621.56         57.8079
621.99        57.53279
622.42        57.53509
622.85        57.89505
623.28        58.06084
623.71        58.05854
624.14        57.99633
624.57        57.95341
625.00        57.95302
625.43        57.99752
625.86        57.28088
626.29         57.3501
626.72        57.07635
627.15        56.94241
627.58        56.83086
628.01        56.66678
628.44        56.52892
628.87        56.31588
629.30         55.5922
629.73        55.13836
630.16         54.9162
630.59        54.31807
631.02        53.99155
631.45        53.64837
631.88        53.25401
632.31        52.75891
632.74        52.21525
633.17        51.65263
633.60        51.10315
634.03          50.585
634.46        50.09206
634.89        49.60766
635.32         49.1036
635.75        48.57956
636.18         48.0547
636.61        47.55436
637.04        47.11224
637.47        46.73175
637.89        46.39977
638.32        46.08762
638.75        45.77805
639.18        45.46241
639.61         45.1533
640.04         44.8429
640.47        44.50742
640.90        44.14896
641.33        43.81139
641.76        43.46991
642.18        43.23235
642.61         43.0874
643.04        43.02151
643.47         43.0076
643.90        42.99878
644.33        42.98108
644.76        42.97195
645.18        42.97402
645.61        42.99278
646.04        43.03817
646.47        43.10751
646.90        43.23096
647.33        43.46708
647.75         43.8233
648.18         44.2541
648.61         44.7179
649.04        45.19601
649.47        45.65717
649.89        46.00333
650.32        46.28582
650.75        46.76421
651.18        47.45528
651.61          48.028
652.03        48.52882
652.46        49.50262
652.89        50.80276
653.32        51.47851
653.74        51.32436
654.17        52.15587
654.60        53.14159
655.03        54.28148
655.46        53.78592
655.88        55.98785
656.31        57.78473
656.74        66.38528
657.16         63.5038
657.59        58.99459
658.02        59.13699
658.45         59.2657
658.87        60.42075
659.30        60.90633
659.73        61.55338
660.15        62.73561
660.58        62.73378
661.01         62.8864
661.44        62.81207
661.86        63.17363
662.29        63.94279
662.72        64.77099
663.14        65.49208
663.57        65.70262
664.00        65.54678
664.42        65.70444
664.85        66.25074
665.27         66.7281
665.70        67.06982
666.13        67.42778
666.55        67.79031
666.98        68.10154
667.41        68.36946
667.83        68.60182
668.26        68.79565
668.69        68.96926
669.11        69.12329
669.54         69.2641
669.96        69.41454
670.39        69.53407
670.82        69.65685
671.24        69.94326
671.67        70.41289
672.09        70.57516
672.52        71.14729
672.94        71.32147
673.37        71.32578
673.80        71.18793
674.22        71.03097
674.65        71.00886
675.07        71.16945
675.50        71.47231
675.92        71.81372
676.35        71.96741
676.77        71.89384
677.20        71.73865
677.62        71.51025
678.05        71.46199
678.47        71.59555
678.90        71.94292
679.32        72.27213
679.75        72.56112
680.17        72.71172
680.60        72.83617
681.02        72.95812
681.45        72.89801
681.87        72.76866
682.30        73.02644
682.72        73.56307
683.15        73.66311
683.57         73.3608
684.00        73.22205
684.42        73.40617
684.85        73.53933
685.27        73.65752
685.70        73.94981
686.12        74.29729
686.54        74.48569
686.97        74.48408
687.39        74.24971
687.82        73.92663
688.24        74.05479
688.66        74.55447
689.09        74.72936
689.51        74.57219
689.94        74.58018
690.36        74.77898
690.78        74.83954
691.21        74.77522
691.63        74.78307
692.06         75.1855
692.48        75.08378
692.90        75.26843
693.33        75.80197
693.75        75.58394
694.17        75.75269
694.60        75.88108
695.02        75.65865
695.44        75.15698
695.87        75.15006
696.29        75.59636
696.71        75.43628
697.14        74.91233
697.56        75.45844
697.98        76.81115
698.41        77.58405
698.83        77.30946
699.25        77.06903
699.68        76.90998
700.10        76.77248
700.52        76.73029
700.94        76.80241
701.37        76.93594
701.79        77.10604
702.21        77.25968
702.64        77.40546
703.06        77.55183
703.48        77.72481
703.90        77.92641
704.33        78.13423
704.75        78.29556
705.17        78.28568
705.59        78.09458
706.01         77.7871
706.44        77.51987
706.86        77.44514
707.28        77.75219
707.70        78.23668
708.12        78.79025
708.55        79.16103
708.97        79.28219
709.39        79.23138
709.81        79.08085
710.23        78.96702
710.66        78.94469
711.08        78.97742
711.50        79.04289
711.92        79.12889
712.34        79.22829
712.76        79.36045
713.19        79.49235
713.61        79.62994
714.03        79.73617
714.45        79.80966
714.87        79.88084
715.29        80.00365
715.71        80.18568
716.13        80.40955
716.56        80.60955
716.98        80.76859
717.40        80.83979
717.82        80.84023
718.24         80.8104
718.66        80.81798
719.08        80.87901
719.50        80.96736
719.92         81.0531
720.34        81.08911
720.76        81.06454
721.19        80.98914
721.61          80.911
722.03        80.81553
722.45        80.74817
722.87         80.6964
723.29         80.6937
723.71        80.77988
724.13        80.95841
724.55        81.21769
724.97        81.54134
725.39        81.82969
725.81        82.03894
726.23        82.30131
726.65        82.63916
727.07        82.41164
727.49        82.71552
727.91        82.67159
728.33        82.62055
728.75        82.56386
729.17        82.52953
729.59        82.50948
730.01        82.48339
730.43        82.51534
730.85        82.61687
731.27        82.62978
731.69        82.53314
732.10         82.9958
732.52        82.97621
732.94        83.09496
733.36        83.05111
733.78        83.01036
734.20        82.98463
734.62        82.91755
735.04        82.82211
735.46        82.75089
735.88        82.71188
736.30        82.62955
736.72        82.60191
737.13        82.81607
737.55        83.07884
737.97        83.53127
738.39        83.97269
738.81        83.87892
739.23        83.40953
739.65        83.38807
740.06        83.74151
740.48        84.00391
740.90        84.12172
741.32        83.38636
741.74        83.45822
742.16        83.33327
742.57        83.53286
742.99         83.7905
743.41        84.02859
743.83        84.21365
744.25        84.30009
744.67        84.07406
745.08        83.99844
745.50        83.79089
745.92        83.62519
746.34        83.47434
746.75        83.35564
747.17         83.2924
747.59        83.29179
748.01        83.37093
748.42         83.5115
748.84        83.68559
749.26        83.89267
749.68         83.9565
750.09         83.9341
750.51        84.27814
750.93        84.80309
751.35        84.72697
751.76        84.14901
752.18         83.7855
752.60        83.63312
753.01        83.96436
753.43        83.54824
753.85        83.65111
754.27        83.86641
754.68        84.50209
755.10        85.36728
755.52        84.76894
755.93        84.60524
756.35        84.20258
756.77        84.21191
757.18        84.25533
757.60        84.43516
758.02        84.80758
758.43        85.11164
758.85        85.77692
759.26        85.99509
759.68        85.08031
760.10         84.9005
760.51        84.93066
760.93        85.05647
761.34        84.16257
761.76         84.6935
762.18        84.33406
762.59        84.05922
763.01        83.82421
763.42        84.49478
763.84        85.02632
764.26        85.50893
764.67        85.48317
765.09        85.18021
765.50        85.65228
765.92        86.67606
766.33        86.75655
766.75        85.83882
767.16        85.20588
767.58        84.98252
768.00        84.54185
768.41         84.1161
768.83        84.55308
769.24          85.645
769.66        86.39804
770.07        86.60442
770.49        86.47719
770.90        86.18032
771.32        86.17218
771.73        86.45358
772.15        86.45253
772.56        86.17237
772.97        86.01795
773.39        85.95153
773.80        85.78358
774.22        85.47777
774.63        85.06564
775.05        84.69961
775.46        84.69289
775.88        85.06377
776.29        85.74606
776.70        86.44604
777.12        86.71864
777.53        86.47185
777.95        85.80192
778.36        85.03714
778.77        84.73217
779.19         85.0245
779.60         85.8051
780.02         86.6809
780.43        87.22612
780.84        87.30917
781.26        86.60071
781.67        85.60286
782.09         86.2274
782.50        88.04519
782.91        88.31511
783.33        87.07735
783.74        86.62041
784.15         87.0723
784.57        87.30104
784.98        87.19883
785.39         87.0306
785.81        86.77523
786.22        86.38422
786.63        86.00018
787.04        85.87003
787.46        86.02703
787.87        86.37022
788.28        86.79561
788.70        87.11289
789.11        87.25246
789.52        87.31201
789.93         87.3243
790.35          87.254
790.76        87.16464
791.17        87.17876
791.58        87.27408
792.00        87.23536
792.41         87.0132
792.82        86.81403
793.23        86.60558
793.65        86.00484
794.06        85.41994
794.47        85.83113
794.88        86.87595
795.29        88.64605
795.71        88.18038
796.12        87.97465
796.53        87.95962
796.94        87.26315
797.35        86.36552
797.76        86.17524
798.18        86.67945
798.59        86.97786
799.00        87.02629
799.41        87.33681
799.82        87.78149
800.23        88.15038
800.64        88.45247
801.06        87.43841
801.47        87.61053
801.88        87.36589
802.29         87.4534
802.70        87.70518
803.11        88.00024
803.52        88.07695
803.93        87.87505
804.34         87.5778
804.75        87.25591
805.17        86.96184
805.58        87.05273
805.99        86.85979
806.40        86.64697
806.81        87.57034
807.22        89.10146
807.63        89.54034
808.04        87.95954
808.45        87.46867
808.86        88.00771
809.27        88.78078
809.68        89.51021
810.09        89.86891
810.50        89.73695
810.91        89.39982
811.32         89.0198
811.73        88.63362
812.14         88.2951
812.55        88.13715
812.96        88.10925
813.37        87.77805
813.78        87.29295
814.19        87.46667
814.60        88.13531
815.01        88.38982
815.42        88.16624
815.83        87.91702
816.24        87.77605
816.65        87.77748
817.05        87.98181
817.46        88.32162
817.87        88.68953
818.28        88.86861
818.69        88.82591
819.10         88.6274
819.51        88.39551
819.92        88.41838
820.33        88.77129
820.74        89.14976
821.14        89.48959
821.55        90.12917
821.96        90.80603
822.37         90.5069
822.78        89.42847
823.19        88.86105
823.60        88.95173
824.00         89.0405
824.41        88.99412
824.82        89.03359
825.23        89.12943
825.64        89.24586
826.04        89.38303
826.45        89.48357
826.86        89.54695
827.27        89.57432
827.68        89.58154
828.08        89.63261
828.49         89.6712
828.90        89.71788
829.31        89.74991
829.72        89.72808
830.12         89.6638
830.53        89.53747
830.94        89.38779
831.35        89.23309
831.75        89.11307
832.16        88.98833
832.57        88.89284
832.97        88.85973
833.38        88.86637
833.79        88.89548
834.20        88.95333
834.60        89.03862
835.01        89.16116
835.42         89.3396
835.82        89.48826
836.23         89.4037
836.64        89.08533
837.04        88.57146
837.45        88.10047
837.86        88.11238
838.26        88.70596
838.67        89.73127
839.08        90.79904
839.48        91.18056
839.89        90.69981
840.29        89.62482
840.70        88.50143
841.11        88.04282
841.51        88.42418
841.92        89.34882
842.33        90.54722
842.73        91.54752
843.14        92.03928
843.54        92.25033
843.95        92.12118
844.35        91.65859
844.76        90.95202
845.17        90.02467
845.57         89.1516
845.98        88.79984
846.38         89.0508
846.79        89.78719
847.19        90.79591
847.60        91.48402
848.00        91.72501
848.41        91.59781
848.81        91.32723
849.22        91.18697
849.62        91.31319
850.03        91.54468
850.43        91.84807
850.84         92.0312
851.24        92.09949
851.65         92.0517
852.05        91.98017
852.46        91.89018
852.86        91.81313
853.27        91.76214
853.67        91.64956
854.07        91.60164
854.48        91.60899
854.88        91.50623
855.29        91.19935
855.69         91.7336
856.10        91.40033
856.50        91.59007
856.90        91.71613
857.31        91.69781
857.71        91.58597
858.12        91.36446
858.52        91.16376
858.92        91.02319
859.33        90.94141
859.73        90.95695
860.13        91.02953
860.54         91.0975
860.94        91.20895
861.34        91.30953
861.75        91.34185
862.15        91.32555
862.55        91.21635
862.96        91.05259
863.36        90.85948
863.76        90.56686
864.17         90.1868
864.57        89.89463
864.97        89.84958
865.38         89.6016
865.78        90.29133
866.18        90.92361
866.58        91.60159
866.99         91.9068
867.39        91.78594
867.79        91.30774
868.19        90.52847
868.60        89.55708
869.00        88.45657
869.40        87.25359
869.80        86.25289
870.21        85.95014
870.61        86.49068
871.01        87.66781
871.41        88.99471
871.81        89.67896
872.22        89.53555
872.62        88.82159
873.02        87.85448
873.42        87.25754
873.82        87.12907
874.22        87.05459
874.63        87.08271
875.03        87.41454
875.43        87.98232
875.83         89.1237
876.23        89.55226
876.63        89.58322
877.03        88.96596
877.44        87.67362
877.84        111.9792
878.24        86.85653
878.64        87.46655
879.04        89.30914
879.44        88.28267
879.84        87.32809
880.24        88.32781
880.64        87.44866
881.04        85.13365
881.44        83.68498
881.84         83.6487
882.24         84.5979
882.65        85.87202
883.05          86.421
883.45        85.87317
883.85         84.7157
884.25        83.56585
884.65        83.19962
885.05        83.79808
885.45        85.08298
885.85        86.53855
886.25        87.32011
886.65        87.17991
887.05        86.39035
887.45        85.40678
887.85        84.89992
888.25        85.05467
888.65        85.68812
889.04        86.49771
889.44        86.87598
889.84        86.69541
890.24        86.13158
890.64        85.53382
891.04        85.41428
891.44        85.84028
891.84        86.59289
892.24        87.29051
892.64        87.29893
893.04        86.51277
893.44        85.27393
893.83        83.88482
894.23        82.80742
894.63         82.1574
895.03        81.77666
895.43        81.77362
895.83        82.33496
896.23        83.40619
896.63        84.91599
897.02        86.40055
897.42        86.98631
897.82        86.49936
898.22        85.19202
898.62        83.60448
899.01        82.58496
899.41        82.40665
899.81        82.80936
900.21        83.54928
900.61        84.24397
901.00         84.7451
901.40        85.14366
901.80          85.471
902.20        85.74834
902.59        85.98586
902.99        86.12153
903.39        86.08035
903.79        85.76832
904.18        85.19638
904.58        84.48144
904.98        83.84744
905.38        83.62743
905.77        83.87174
906.17        84.49483
906.57        85.23689
906.96        85.71294
907.36        85.77404
907.76        85.50214
908.15        85.10812
908.55         84.8859
908.95        84.93076
909.34        85.18555
909.74        85.38491
910.14        85.10307
910.53        84.26788
910.93        83.10927
911.33        82.07545
911.72        81.86113
912.12        82.56548
912.52        83.88538
912.91        85.34512
913.31        86.13817
913.70        86.11655
914.10        85.48777
914.49         84.4963
914.89        83.68498
915.29        83.29364
915.68        83.15388
916.08        83.26543
916.47        83.58738
916.87         84.0421
917.26        84.63721
917.66        85.18228
918.05        85.39388
918.45        85.18961
918.84        84.70115
919.24        84.02197
919.64        83.33821
920.03        82.75447
920.42        82.24323
920.82         82.0177
921.21        82.34456
921.61         83.1752
922.00        84.45255
922.40        85.69748
922.79         86.3568
923.19        86.23241
923.58        85.38923
923.98        84.10113
924.37        83.21118
924.77        83.11658
925.16        81.82665
925.55        82.57224
925.95        82.54977
926.34        82.70158
926.74        82.93825
927.13         83.3041
927.52        83.72746
927.92        84.15416
928.31        84.65326
928.70         85.0385
929.10        85.03201
929.49        84.61598
929.89        83.85995
930.28        83.17904
930.67        83.22778
931.07        84.08964
931.46        85.58872
931.85        87.17259
932.24        88.02473
932.64         87.9259
933.03        87.03204
933.42        85.72224
933.82        84.82441
934.21        84.59779
934.60        84.82481
934.99        85.00311
935.39        84.54727
935.78        83.36045
936.17         81.3623
936.56        78.86462
936.96        78.86473
937.35        78.49254
937.74        79.95315
938.13          81.604
938.53        82.80917
938.92        83.47015
939.31        83.79393
939.70        83.87362
940.09        83.78664
940.49        83.61691
940.88        83.36429
941.27        83.12291
941.66        83.08037
942.05        83.26574
942.44        83.61953
942.84         84.1272
943.23        84.77393
943.62        85.47934
944.01        86.26185
944.40        86.86149
944.79        86.87618
945.18        86.23417
945.57        84.98258
945.97        83.61489
946.36         83.0382
946.75        83.52181
947.14        84.77227
947.53        86.09744
947.92        86.52779
948.31        85.90208
948.70        84.53098
949.09        82.93938
949.48        82.04401
949.87        82.12299
950.26        82.87772
950.65         83.8924
951.04        84.48219
951.43         84.4237
951.82        83.95027
952.21         83.2813
952.60        82.74726
952.99        82.47789
953.38        82.36061
953.77        82.35168
954.16        82.40856
954.55        82.49764
954.94        82.63979
955.33        82.84238
955.72        83.09007
956.11        83.37766
956.50        83.71633
956.89        83.99766
957.28        84.04572
957.66        83.84189
958.05        83.37859
958.44        82.92665
958.83        82.84633
959.22        83.17069
959.61        83.81301
960.00        84.40554
960.39        84.28669
960.78        83.32206
961.16        81.73296
961.55        80.09711
961.94          79.158
962.33        79.09801
962.72        79.70525
963.11        80.59569
963.49        81.12409
963.88        80.98806
964.27        80.41917
964.66         79.7137
965.04        79.35867
965.43        79.48248
965.82        79.94178
966.21        80.49297
966.60        80.75827
966.98         80.6628
967.37        80.31656
967.76        80.01013
968.15        80.17506
968.53        80.89929
968.92        81.92112
969.31        82.94466
969.69        83.48619
970.08        83.34657
970.47        82.73592
970.86        81.79546
971.24        80.72601
971.63        79.71356
972.02         78.7505
972.40         78.0114
972.79        77.78927
973.17        78.16899
973.56        78.96185
973.95        80.03846
974.33        81.10999
974.72        81.88826
975.11        82.42776
975.49        82.53749
975.88        81.94608
976.26         80.7122
976.65        79.00861
977.04        77.24723
977.42        76.15693
977.81        75.97018
978.19        76.48228
978.58        77.54347
978.96          78.912
979.35        80.29755
979.74        81.81511
980.12        83.05987
980.51        83.07014
980.89        81.87354
981.28        79.76608
981.66        77.60653
982.05           76.63
982.43        77.00835
982.82        78.37859
983.20        80.25404
983.59        81.41601
983.97        81.54506
984.35        80.84686
984.74        79.78228
985.12         78.9959
985.51        78.66994
985.89        78.63427
986.28          78.553
986.66        78.03828
987.04        76.97894
987.43        75.74559
987.81        74.63253
988.20        73.95369
988.58        73.68916
988.96          73.706
989.35        73.90461
989.73        74.15646
990.12        74.26206
990.50        74.41437
990.88        74.41013
991.27        73.99757
991.65        73.27874
992.03        72.26999
992.42        71.48618
992.80        71.93188
993.18        73.78299
993.56        76.52136
993.95        79.25869
994.33        81.14016
994.71        81.82477
995.10        81.55589
995.48        80.73609
995.86        79.92024
996.24        79.34067
996.63        78.96124
997.01        78.52958
997.39         77.5621
997.77        76.08741
998.15        74.38605
998.54        73.32695
998.92        73.84438
999.30        76.13717
999.68        80.42347
1000.06        85.50825
1000.45        86.98764
1000.83        83.22203
1001.21        76.38706
1001.59        70.05162
1001.97        66.98037
1002.35        67.01794
1002.73        69.33703
1003.12        72.90199
1003.50        75.35181
1003.88        75.31393
1004.26        73.54475
1004.64        71.13245
1005.02         69.6106
1005.40         69.4269
1005.78        70.05741
1006.16        71.14201
1006.54        72.02352
1006.92        72.33601
1007.30         72.3105
1007.69        72.17398
1008.07        72.26494
1008.45        72.64783
1008.83        73.41928
1009.21        74.27483
1009.59        74.06483
1009.97         71.9957
1010.35        68.28251
1010.73        65.08051
1011.11         64.9977
1011.49        67.92815
1011.86         72.9362
1012.24        77.24513
1012.62        78.16816
1013.00        75.60639
1013.38        70.71201
1013.76        65.15762
1014.14        61.93937
1014.52        61.95051
1014.90        64.15732
1015.28        67.32121
1015.66        69.36311
1016.04        69.49718
1016.41        68.46117
1016.79        66.09483
1017.17        62.71578
1017.55        59.28489
1017.93        56.04002
1018.31        54.05865
1018.69        54.42732
1019.06        56.94533
1019.44        61.23439
1019.82        66.25182
1020.20        68.96336
1020.58        67.94994
1020.95        63.98277
1021.33        58.47508
1021.71         52.7758
1022.09        46.62015
1022.46        37.20368
1022.84        25.00476
1023.22        23.35882
1023.60        37.38103
1023.97        52.37246
1024.35        60.70492
1024.73          63.362
