SpectraSmart Spectrum 2.9.0.0
--------- Device Information -----------
Spectrum Name :  反射率_0
Saving Time :  2024/04/20 00:39:13
Spectro-Module Model Name : SE2030-DUVN
Spectro-Module Serial Number : OS361AC55029948
Wavelength Start : 200
Wavelength End : 1025
Wavelength Unit : Wavelength(nm)
Spectrum Unit : Reflectance(%)
-----------Spectrum Setting ------------
Integration Time : 30ms
Average : 10
Boxcar : 0
Background removal :  enabled
linearity correction :  enabled
SC :  disabled
Intensity correction :  disabled
DWT denoise :  enabled
savitzky-golay :  disabled
FFT :  disabled
Running average :  disabled
Kalman :  disabled
High pass :  disabled
---------------BEGIN--------------------
Wavelength(nm)             Reflectance(%)
200.29               0
200.75        61.23785
201.21        60.91917
201.67        61.75239
202.13        64.29263
202.58        68.70978
203.04        75.03311
203.50        81.74332
203.96         84.3895
204.42        82.22523
204.88         77.8504
205.34        73.26632
205.80        69.09309
206.26        64.60822
206.72        58.40976
207.18        50.18152
207.64         43.8947
208.10        44.45556
208.55        51.38479
209.01        59.22552
209.47        63.57077
209.93        64.44114
210.39        63.33884
210.85        61.66007
211.31        61.01927
211.77        61.70863
212.23         63.2762
212.69        65.31426
213.14         66.3108
213.60        65.20312
214.06        63.69101
214.52        62.41208
214.98         61.5377
215.44        60.89621
215.90        59.99863
216.36        59.34241
216.81        60.10566
217.27         62.3307
217.73        65.64494
218.19        68.00176
218.65        66.56366
219.11        60.85369
219.57        51.16665
220.02        39.83761
220.48        33.52901
220.94        34.63422
221.40        41.97553
221.86        51.38805
222.32        56.31532
222.77        55.15165
223.23        50.05693
223.69        44.35236
224.15        42.75368
224.61        45.32278
225.06        49.52622
225.52        52.92988
225.98        53.56376
226.44        51.41769
226.90        47.45722
227.36         42.7918
227.81        39.41803
228.27        38.39521
228.73        38.89616
229.19        40.19153
229.65        41.40788
230.10        42.28091
230.56        43.06872
231.02        43.82967
231.48        44.62473
231.93         45.4319
232.39        46.16986
232.85        46.75148
233.31        47.10804
233.77        47.22029
234.22        47.11518
234.68        46.86643
235.14        46.49231
235.60        46.06358
236.05        45.64505
236.51          45.335
236.97        45.23831
237.43        45.44278
237.88        46.14402
238.34        47.32652
238.80        49.00648
239.26        50.86951
239.71        52.54462
240.17        53.85493
240.63        55.27629
241.08        57.00151
241.54        58.91091
242.00        60.16162
242.46         59.0992
242.91        54.81446
243.37        46.08694
243.83        33.66417
244.28        25.92508
244.74        31.21993
245.20        48.17688
245.66        64.93277
246.11        71.16168
246.57         66.1284
247.03        50.54144
247.48        28.81248
247.94        23.39438
248.40        36.90735
248.85        53.32667
249.31         65.1834
249.77        71.00153
250.22        72.50452
250.68        71.58251
251.14        68.99781
251.59        66.13306
252.05        64.16807
252.51        62.89994
252.96        61.84978
253.42        60.50922
253.88        59.01245
254.33        57.89185
254.79        58.64246
255.25        62.33626
255.70        68.18143
256.16        74.75074
256.62        79.99879
257.07        81.70289
257.53        80.12688
257.99        76.34848
258.44        71.37996
258.90        67.43378
259.35        64.66879
259.81        63.10032
260.27        61.94058
260.72        60.49888
261.18        58.93245
261.63        57.04178
262.09        55.54002
262.55        54.87564
263.00         54.9426
263.46        55.59016
263.91        55.98396
264.37        55.44764
264.83        53.97456
265.28        51.83218
265.74        49.94422
266.19         49.1465
266.65         49.5663
267.11        50.69578
267.56        51.83664
268.02        51.99002
268.47        50.98023
268.93        49.17299
269.38        47.01305
269.84         45.4523
270.30        44.74412
270.75        44.61356
271.21        44.71774
271.66         44.5301
272.12        43.89307
272.57        42.97264
273.03        41.97636
273.48        41.11964
273.94        40.52109
274.39          40.061
274.85        39.63148
275.31        39.04212
275.76        38.24178
276.22        37.32572
276.67        36.43412
277.13        35.88381
277.58        35.64768
278.04        35.65304
278.49        35.59598
278.95        35.12684
279.40        34.17503
279.86        32.97412
280.31        31.74496
280.77        30.94742
281.22        30.58715
281.68        30.53471
282.13        30.58223
282.59        30.47015
283.04        30.12104
283.50        29.67197
283.95        29.16025
284.41        28.67679
284.86        28.23896
285.32        27.83956
285.77        27.52831
286.22        27.45632
286.68        27.61958
287.13        27.93913
287.59        28.26896
288.04        28.36596
288.50        28.20507
288.95        27.82127
289.41        27.36399
289.86         26.9914
290.32        26.79946
290.77        26.73092
291.22        26.73786
291.68        26.71166
292.13        26.63998
292.59         26.5902
293.04        26.64744
293.50        26.95259
293.95         27.5125
294.40        28.25469
294.86        29.07743
295.31        29.83587
295.77        30.48495
296.22        31.06545
296.68        31.59496
297.13        32.08341
297.58        32.55871
298.04        33.01878
298.49        33.51385
298.95        34.16929
299.40        34.97506
299.85        35.87958
300.31        36.78191
300.76        37.51672
301.21        38.04323
301.67        38.44048
302.12        38.71431
302.58        38.94267
303.03        39.13656
303.48        39.30021
303.94        39.52142
304.39        39.89246
304.84         40.4237
305.30         41.0679
305.75        41.67982
306.20         42.0581
306.66        42.18204
307.11        42.10413
307.57        41.93676
308.02         41.7739
308.47        41.68153
308.93        41.62074
309.38        41.60808
309.83        41.72342
310.29        41.95076
310.74        42.26614
311.19         42.5231
311.65        42.48265
312.10        42.10564
312.55         41.4736
313.00        40.78095
313.46         40.3301
313.91        40.17664
314.36        40.24593
314.82         40.3932
315.27        40.40408
315.72         40.2036
316.18        39.87606
316.63        39.49469
317.08         39.1778
317.53        38.95613
317.99        38.77524
318.44        38.60521
318.89        38.39511
319.35        38.13079
319.80        37.83945
320.25        37.53526
320.70        37.23618
321.16        36.94481
321.61        36.65609
322.06        36.36827
322.51        36.08545
322.97         35.7995
323.42        35.51773
323.87         35.2219
324.32        34.88763
324.78        34.50747
325.23        34.10296
325.68        33.68896
326.13        33.29763
326.59        32.94485
327.04        32.64902
327.49        32.40826
327.94         32.2208
328.39        32.07821
328.85         31.9548
329.30         31.8803
329.75        31.85451
330.20        31.86375
330.66        31.87782
331.11        31.85622
331.56         31.6826
332.01        31.33656
332.46        30.84684
332.92        30.30361
333.37        29.87522
333.82        29.61844
334.27        29.51394
334.72        29.48908
335.17        29.40944
335.63        29.22562
336.08         28.9811
336.53        28.75698
336.98        28.69926
337.43        28.83207
337.88        29.10426
338.34        29.35021
338.79        29.35086
339.24        29.04373
339.69        28.50011
340.14        27.92595
340.59        27.66632
341.05        27.79038
341.50        28.19289
341.95        28.66311
342.40        28.87528
342.85        28.75028
343.30        28.40289
343.75        27.96119
344.20        27.63337
344.66        27.48326
345.11        27.41532
345.56        27.40966
346.01        27.43541
346.46        27.46147
346.91        27.51825
347.36         27.5139
347.81        27.29321
348.26        26.85558
348.72         26.2774
349.17        25.70809
349.62         25.4754
350.07        25.65034
350.52        26.11812
350.97        26.69997
351.42        27.12834
351.87        27.31759
352.32        27.33131
352.77        27.21507
353.22        27.04693
353.67        26.86518
354.13         26.6601
354.58         26.4203
355.03        26.17418
355.48        25.93923
355.93        25.73403
356.38        25.58495
356.83        25.51859
357.28        25.52873
357.73        25.59187
358.18        25.66346
358.63        25.67239
359.08        25.59526
359.53          25.453
359.98         25.2537
360.43        25.01196
360.88        24.74505
361.33        24.45382
361.78        24.18286
362.23        24.00715
362.68        23.93418
363.13        23.93227
363.58        23.94381
364.03        23.87487
364.48        23.69904
364.93        23.44842
365.38        23.13341
365.83        22.77968
366.28        22.41509
366.73        22.03662
367.18         21.7077
367.63        21.52464
368.08        21.49319
368.53        21.58291
368.98        21.69352
369.43        21.66309
369.88         21.4601
370.33        21.13704
370.78        20.77665
371.23        20.52632
371.68        20.43293
372.13        20.44256
372.58        20.52662
373.03        20.63601
373.48        20.73401
373.93        20.83097
374.38        20.87111
374.83         20.7688
375.28        20.51487
375.72        20.11948
376.17        19.69421
376.62        19.38369
377.07        19.23558
377.52        19.22303
377.97        19.26894
378.42        19.24747
378.87        19.12647
379.32        18.93604
379.77        18.75603
380.22        18.70373
380.67        18.79404
381.11        18.98997
381.56        19.16085
382.01        19.11202
382.46        18.80627
382.91        18.30892
383.36        17.79253
383.81        17.51671
384.26        17.53395
384.71        17.76909
385.15        18.04668
385.60        18.09924
386.05        17.87067
386.50        17.45046
386.95        17.00883
387.40        16.81251
387.85        16.91213
388.29        17.19989
388.74        17.51523
389.19        17.63368
389.64        17.50735
390.09        17.21079
390.54        16.85366
390.98        16.60182
391.43        16.52042
391.88        16.54345
392.33        16.59335
392.78        16.56188
393.23        16.43009
393.67        16.22984
394.12        16.04616
394.57        15.93588
395.02        15.91128
395.47        15.94726
395.91        15.99607
396.36        15.96192
396.81        15.83258
397.26        15.63562
397.71        15.44525
398.15        15.35602
398.60        15.40068
399.05        15.53493
399.50        15.67293
399.95        15.69205
400.39        15.56722
400.84        15.33034
401.29        15.07312
401.74        14.96421
402.18        15.05294
402.63        15.27955
403.08        15.51966
403.53        15.57549
403.97        15.40751
404.42        15.08924
404.87        14.75128
405.32        14.60701
405.76        14.70191
406.21        14.95851
406.66        15.25355
407.11        15.39593
407.55        15.33805
408.00        15.14641
408.45        14.89513
408.90        14.67714
409.34        14.55451
409.79        14.56055
410.24        14.64622
410.68        14.67703
411.13        14.63577
411.58        14.59756
412.03        14.56061
412.47         14.4981
412.92        14.41252
413.37        14.30329
413.81        14.21722
414.26        14.24226
414.71        14.38138
415.15        14.61462
415.60        14.83651
416.05        14.89651
416.49        14.75728
416.94        14.47282
417.39        14.14373
417.83        13.93464
418.28        13.89621
418.73        13.97055
419.17        14.09386
419.62         14.1538
420.07        14.12286
420.51        14.04055
420.96        13.93418
421.41        13.82582
421.85        13.72602
422.30        13.63555
422.74        13.56629
423.19        13.56389
423.64         13.6231
424.08        13.73761
424.53        13.85412
424.98        13.90173
425.42        13.86148
425.87        13.75765
426.31        13.61472
426.76        13.47958
427.21        13.36152
427.65        13.24361
428.10        13.15874
428.54        13.14038
428.99        13.19351
429.44        13.36404
429.88         13.5551
430.33        13.52195
430.77        13.30209
431.22        13.17118
431.66        13.17139
432.11        13.21662
432.56        13.29054
433.00        13.45077
433.45        13.56606
433.89        13.45752
434.34        13.22104
434.78        12.98985
435.23        12.75288
435.67        13.35551
436.12        12.92764
436.57        12.86325
437.01        12.66647
437.46        12.58422
437.90        12.62769
438.35        12.68322
438.79        12.72227
439.24        12.75855
439.68        12.78138
440.13        12.68168
440.57         12.5241
441.02        12.61574
441.46        12.83561
441.91        12.79559
442.35        12.22028
442.80        11.99635
443.24        11.99995
443.69        11.96026
444.13        11.85422
444.58        11.78303
445.02         11.7477
445.47        11.75367
445.91        11.77693
446.36         11.7515
446.80        11.66579
447.24         11.5543
447.69        11.44524
448.13        11.35416
448.58        11.29663
449.02        11.26619
449.47        11.25212
449.91        11.23237
450.36        11.20395
450.80        11.16688
451.25         11.1399
451.69        11.13828
452.13        11.16611
452.58        11.20901
453.02        11.24329
453.47        11.22968
453.91        11.16413
454.36        11.05975
454.80        10.94238
455.24        10.85709
455.69        10.82361
456.13        10.81797
456.58        10.83773
457.02         10.8717
457.46        10.91251
457.91        10.93726
458.35        10.94586
458.79        10.96179
459.24        10.98298
459.68        10.99746
460.13         11.0392
460.57        11.05223
461.01        11.02748
461.46         11.2677
461.90        11.32442
462.34        11.18292
462.79        11.21671
463.23        11.05374
463.68        10.90999
464.12        10.84067
464.56        10.95011
465.01        11.13226
465.45        11.31431
465.89        11.40215
466.34        11.38175
466.78        11.24881
467.22        11.07177
467.67         11.0404
468.11         11.1458
468.55        11.15136
468.99        11.06176
469.44        11.06462
469.88        11.16038
470.32        11.24024
470.77        11.27427
471.21        11.27352
471.65        11.23314
472.10        11.15341
472.54        11.06485
472.98        11.04725
473.42        11.11261
473.87        11.20339
474.31        11.29335
474.75        11.40729
475.20        11.51001
475.64        11.48951
476.08        11.38737
476.52        11.36956
476.97        11.44851
477.41         11.5486
477.85        11.63461
478.29        11.68489
478.74        11.69092
479.18        11.64076
479.62        11.58189
480.06        11.59171
480.50        11.66784
480.95        11.73252
481.39        11.76073
481.83        11.76889
482.27        11.75461
482.72        11.71801
483.16        11.67966
483.60        11.67156
484.04        11.70092
484.48        11.81333
484.93        12.04427
485.37         12.1451
485.81        12.21498
486.25        12.63186
486.69        13.27567
487.14        12.69123
487.58         12.6509
488.02        13.36409
488.46        12.77067
488.90        12.76233
489.34        12.61425
489.79        12.72681
490.23        13.01929
490.67        13.24362
491.11        13.34873
491.55        13.30233
491.99        13.15435
492.43        13.08612
492.88        13.13039
493.32         13.1581
493.76        13.18552
494.20        13.30351
494.64         13.5131
495.08        13.78009
495.52        14.05416
495.96        14.26791
496.41        14.40316
496.85        14.45317
497.29        14.45553
497.73        14.54154
498.17        14.70811
498.61        14.79227
499.05        14.80726
499.49        14.92452
499.93        15.15184
500.37        15.35695
500.82        15.52523
501.26        15.76385
501.70        16.02597
502.14        16.09898
502.58        16.01311
503.02         16.0036
503.46        16.09019
503.90        16.15171
504.34        16.16933
504.78         16.1664
505.22        16.14297
505.66        16.10506
506.10        16.07414
506.54         16.0788
506.98        16.12914
507.42        16.21953
507.86        16.34107
508.30        16.47808
508.74        16.61737
509.18        16.75142
509.62        16.87586
510.06        16.98563
510.50        17.07884
510.94        17.16122
511.38        17.21125
511.82        17.19673
512.26         17.1198
512.70        16.99155
513.14        16.87795
513.58        16.87901
514.02        17.00356
514.46        17.22125
514.90        17.44567
515.34        17.48198
515.78        17.31961
516.22        17.09636
516.66        16.91799
517.10        16.59702
517.54        16.16662
517.98        16.79267
518.42        16.69681
518.86        16.98477
519.30        17.10311
519.74        17.23254
520.18        17.33295
520.62        17.31676
521.06         17.1987
521.50        16.98744
521.93        16.74934
522.37        16.60441
522.81        16.58073
523.25        16.64699
523.69         16.7534
524.13        16.81874
524.57        16.81638
525.01        16.76766
525.45        16.69292
525.89        16.62376
526.32        16.57083
526.76        16.52549
527.20        16.47221
527.64        16.39344
528.08         16.2868
528.52        16.15822
528.96        16.03927
529.40        15.97388
529.83        15.96787
530.27        16.01321
530.71        16.05524
531.15        16.00819
531.59        15.86126
532.03        15.64469
532.46        15.43297
532.90        15.35831
533.34        15.43636
533.78        15.61684
534.22        15.82056
534.66        15.92608
535.09         15.8992
535.53         15.7867
535.97        15.62615
536.41        15.47478
536.85        15.35938
537.28        15.27131
537.72        15.22713
538.16        15.20613
538.60        15.28006
539.04        15.37842
539.47        15.48801
539.91        15.59056
540.35        15.68551
540.79        15.64572
541.22        15.69018
541.66        15.73456
542.10        15.86073
542.54        15.80293
542.97        15.98025
543.41        16.10132
543.85        16.27577
544.29        16.46113
544.72        16.62226
545.16        16.75275
545.60        16.84299
546.04        16.84438
546.47        16.82635
546.91        17.00705
547.35        17.35106
547.79        17.62462
548.22        17.78015
548.66        17.86413
549.10        17.90629
549.53        18.03801
549.97        18.27852
550.41        18.32254
550.84        18.51129
551.28        18.65523
551.72        18.86125
552.15        19.07494
552.59         19.2892
553.03        19.50831
553.46        19.69852
553.90        19.82617
554.34        19.88825
554.77        19.89905
555.21        19.89755
555.65        19.93569
556.08        20.02424
556.52        20.14515
556.96        20.28476
557.39        20.44715
557.83        20.61532
558.27        20.73998
558.70        20.81248
559.14        20.86069
559.57         20.8811
560.01        20.87945
560.45        20.86845
560.88        20.84266
561.32        20.85374
561.75        20.94633
562.19         21.1692
562.63        21.29599
563.06        21.33171
563.50        21.35024
563.93        21.37194
564.37        21.46752
564.80         21.5462
565.24        21.68144
565.68        21.81184
566.11        21.91922
566.55        22.01417
566.98        22.06303
567.42        22.07849
567.85        22.36342
568.29        22.34578
568.72         22.6815
569.16        23.12369
569.60        23.45619
570.03         23.6424
570.47        23.79748
570.90        23.82921
571.34        24.21513
571.77        24.18777
572.21        24.42826
572.64        24.73097
573.08        24.82179
573.51        25.07498
573.95         25.5806
574.38        25.63993
574.82        25.89145
575.25        26.06816
575.69        25.94675
576.12        25.83066
576.56        25.79128
576.99         25.9559
577.42        26.11001
577.86        26.22861
578.29        26.24532
578.73        26.70472
579.16        26.37668
579.60        25.95988
580.03        25.70201
580.47        25.89467
580.90        25.61969
581.33        25.54058
581.77        25.56847
582.20        26.06313
582.64        25.76886
583.07        25.54722
583.51        25.26268
583.94        24.67308
584.37        24.39367
584.81        24.16978
585.24        24.16043
585.68        24.20123
586.11        24.15246
586.54        23.97476
586.98        23.84725
587.41        23.80249
587.85         23.8015
588.28        23.79658
588.71        23.62169
589.15        23.34973
589.58        23.04093
590.01        23.22801
590.45        23.45757
590.88        23.18302
591.31        23.11577
591.75        22.98376
592.18        23.10936
592.61         22.9362
593.05        23.35651
593.48        23.36301
593.91        23.84529
594.35        23.60386
594.78        23.63105
595.21        23.81135
595.65        24.08925
596.08        24.07758
596.51        24.11736
596.94        24.14267
597.38        24.29502
597.81        24.61116
598.24        24.69538
598.68        25.25314
599.11        25.41928
599.54        26.21134
599.97        26.32991
600.41        26.59611
600.84        27.12734
601.27         27.4744
601.70        27.90048
602.14        28.27893
602.57        28.71089
603.00        29.22479
603.43        29.77891
603.87        30.26162
604.30        30.78341
604.73         31.3539
605.16        31.51163
605.60        32.09811
606.03        32.68632
606.46        33.33847
606.89        34.13469
607.32        34.53268
607.76        34.59917
608.19        35.19382
608.62        35.59117
609.05        35.95818
609.48        36.35437
609.92        36.80799
610.35        36.91636
610.78        37.71301
611.21        38.68546
611.64        38.33655
612.07        38.93944
612.50        39.30057
612.94         39.3225
613.37        39.98856
613.80        40.38283
614.23        40.82587
614.66        41.34245
615.09        41.55943
615.52        42.07452
615.96        42.66478
616.39        43.08452
616.82        43.36691
617.25        43.30094
617.68        43.70078
618.11        44.06738
618.54         44.5503
618.97        44.67871
619.40        44.45492
619.84        44.81376
620.27        44.53123
620.70        45.01549
621.13        45.73359
621.56        46.00874
621.99         45.8941
622.42        45.95572
622.85        46.29393
623.28        46.42155
623.71        46.30898
624.14        46.76672
624.57        46.68639
625.00         46.3882
625.43        46.80245
625.86        45.98094
626.29        46.05663
626.72        45.74314
627.15        45.61076
627.58        45.51502
628.01        45.38623
628.44        45.23476
628.87        45.04326
629.30        44.30621
629.73        44.09906
630.16         43.5069
630.59        43.27295
631.02        42.82904
631.45        42.31165
631.88        41.83011
632.31        41.37478
632.74        40.87303
633.17        40.31601
633.60         39.7441
634.03        39.16218
634.46        38.56348
634.89        37.95681
635.32        37.35497
635.75        36.76736
636.18         36.2031
636.61        35.65998
637.04        35.12673
637.47          34.598
637.89        34.07462
638.32          33.567
638.75        33.11321
639.18        32.72277
639.61        32.39218
640.04         32.0807
640.47        31.71898
640.90        31.29715
641.33        30.83965
641.76        30.41081
642.18         30.1187
642.61        29.98177
643.04        29.96579
643.47        30.01006
643.90        30.01333
644.33        29.94867
644.76        29.85354
645.18        29.75954
645.61        29.72172
646.04         29.7604
646.47        29.85472
646.90        30.01948
647.33        30.27933
647.75        30.63281
648.18        31.07381
648.61        31.54842
649.04         31.9697
649.47        32.32369
649.89        32.61611
650.32        32.92309
650.75        33.41333
651.18        34.10401
651.61        34.83564
652.03        35.55884
652.46         36.4138
652.89        37.36342
653.32        37.92732
653.74        38.18749
654.17        39.23089
654.60        39.87611
655.03        41.05154
655.46        40.70584
655.88        42.75807
656.31        44.48054
656.74        52.56184
657.16        50.89574
657.59        47.71931
658.02        46.88948
658.45        46.58923
658.87        47.33237
659.30        48.10264
659.73         48.5102
660.15        49.79628
660.58        49.70573
661.01        49.86961
661.44        49.86554
661.86          50.311
662.29         51.1813
662.72        52.17434
663.14        53.07528
663.57        53.30893
664.00        53.04845
664.42        53.18856
664.85        53.81227
665.27        54.35776
665.70        54.74955
666.13        55.10231
666.55        55.52445
666.98        55.86359
667.41        56.16175
667.83        56.41937
668.26        56.63217
668.69        56.81025
669.11        56.98059
669.54        57.16701
669.96        57.38366
670.39        57.68226
670.82        58.03832
671.24        58.27399
671.67        58.43977
672.09        58.80887
672.52         59.3209
672.94        59.70228
673.37        59.88619
673.80        59.82438
674.22        59.63798
674.65        59.63868
675.07        59.88404
675.50        60.19881
675.92        60.49834
676.35        60.67406
676.77        60.69165
677.20        60.61643
677.62        60.53067
678.05        60.48672
678.47        60.49104
678.90        60.83078
679.32         61.0251
679.75         61.2075
680.17        61.43344
680.60        61.84703
681.02        61.99272
681.45         62.1557
681.87        62.22755
682.30        62.34882
682.72        62.51887
683.15        62.62325
683.57        62.68185
684.00         62.6963
684.42        62.82085
684.85        62.97024
685.27        63.17934
685.70        63.43643
686.12        63.68191
686.54        63.87572
686.97        64.00133
687.39        63.98833
687.82        63.92652
688.24        64.04954
688.66        64.00883
689.09        64.08766
689.51        64.17206
689.94        64.27499
690.36        64.26891
690.78        64.34848
691.21        64.48009
691.63         64.4107
692.06         64.9091
692.48          64.854
692.90        65.05851
693.33         65.4995
693.75        65.24693
694.17        65.33541
694.60        65.42198
695.02        65.28119
695.44        64.95766
695.87        65.02739
696.29        65.41108
696.71        65.26237
697.14        64.78617
697.56        65.05322
697.98        65.89381
698.41        66.66416
698.83         66.4584
699.25        66.33303
699.68        66.23783
700.10        66.21156
700.52         66.3244
700.94        66.50812
701.37        66.69814
701.79        66.87555
702.21        66.99113
702.64        67.04868
703.06        67.09409
703.48        67.21316
703.90        67.42336
704.33        67.69377
704.75        67.93977
705.17        67.99408
705.59        67.83006
706.01        67.50175
706.44        67.17754
706.86        67.12429
707.28        67.38828
707.70         67.8809
708.12        68.42171
708.55         68.7224
708.97        68.71459
709.39        68.49375
709.81        68.19169
710.23        68.03902
710.66        68.11017
711.08        68.33414
711.50        68.61906
711.92        68.84206
712.34         68.9666
712.76        69.04182
713.19        69.07661
713.61        69.14325
714.03        69.23048
714.45        69.30795
714.87        69.39217
715.29        69.51244
715.71        69.66885
716.13        69.87938
716.56        70.06635
716.98         70.1398
717.40        70.08279
717.82        69.99075
718.24        69.92706
718.66         69.9919
719.08        70.16149
719.50        70.25189
719.92        70.25278
720.34        70.31091
720.76        70.42287
721.19        70.45945
721.61        70.43648
722.03        70.46389
722.45        70.54131
722.87        70.49707
723.29        70.38747
723.71        70.42407
724.13        70.62675
724.55        70.90231
724.97        71.22656
725.39        71.49924
725.81        71.67664
726.23        71.94245
726.65        72.32907
727.07        72.04286
727.49         72.3979
727.91        72.36582
728.33        72.33083
728.75        72.24229
729.17        72.12472
729.59        71.98679
730.01        71.87978
730.43        71.91317
730.85        72.09892
731.27        72.40024
731.69        72.73737
732.10        72.99655
732.52        73.12135
732.94        73.12495
733.36        73.05109
733.78        72.97792
734.20        72.95425
734.62        72.99684
735.04        73.03313
735.46        72.99903
735.88        72.87908
736.30        72.52749
736.72         72.1722
737.13        72.47505
737.55        73.26754
737.97        73.95376
738.39        74.25816
738.81        73.85361
739.23        73.02005
739.65        72.82367
740.06        73.26378
740.48        73.70892
740.90        73.99231
741.32        73.55851
741.74        73.40259
742.16        73.29365
742.57        73.55162
742.99        73.73421
743.41        73.79614
743.83        73.84967
744.25        73.87038
744.67        73.81674
745.08        73.72809
745.50          73.649
745.92        73.60812
746.34        73.58766
746.75         73.5806
747.17        73.57574
747.59        73.58093
748.01        73.62231
748.42        73.69006
748.84        73.79127
749.26        73.94437
749.68        73.93537
750.09        73.85159
750.51        74.29317
750.93        75.04549
751.35        75.04213
751.76        74.37479
752.18        74.09842
752.60        74.25359
753.01        74.25205
753.43        74.08836
753.85        74.05347
754.27        74.15178
754.68        74.43523
755.10        74.78197
755.52          74.704
755.93        74.29223
756.35        74.27841
756.77         74.6974
757.18         74.7476
757.60        74.95361
758.02        75.16176
758.43        75.40945
758.85        75.51875
759.26        76.06528
759.68         74.9351
760.10        75.38839
760.51        75.03194
760.93        74.93999
761.34        74.59006
761.76        75.18647
762.18        75.00153
762.59        74.54319
763.01        74.08495
763.42        74.44746
763.84         74.8568
764.26         75.3829
764.67         75.4562
765.09        75.23708
765.50         75.5881
765.92        76.39547
766.33        76.64795
766.75        76.20694
767.16        75.80817
767.58        75.49058
768.00        74.73261
768.41          73.909
768.83        74.17429
769.24         75.3456
769.66        76.24339
770.07        76.53946
770.49        76.28297
770.90        75.71883
771.32        75.58859
771.73        75.94059
772.15        76.24979
772.56        76.37366
772.97        76.11283
773.39        75.55008
773.80        75.39548
774.22         75.6051
774.63         75.4478
775.05        74.99548
775.46        74.91697
775.88        75.22633
776.29        75.66221
776.70        76.01899
777.12        76.09567
777.53        75.84804
777.95        75.31432
778.36        74.74225
778.77        74.55095
779.19        74.83626
779.60        75.52589
780.02          76.285
780.43        76.75044
780.84        76.81978
781.26        76.20779
781.67        75.34553
782.09        75.91518
782.50        77.53869
782.91        77.75064
783.33        76.63721
783.74        76.38731
784.15        77.05071
784.57        77.41209
784.98        77.32561
785.39         76.9964
785.81        76.50119
786.22        76.11974
786.63        75.94866
787.04         75.8553
787.46        75.86316
787.87        76.10711
788.28        76.52984
788.70        76.87766
789.11        77.08037
789.52        77.31253
789.93        77.53789
790.35        77.43739
790.76         77.1026
791.17        77.11207
791.58        77.44907
792.00        77.33429
792.41        76.73857
792.82         76.8955
793.23        76.86708
793.65        76.33636
794.06        75.48505
794.47        75.79698
794.88        77.00173
795.29        78.49656
795.71        78.83023
796.12        78.21008
796.53        78.59119
796.94         77.7019
797.35        76.58641
797.76        76.22628
798.18        76.64079
798.59        76.95692
799.00        77.00241
799.41        77.08576
799.82        77.18967
800.23        77.32072
800.64        77.46041
801.06        77.34187
801.47        77.20687
801.88         77.2193
802.29        77.44505
802.70        77.77055
803.11        78.05601
803.52        78.07944
803.93        77.81233
804.34        77.36942
804.75         76.8869
805.17        76.64112
805.58         76.7261
805.99        76.81068
806.40        76.93794
806.81        77.69031
807.22        78.68787
807.63        78.94312
808.04        78.00513
808.45         77.5278
808.86        77.63113
809.27        78.32773
809.68         79.3599
810.09        79.86554
810.50         79.6861
810.91          79.358
811.32        79.05449
811.73        78.73458
812.14        78.45806
812.55        78.37331
812.96        78.39664
813.37         78.0729
813.78        77.52384
814.19        77.48518
814.60        77.88358
815.01        78.03008
815.42        77.88668
815.83         77.8161
816.24        77.87257
816.65        77.96574
817.05        78.11247
817.46          78.297
817.87        78.47517
818.28        78.53306
818.69        78.45866
819.10         78.2726
819.51        78.09547
819.92        78.16672
820.33        78.53657
820.74        79.06062
821.14        79.58266
821.55        79.97544
821.96        80.11052
822.37        79.71886
822.78         79.0094
823.19        78.64635
823.60        78.74516
824.00        79.04046
824.41        79.32931
824.82        79.46828
825.23         79.3861
825.64        79.16005
826.04        78.91618
826.45        78.80075
826.86        78.87064
827.27        79.05843
827.68        79.31554
828.08        79.59471
828.49        79.79688
828.90        79.96672
829.31        80.06654
829.72        80.03027
830.12        79.87605
830.53        79.59489
830.94         79.2725
831.35        79.01141
831.75        78.86888
832.16        78.78262
832.57        78.77538
832.97        78.85107
833.38        78.96772
833.79         79.1142
834.20         79.2401
834.60        79.25773
835.01        79.16932
835.42        79.01499
835.82        78.81293
836.23        78.54471
836.64        78.25756
837.04        77.95152
837.45        77.75004
837.86        77.89463
838.26         78.4288
838.67        79.25494
839.08        80.10275
839.48        80.45773
839.89        80.19027
840.29        79.48015
840.70         78.7119
841.11        78.38192
841.51        78.62432
841.92        79.22767
842.33        80.03903
842.73        80.78959
843.14        81.25368
843.54        81.58444
843.95        81.68129
844.35        81.46737
844.76         80.9845
845.17        80.28139
845.57         79.5855
845.98        79.28342
846.38        79.45422
846.79        79.99468
847.19         80.7739
847.60         81.3801
848.00        81.72418
848.41         81.8343
848.81        81.83505
849.22        81.84481
849.62        81.95061
850.03        82.04482
850.43        82.13072
850.84        82.11041
851.24        82.02949
851.65         81.8762
852.05        81.74351
852.46        81.67458
852.86        81.69424
853.27        81.72141
853.67         81.6906
854.07        81.83698
854.48         82.0323
854.88        81.87148
855.29        81.36844
855.69        81.11642
856.10        81.09756
856.50        81.11115
856.90        81.07443
857.31        81.02247
857.71        81.01515
858.12        80.97728
858.52        80.97315
858.92        80.98566
859.33        80.99234
859.73        81.04185
860.13        81.10196
860.54        81.12693
860.94        81.16962
861.34        81.18643
861.75        81.15823
862.15        81.16329
862.55        81.16977
862.96        81.18782
863.36        81.18732
863.76        81.07902
864.17        80.86005
864.57        80.59652
864.97        80.39254
865.38        80.38857
865.78        80.65658
866.18         81.0624
866.58        81.48767
866.99        81.72439
867.39        81.74346
867.79        81.58741
868.19        81.16305
868.60        80.30514
869.00        79.00813
869.40        77.36283
869.80        75.83723
870.21        75.21535
870.61        75.72336
871.01        77.08447
871.41        78.65176
871.81        79.37807
872.22        79.03595
872.62        77.96967
873.02        76.64204
873.42        75.97114
873.82        76.03544
874.22        76.14488
874.63        76.33791
875.03        76.79283
875.43        77.40162
875.83        78.85582
876.23        78.92443
876.63        78.53962
877.03        77.31374
877.44        75.27321
877.84         123.305
878.24        74.77895
878.64        75.79004
879.04        78.91713
879.44        76.52533
879.84         75.0781
880.24        78.19035
880.64        78.04181
881.04        75.45699
881.44        73.86507
881.84        73.86054
882.24        74.85969
882.65        76.21626
883.05        76.77127
883.45        76.14582
883.85        74.96352
884.25        73.81416
884.65        73.34197
885.05        73.71871
885.45        74.70544
885.85        75.86433
886.25        76.48479
886.65        76.35582
887.05        75.71073
887.45        74.91158
887.85        74.48981
888.25        74.59241
888.65        75.06271
889.04        75.67978
889.44        75.99221
889.84        75.90283
890.24        75.54059
890.64        75.13492
891.04        75.02049
891.44        75.23962
891.84        75.63789
892.24         75.9743
892.64        75.85552
893.04        75.22403
893.44        74.31319
893.83        73.29599
894.23        72.43742
894.63         71.8091
895.03        71.31998
895.43        71.09896
895.83        71.36395
896.23        72.09757
896.63        73.22591
897.02        74.36717
897.42        74.80514
897.82        74.39625
898.22        73.35668
898.62        72.12093
899.01        71.36805
899.41        71.30924
899.81        71.71743
900.21        72.39541
900.61        73.04059
901.00        73.52758
901.40         73.9248
901.80        74.22923
902.20        74.40807
902.59        74.47105
902.99        74.40149
903.39        74.19625
903.79        73.87265
904.18        73.46411
904.58        73.03467
904.98        72.73908
905.38        72.80998
905.77        73.25881
906.17         74.0113
906.57         74.8075
906.96         75.2631
907.36        75.24074
907.76        74.83595
908.15        74.28852
908.55         73.9377
908.95        73.90272
909.34        74.12579
909.74        74.36716
910.14        74.21698
910.53        73.58643
910.93        72.67119
911.33        71.87241
911.72         71.8219
912.12          72.589
912.52        73.89111
912.91        75.24249
913.31        75.81272
913.70        75.46475
914.10        74.43045
914.49        73.03492
914.89        72.01429
915.29        71.66425
915.68        71.77292
916.08        72.22753
916.47        72.84493
916.87        73.49056
917.26        74.19449
917.66        74.78991
918.05        75.03561
918.45        74.85971
918.84        74.37482
919.24        73.63054
919.64        72.74887
920.03        71.84388
920.42         70.9352
920.82         70.3406
921.21        70.47989
921.61        71.33474
922.00         72.8064
922.40        74.31592
922.79        75.14599
923.19        75.07584
923.58        74.11141
923.98        72.58672
924.37        71.73917
924.77        72.06729
925.16        70.33289
925.55        71.76989
925.95         71.7254
926.34        71.74251
926.74        71.74036
927.13        71.90956
927.52        72.33516
927.92        72.97635
928.31        73.85253
928.70        74.65557
929.10        74.89268
929.49        74.45822
929.89        73.48653
930.28          72.462
930.67        72.16351
931.07        72.72646
931.46         73.9526
931.85        75.28854
932.24        75.90679
932.64        75.59502
933.03         74.5193
933.42        73.08913
933.82        72.16444
934.21        72.01099
934.60        72.39415
934.99        72.74799
935.39        72.53513
935.78        71.68165
936.17        69.89685
936.56        67.45382
936.96         68.3315
937.35        67.90543
937.74        69.69064
938.13        71.52699
938.53        72.82429
938.92        73.50591
939.31        73.80387
939.70        73.81853
940.09        73.59811
940.49        73.24895
940.88        72.79283
941.27        72.41193
941.66        72.41373
942.05        72.82668
942.44        73.53648
942.84        74.40967
943.23        75.21317
943.62        75.81125
944.01        76.29943
944.40        76.48716
944.79        76.08432
945.18        75.07702
945.57        73.48512
945.97        71.89838
946.36        71.36408
946.75        72.16536
947.14        73.93229
947.53        75.78829
947.92        76.51201
948.31        75.90428
948.70        74.36102
949.09        72.48632
949.48        71.34816
949.87        71.29317
950.26        71.97012
950.65        73.01863
951.04        73.84182
951.43        74.20358
951.82        74.31078
952.21        74.19229
952.60        73.87217
952.99        73.41676
953.38        72.79171
953.77        72.16335
954.16        71.83075
954.55        71.85234
954.94        72.17166
955.33        72.61771
955.72        72.87409
956.11        72.85507
956.50        72.65223
956.89        72.36732
957.28        72.21206
957.66        72.26778
958.05        72.36688
958.44        72.50114
958.83        72.65995
959.22        72.82008
959.61        73.03155
960.00        73.10558
960.39        72.71029
960.78        71.81901
961.16        70.51312
961.55        69.29362
961.94        68.80367
962.33        69.16603
962.72        70.22104
963.11        71.43887
963.49        71.91177
963.88        71.31723
964.27        69.95643
964.66         68.4402
965.04        67.77624
965.43        68.21963
965.82        69.48654
966.21        71.01635
966.60        71.89619
966.98        71.89425
967.37        71.26345
967.76        70.51859
968.15        70.46335
968.53        71.28027
968.92        72.57294
969.31        73.87502
969.69        74.43548
970.08        73.99748
970.47         72.9007
970.86         71.4161
971.24         69.9287
971.63        68.70066
972.02        67.65781
972.40         66.9627
972.79        66.91196
973.17        67.53722
973.56        68.64004
973.95         69.9777
974.33        71.06986
974.72        71.59565
975.11        71.68564
975.49        71.23039
975.88        70.08717
976.26        68.37906
976.65        66.25194
977.04        64.22346
977.42        63.19255
977.81        63.41096
978.19        64.61509
978.58        66.42904
978.96        68.18327
979.35        69.49588
979.74        70.59817
980.12        71.27937
980.51        70.98547
980.89        69.86302
981.28        68.01709
981.66        66.27785
982.05        65.83615
982.43        66.81665
982.82         68.8905
983.20        71.30923
983.59        72.36497
983.97        71.65801
984.35         69.5892
984.74        67.07894
985.12        65.49144
985.51        65.21803
985.89        65.86997
986.28        66.94193
986.66         67.4939
987.04        67.11037
987.43        66.27554
987.81        65.20332
988.20        64.07378
988.58        62.86248
988.96         61.3023
989.35        59.67107
989.73        58.97348
990.12        59.62934
990.50        61.43719
990.88        63.31361
991.27        64.00459
991.65        63.52931
992.03        62.17112
992.42        60.75106
992.80        60.85009
993.18        62.86348
993.56        66.00723
993.95        69.20389
994.33        71.39302
994.71        72.17879
995.10        71.95073
995.48        71.09641
995.86        70.10464
996.24        69.19495
996.63         68.2606
997.01        67.25133
997.39        66.25772
997.77        65.44693
998.15        64.91763
998.54        64.86115
998.92        65.44087
999.30        66.69885
999.68        68.79754
1000.06        71.11518
1000.45        71.52444
1000.83        69.35416
1001.21        65.63434
1001.59         62.1954
1001.97        60.43263
1002.35        60.20403
1002.73        61.06855
1003.12        62.39394
1003.50        62.88541
1003.88        61.89465
1004.26        59.97938
1004.64         57.8137
1005.02        56.24908
1005.40        55.53416
1005.78        55.36738
1006.16        55.84812
1006.54        57.09565
1006.92        58.74224
1007.30        60.46004
1007.69        61.77851
1008.07        62.43427
1008.45        62.37588
1008.83        61.66818
1009.21        60.02678
1009.59        57.39541
1009.97        54.31668
1010.35        51.20383
1010.73        49.60717
1011.11        50.86872
1011.49        54.53701
1011.86        60.05726
1012.24        64.74401
1012.62        66.09786
1013.00         64.0294
1013.38        59.48967
1013.76        54.17187
1014.14        51.13155
1014.52        51.25373
1014.90          53.606
1015.28        56.65051
1015.66        57.75269
1016.04        56.00138
1016.41        52.10519
1016.79         46.9166
1017.17         42.9414
1017.55        41.61628
1017.93        42.00518
1018.31        43.42982
1018.69        45.38456
1019.06        47.61903
1019.44        50.21528
1019.82        52.62567
1020.20        53.15793
1020.58        51.16844
1020.95        47.17648
1021.33        42.05251
1021.71        36.15713
1022.09        28.71997
1022.46        16.40232
1022.84       -0.133803
1023.22       -2.865043
1023.60        15.59592
1023.97        35.24525
1024.35        46.02228
1024.73        49.31679
