SpectraSmart Spectrum 2.9.0.0
--------- Device Information -----------
Spectrum Name :  反射率_0
Saving Time :  2024/04/20 00:48:18
Spectro-Module Model Name : SE2030-DUVN
Spectro-Module Serial Number : OS361AC55029948
Wavelength Start : 200
Wavelength End : 1025
Wavelength Unit : Wavelength(nm)
Spectrum Unit : Reflectance(%)
-----------Spectrum Setting ------------
Integration Time : 30ms
Average : 10
Boxcar : 0
Background removal :  enabled
linearity correction :  enabled
SC :  disabled
Intensity correction :  disabled
DWT denoise :  enabled
savitzky-golay :  disabled
FFT :  disabled
Running average :  disabled
Kalman :  disabled
High pass :  disabled
---------------BEGIN--------------------
Wavelength(nm)             Reflectance(%)
200.29               0
200.75          56.967
201.21        58.68221
201.67         62.4804
202.13        67.65507
202.58        73.47906
203.04        80.08915
203.50         85.3763
203.96        84.74554
204.42        78.93162
204.88         71.4999
205.34         65.0205
205.80        60.19896
206.26        56.09191
206.72        51.39277
207.18        46.22813
207.64        44.05898
208.10         47.9193
208.55        56.43748
209.01        64.04205
209.47          66.995
209.93         65.8103
210.39        62.04677
210.85        57.65089
211.31        54.64128
211.77         53.2332
212.23        52.86309
212.69        53.14863
213.14         53.2243
213.60        52.52416
214.06        52.18782
214.52        52.55599
214.98        53.96185
215.44        56.35695
215.90        59.36089
216.36        62.90255
216.81        66.24097
217.27        68.41135
217.73        69.63294
218.19        69.04184
218.65        65.35697
219.11        58.47811
219.57        48.37202
220.02        37.05704
220.48        30.52829
220.94        30.97238
221.40        37.59267
221.86        46.71074
222.32        52.34311
222.77        52.91603
223.23        50.23365
223.69        46.91464
224.15        46.70152
224.61        49.60898
225.06        53.57077
225.52        56.82017
225.98        58.07684
226.44        57.38508
226.90        55.45785
227.36        53.01342
227.81        51.19834
228.27        50.73846
228.73        51.12313
229.19        51.85886
229.65         52.3678
230.10        52.51584
230.56        52.52746
231.02         52.6013
231.48        53.00901
231.93        53.68204
232.39        54.46821
232.85        55.04107
233.31        54.94381
233.77        54.11737
234.22         52.7746
234.68        51.19735
235.14        49.80168
235.60        48.81961
236.05        48.17576
236.51        47.97362
236.97        48.33898
237.43        49.33779
237.88        51.29183
238.34        53.84235
238.80        55.90575
239.26        56.53344
239.71        55.56635
240.17        53.78021
240.63        53.08752
241.08        54.01737
241.54        56.15745
242.00        58.28985
242.46        58.03124
242.91        54.21578
243.37        45.98661
243.83        34.11249
244.28        26.78634
244.74         32.1693
245.20        48.44966
245.66        64.73274
246.11        72.07491
246.57        69.95438
247.03        59.25317
247.48        42.65834
247.94        36.32835
248.40        43.61337
248.85        53.74868
249.31        61.04992
249.77        63.98606
250.22        63.56813
250.68        61.13359
251.14        57.45817
251.59        54.30365
252.05        53.13895
252.51         53.6852
252.96        55.20871
253.42        56.52521
253.88        57.18316
254.33        57.54978
254.79        58.85599
255.25        62.06934
255.70        66.74265
256.16         71.8354
256.62        75.88562
257.07        77.32403
257.53        76.36562
257.99        73.70168
258.44        70.05357
258.90        67.19187
259.35        65.11417
259.81        63.98361
260.27        63.00219
260.72        61.46751
261.18        59.61729
261.63        57.28091
262.09        55.35252
262.55        54.54238
263.00         54.7337
263.46        55.64511
263.91         56.2463
264.37          55.623
264.83        53.78682
265.28        51.15079
265.74        48.77143
266.19        47.66355
266.65        47.98595
267.11        49.14622
267.56        50.42253
268.02         50.7923
268.47        50.04894
268.93        48.55666
269.38        46.66935
269.84         45.1804
270.30        44.31049
270.75        43.83276
271.21          43.524
271.66        43.03894
272.12        42.27371
272.57        41.36599
273.03        40.46127
273.48        39.67093
273.94        39.08648
274.39        38.61653
274.85         38.2151
275.31        37.78455
275.76        37.26487
276.22         36.6871
276.67        36.08318
277.13        35.61617
277.58        35.24521
278.04        34.97671
278.49        34.59919
278.95        33.89056
279.40        32.82144
279.86        31.58285
280.31        30.39475
280.77        29.71017
281.22        29.51603
281.68        29.67815
282.13        29.92792
282.59        29.91017
283.04        29.53221
283.50        28.95322
283.95        28.27867
284.41        27.70328
284.86        27.26425
285.32        26.92108
285.77        26.66433
286.22        26.55448
286.68        26.57232
287.13        26.67736
287.59        26.78337
288.04        26.72918
288.50         26.5068
288.95        26.13238
289.41        25.70391
289.86         25.3022
290.32        25.00874
290.77        24.79094
291.22          24.667
291.68        24.62605
292.13        24.66477
292.59        24.80605
293.04        25.04618
293.50        25.39023
293.95        25.81859
294.40        26.30482
294.86        26.82517
295.31        27.35839
295.77        27.89218
296.22        28.42786
296.68         28.9381
297.13        29.35972
297.58        29.69913
298.04        29.98534
298.49        30.29064
298.95        30.76609
299.40        31.41913
299.85        32.19567
300.31        32.99806
300.76        33.67148
301.21        34.17416
301.67        34.57664
302.12        34.89012
302.58        35.19279
303.03        35.48813
303.48        35.76807
303.94         36.0871
304.39        36.49214
304.84        36.98771
305.30        37.54618
305.75        38.06023
306.20        38.38393
306.66        38.51425
307.11        38.49342
307.57        38.41951
308.02        38.36816
308.47         38.3935
308.93        38.45684
309.38        38.57459
309.83         38.8222
310.29        39.17927
310.74        39.62003
311.19        39.98402
311.65        40.01442
312.10        39.67236
312.55         39.0452
313.00        38.35438
313.46        37.94459
313.91        37.88012
314.36         38.0749
314.82         38.3527
315.27        38.44486
315.72        38.26176
316.18        37.90206
316.63        37.47105
317.08        37.13421
317.53        36.93562
317.99        36.81109
318.44        36.70228
318.89        36.51318
319.35        36.21885
319.80        35.85712
320.25        35.48422
320.70        35.18332
321.16        34.96911
321.61        34.81838
322.06        34.66541
322.51        34.41039
322.97        34.02417
323.42         33.5443
323.87        33.03691
324.32         32.6152
324.78        32.30605
325.23        32.09101
325.68        31.89899
326.13         31.6151
326.59        31.21439
327.04        30.75957
327.49        30.32728
327.94        30.04132
328.39        29.93107
328.85        29.93604
329.30        30.02633
329.75        30.10342
330.20        30.11882
330.66         30.0687
331.11        29.96281
331.56        29.76487
332.01        29.47399
332.46        29.09461
332.92        28.65815
333.37        28.23386
333.82        27.85735
334.27        27.54284
334.72        27.29659
335.17        27.11744
335.63        26.99325
336.08        26.92454
336.53        26.92005
336.98        27.00175
337.43        27.15471
337.88        27.36654
338.34         27.5066
338.79        27.41411
339.24        27.04753
339.69        26.44983
340.14        25.83478
340.59        25.56497
341.05        25.70584
341.50        26.15593
341.95        26.65845
342.40        26.80972
342.85        26.52413
343.30        25.94467
343.75        25.27169
344.20        24.83328
344.66        24.72137
345.11        24.79981
345.56        24.98722
346.01        25.15268
346.46        25.23157
346.91        25.28264
347.36        25.23573
347.81         24.9688
348.26        24.49726
348.72        23.88832
349.17        23.29354
349.62        23.05092
350.07        23.23056
350.52        23.71066
350.97        24.31707
351.42        24.78524
351.87        25.02512
352.32         25.1029
352.77         25.0248
353.22        24.80717
353.67        24.48701
354.13        24.07863
354.58        23.65137
355.03        23.35797
355.48        23.23839
355.93        23.27079
356.38        23.39491
356.83        23.50062
357.28        23.54459
357.73        23.53912
358.18        23.50227
358.63        23.46795
359.08        23.44298
359.53        23.41589
359.98        23.34277
360.43        23.16224
360.88         22.8776
361.33        22.51943
361.78        22.18626
362.23        22.03459
362.68        22.08678
363.13        22.27796
363.58        22.49244
364.03        22.55152
364.48        22.40807
364.93        22.11922
365.38        21.73732
365.83        21.35808
366.28        21.03081
366.73        20.73182
367.18        20.49362
367.63        20.36446
368.08        20.34035
368.53        20.41109
368.98        20.50354
369.43        20.49547
369.88        20.36262
370.33        20.13901
370.78        19.88638
371.23        19.71782
371.68        19.66805
372.13        19.69634
372.58        19.77471
373.03        19.85678
373.48        19.91269
373.93         19.9509
374.38        19.94476
374.83        19.85151
375.28        19.66997
375.72         19.4065
376.17        19.12523
376.62        18.89146
377.07        18.73554
377.52        18.64683
377.97        18.61833
378.42        18.63422
378.87        18.67609
379.32        18.73456
379.77        18.79339
380.22        18.82724
380.67        18.82766
381.11        18.80544
381.56        18.73027
382.01        18.57648
382.46        18.34779
382.91        18.04895
383.36        17.76374
383.81         17.6148
384.26        17.62173
384.71        17.76403
385.15        17.90811
385.60        17.84897
386.05        17.55445
386.50        17.08568
386.95        16.63132
387.40        16.48939
387.85        16.70411
388.29        17.16067
388.74        17.63239
389.19         17.7977
389.64        17.59857
390.09        17.13751
390.54          16.608
390.98        16.31329
391.43        16.34231
391.88        16.57722
392.33        16.85034
392.78        16.92353
393.23        16.75779
393.67        16.43733
394.12        16.11309
394.57        15.93004
395.02        15.91907
395.47          16.023
395.91        16.16293
396.36        16.18869
396.81        16.06865
397.26        15.85365
397.71        15.62862
398.15        15.50113
398.60        15.51199
399.05        15.60956
399.50        15.72058
399.95        15.74333
400.39        15.65349
400.84        15.47896
401.29        15.28675
401.74         15.1995
402.18        15.25468
402.63        15.40584
403.08        15.56005
403.53        15.56803
403.97        15.40162
404.42        15.12055
404.87        14.83172
405.32        14.70984
405.76        14.79116
406.21        15.01218
406.66        15.26904
407.11        15.40028
407.55        15.36463
408.00        15.21578
408.45        15.01372
408.90        14.82676
409.34        14.70876
409.79        14.70487
410.24        14.76953
410.68        14.77169
411.13        14.69911
411.58        14.62535
412.03        14.56254
412.47        14.50858
412.92        14.46741
413.37        14.42746
413.81        14.41146
414.26        14.46978
414.71        14.59656
415.15        14.78415
415.60        14.93932
416.05        14.93419
416.49         14.7427
416.94        14.41342
417.39        14.05536
417.83        13.84538
418.28        13.83355
418.73        13.95955
419.17         14.1388
419.62        14.22504
420.07        14.18348
420.51        14.06147
420.96        13.90667
421.41        13.77502
421.85        13.68383
422.30        13.62186
422.74         13.5832
423.19        13.58692
423.64        13.62254
424.08        13.69483
424.53        13.76343
424.98         13.7796
425.42        13.73376
425.87        13.64346
426.31        13.52802
426.76        13.42778
427.21        13.34616
427.65        13.26357
428.10        13.20828
428.54        13.20537
428.99        13.25749
429.44        13.41612
429.88        13.57925
430.33        13.49545
430.77        13.20876
431.22        12.99895
431.66        12.93078
432.11        12.95788
432.56        13.07311
433.00        13.32588
433.45        13.55455
433.89        13.51317
434.34        13.27513
434.78        12.99262
435.23        12.69002
435.67         13.2567
436.12        12.84447
436.57         12.8188
437.01        12.66326
437.46        12.58561
437.90        12.58831
438.35        12.57718
438.79        12.53886
439.24        12.50789
439.68        12.48321
440.13        12.35079
440.57        12.18441
441.02        12.29854
441.46        12.57394
441.91        12.62462
442.35        12.14043
442.80        11.95262
443.24        11.93568
443.69        11.83245
444.13        11.65271
444.58        11.55037
445.02        11.53932
445.47        11.60866
445.91        11.70628
446.36        11.72118
446.80        11.62914
447.24        11.47833
447.69        11.31965
448.13        11.20257
448.58        11.15108
449.02        11.14919
449.47        11.16615
449.91        11.14817
450.36        11.08859
450.80         11.0027
451.25        10.93548
451.69        10.94137
452.13        11.03076
452.58        11.17112
453.02        11.31676
453.47        11.39655
453.91        11.39473
454.36        11.33191
454.80        11.23346
455.24        11.14466
455.69        11.08932
456.13        11.04424
456.58        11.01964
457.02        11.02319
457.46        11.05223
457.91        11.08137
458.35        11.10349
458.79        11.12935
459.24        11.15392
459.68        11.16958
460.13        11.21424
460.57        11.23686
461.01        11.22795
461.46        11.49025
461.90        11.56517
462.34        11.43616
462.79        11.48366
463.23        11.32895
463.68        11.18539
464.12        11.09709
464.56         11.1727
465.01        11.31167
465.45        11.45771
465.89        11.53912
466.34        11.54436
466.78        11.46017
467.22        11.34148
467.67        11.35839
468.11        11.49391
468.55        11.51042
468.99        11.41761
469.44        11.41833
469.88        11.51814
470.32        11.60311
470.77        11.64375
471.21        11.65478
471.65        11.63111
472.10        11.56988
472.54        11.50441
472.98        11.51875
473.42        11.62193
473.87        11.75216
474.31        11.86726
474.75        11.97227
475.20        12.03038
475.64        11.93583
476.08          11.757
476.52        11.70129
476.97        11.79024
477.41        11.93648
477.85        12.09015
478.29        12.20469
478.74         12.2599
479.18        12.24547
479.62        12.21228
480.06        12.24566
480.50        12.34342
480.95        12.41945
481.39        12.44407
481.83        12.43285
482.27        12.38695
482.72        12.31079
483.16        12.23532
483.60        12.21581
484.04        12.25818
484.48        12.38759
484.93        12.63482
485.37        12.79569
485.81        12.91383
486.25        13.43951
486.69         13.6358
487.14        13.25795
487.58        13.15564
488.02        13.91352
488.46         13.6095
488.90        13.70497
489.34        13.54992
489.79        13.64448
490.23        13.94576
490.67        14.16647
491.11        14.26272
491.55        14.22129
491.99        14.08735
492.43        14.03006
492.88        14.08019
493.32        14.11389
493.76        14.14857
494.20        14.27728
494.64        14.50204
495.08        14.78508
495.52         15.0795
495.96        15.32638
496.41        15.50665
496.85        15.60608
497.29        15.65349
497.73        15.77299
498.17        15.95615
498.61        16.03125
499.05        16.01872
499.49        16.11493
499.93        16.33397
500.37        16.53254
500.82         16.6974
501.26        16.94607
501.70        17.22838
502.14        17.31538
502.58        17.23873
503.02        17.24905
503.46        17.36588
503.90        17.45861
504.34         17.5006
504.78        17.50787
505.22        17.47912
505.66        17.42261
506.10        17.37299
506.54        17.37807
506.98        17.45173
507.42        17.58696
507.86        17.76239
508.30        17.91766
508.74        18.07159
509.18        18.19645
509.62        18.30924
510.06        18.42098
510.50        18.53444
510.94        18.64612
511.38        18.73336
511.82        18.76352
512.26        18.73453
512.70        18.65842
513.14        18.58484
513.58        18.58747
514.02        18.67316
514.46        18.82034
514.90        18.97126
515.34        18.97648
515.78        18.83938
516.22         18.6777
516.66        18.57044
517.10        18.29003
517.54        17.85881
517.98        18.43685
518.42        18.29661
518.86        18.54623
519.30         18.6521
519.74        18.78042
520.18        18.89752
520.62        18.92808
521.06        18.88208
521.50        18.76305
521.93        18.60846
522.37        18.49007
522.81        18.42835
523.25        18.41001
523.69        18.41655
524.13        18.41677
524.57        18.39849
525.01        18.36763
525.45         18.3349
525.89        18.31513
526.32        18.30919
526.76         18.3135
527.20        18.29974
527.64        18.22909
528.08         18.0971
528.52        17.91472
528.96        17.73401
529.40        17.63304
529.83        17.62489
530.27        17.69178
530.71         17.7634
531.15        17.72811
531.59        17.56793
532.03        17.32287
532.46        17.07488
532.90        16.96769
533.34        17.02232
533.78        17.18592
534.22        17.38072
534.66        17.48815
535.09        17.47333
535.53        17.38218
535.97        17.24988
536.41        17.12889
536.85         17.0431
537.28        16.98466
537.72        16.96628
538.16        16.95667
538.60        17.03617
539.04        17.12904
539.47        17.23084
539.91        17.33879
540.35        17.45501
540.79        17.43044
541.22         17.5023
541.66        17.56636
542.10        17.70909
542.54        17.63804
542.97        17.81582
543.41        17.90805
543.85        18.04058
544.29        18.17334
544.72        18.28482
545.16        18.39361
545.60        18.49416
546.04        18.52414
546.47        18.54922
546.91        18.79167
547.35        19.20364
547.79        19.52843
548.22        19.70764
548.66        19.78704
549.10        19.80029
549.53        19.89454
549.97         20.0988
550.41        20.09464
550.84         20.2638
551.28        20.39596
551.72        20.60579
552.15         20.8272
552.59        21.05066
553.03        21.28378
553.46         21.4873
553.90        21.62163
554.34        21.68111
554.77        21.67799
555.21         21.6589
555.65         21.6886
556.08        21.78013
556.52        21.91355
556.96        22.06053
557.39        22.20432
557.83        22.32494
558.27        22.37594
558.70        22.37581
559.14        22.39754
559.57        22.44397
560.01        22.50747
560.45        22.56651
560.88        22.56025
561.32        22.53358
561.75        22.55295
562.19        22.70385
562.63        22.79506
563.06        22.84386
563.50        22.91151
563.93        22.99203
564.37        23.11808
564.80        23.18134
565.24         23.2772
565.68        23.35908
566.11        23.43573
566.55        23.52413
566.98        23.57681
567.42        23.59693
567.85        23.88681
568.29        23.83302
568.72         24.1586
569.16        24.59108
569.60        24.86844
570.03        24.95669
570.47        25.00175
570.90        24.92467
571.34        25.23934
571.77         25.1853
572.21        25.41142
572.64        25.68679
573.08        25.85762
573.51          25.883
573.95        26.55786
574.38        26.66127
574.82        26.83819
575.25        26.78256
575.69        26.66614
576.12        26.77773
576.56        26.82376
576.99        26.89371
577.42        27.03023
577.86        27.00918
578.29        26.90065
578.73        27.42364
579.16        26.90973
579.60        26.85884
580.03        26.84964
580.47        26.89171
580.90        26.53684
581.33        26.27563
581.77        26.51897
582.20        26.94275
582.64        26.33173
583.07        25.92501
583.51        26.10326
583.94        25.63354
584.37         25.6772
584.81        25.29307
585.24         25.2479
585.68        25.34562
586.11          25.168
586.54        25.01344
586.98        24.92105
587.41        24.98755
587.85        25.00621
588.28        24.92128
588.71         24.7631
589.15        24.60978
589.58        24.29222
590.01        24.35667
590.45        24.85656
590.88        24.64876
591.31        24.68245
591.75        24.35387
592.18        24.55311
592.61        24.56643
593.05        24.92846
593.48        24.63406
593.91        24.99306
594.35        24.60888
594.78        24.89138
595.21        25.08029
595.65        25.40362
596.08        25.28272
596.51         25.2764
596.94        25.33172
597.38        25.49844
597.81        25.82881
598.24        25.95536
598.68         26.6217
599.11        26.69174
599.54        27.47263
599.97        27.26174
600.41        27.51122
600.84         28.1418
601.27        28.40831
601.70        28.76413
602.14        28.91211
602.57        29.27175
603.00        29.81866
603.43        30.27486
603.87        30.63196
604.30        31.00989
604.73        31.43939
605.16        31.86388
605.60        32.43153
606.03        32.93415
606.46        33.29402
606.89        33.96888
607.32        34.42419
607.76        34.46498
608.19         35.0308
608.62        35.25494
609.05        35.48833
609.48        35.76214
609.92         36.2846
610.35        36.53318
610.78        37.21014
611.21        37.83022
611.64         37.6643
612.07        38.23758
612.50         38.4192
612.94        38.45613
613.37         39.0493
613.80        39.45051
614.23        39.90457
614.66        40.30198
615.09        40.65084
615.52         40.9235
615.96        41.12339
616.39        41.34637
616.82        41.65917
617.25        41.78502
617.68        42.29783
618.11        42.65239
618.54        42.96083
618.97        43.00717
619.40        42.85992
619.84        43.10479
620.27        43.14663
620.70        43.54887
621.13         44.0312
621.56        44.27242
621.99        44.35041
622.42        44.50734
622.85        44.79421
623.28        44.87394
623.71        44.73414
624.14        45.03121
624.57        44.91543
625.00         44.6498
625.43        45.04501
625.86        44.39938
626.29        44.59853
626.72        44.40894
627.15        44.26108
627.58        44.13706
628.01         44.0064
628.44        43.83245
628.87        43.58889
629.30        43.32817
629.73         43.0677
630.16        42.70176
630.59        42.47194
631.02        42.14282
631.45        41.78728
631.88        41.42668
632.31        41.05993
632.74        40.66947
633.17        40.23847
633.60        39.75439
634.03        39.21801
634.46        38.64187
634.89          38.067
635.32        37.52617
635.75         37.0303
636.18        36.63191
636.61        36.31377
637.04        35.74231
637.47        35.37823
637.89        34.85374
638.32           34.34
638.75        33.89481
639.18        33.54121
639.61        33.26182
640.04        33.00666
640.47        32.70007
640.90        32.32609
641.33        31.93628
641.76        31.54838
642.18         31.2923
642.61        31.17221
643.04        31.15628
643.47          31.192
643.90        31.19429
644.33        31.13952
644.76        31.05839
645.18        30.97415
645.61         30.9282
646.04        30.93674
646.47         30.9838
646.90        31.08729
647.33        31.27712
647.75        31.55655
648.18        31.91975
648.61        32.31842
649.04        32.67781
649.47         32.9879
649.89        33.23917
650.32        33.49982
650.75        33.96428
651.18        34.62553
651.61        35.22575
652.03        35.73936
652.46        36.44979
652.89        37.30998
653.32        37.74009
653.74        37.78623
654.17        38.60263
654.60        38.97901
655.03        39.98947
655.46        39.83529
655.88        41.83133
656.31        42.93543
656.74        48.83421
657.16        45.85906
657.59        42.42476
658.02        43.43123
658.45        44.32126
658.87        45.26735
659.30        45.76748
659.73        46.70395
660.15         47.4058
660.58         47.4489
661.01        47.57746
661.44        47.73198
661.86        48.10009
662.29        48.68497
662.72        49.53934
663.14        50.45494
663.57        50.66322
664.00        50.32878
664.42         50.4286
664.85        51.04538
665.27        51.60373
665.70        52.00716
666.13        52.35455
666.55        52.70053
666.98        52.94223
667.41        53.13894
667.83         53.3383
668.26        53.55129
668.69        53.78072
669.11         54.0031
669.54        54.17879
669.96        54.30844
670.39        54.40224
670.82        54.51446
671.24        54.72612
671.67        55.04237
672.09        55.42345
672.52        55.78389
672.94        55.99423
673.37         56.0318
673.80        55.90345
674.22        55.72063
674.65        55.68254
675.07        55.84502
675.50        56.12422
675.92         56.4435
676.35        56.65756
676.77          56.732
677.20        56.71835
677.62        56.66488
678.05        56.65372
678.47        56.70628
678.90         56.7992
679.32        56.92507
679.75        57.06384
680.17        57.19824
680.60        57.38076
681.02        57.59039
681.45        57.63856
681.87        57.58369
682.30        57.75232
682.72        58.09326
683.15        58.16231
683.57        58.00032
684.00        57.94264
684.42        58.15704
684.85        58.29934
685.27         58.4056
685.70        58.60629
686.12        58.84821
686.54        59.01134
686.97        59.07545
687.39         59.0519
687.82        58.97388
688.24        59.00695
688.66         59.1354
689.09        59.13653
689.51        59.04321
689.94        59.10554
690.36         59.3173
690.78        59.40257
691.21        59.35356
691.63        59.45415
692.06         59.7266
692.48         59.7041
692.90        59.75273
693.33        60.18587
693.75         60.0768
694.17        60.30111
694.60        60.48774
695.02        60.37716
695.44         60.0135
695.87        59.92598
696.29        60.12421
696.71         60.0208
697.14        59.77222
697.56        60.10353
697.98        60.95592
698.41        61.49755
698.83        61.30233
699.25        61.08096
699.68        60.96294
700.10        60.89764
700.52        60.97361
700.94         61.1749
701.37        61.41348
701.79        61.59296
702.21        61.65297
702.64        61.63054
703.06        61.58161
703.48        61.60177
703.90         61.7168
704.33         61.8904
704.75        62.06096
705.17        62.10354
705.59         61.9969
706.01        61.78563
706.44        61.58538
706.86        61.57829
707.28        61.79213
707.70        62.15736
708.12        62.55611
708.55        62.80043
708.97        62.84139
709.39        62.74455
709.81        62.57197
710.23        62.43506
710.66        62.38232
711.08        62.38785
711.50        62.43917
711.92        62.53217
712.34        62.66008
712.76        62.83399
713.19        63.01584
713.61        63.18925
714.03        63.31547
714.45        63.39312
714.87        63.45154
715.29        63.54778
715.71        63.69712
716.13        63.86649
716.56        63.99204
716.98        64.10116
717.40        64.17065
717.82         63.9759
718.24        63.98747
718.66        63.94549
719.08        63.99413
719.50        64.09841
719.92        64.21645
720.34        64.27014
720.76        64.23872
721.19        64.15182
721.61        64.05568
722.03        63.99249
722.45        63.99895
722.87        64.04486
723.29        64.12581
723.71        64.22592
724.13        64.33746
724.55        64.46745
724.97        64.60531
725.39        64.73174
725.81        64.84001
726.23        64.92629
726.65        65.00576
727.07        65.10891
727.49        65.24022
727.91         65.3895
728.33        65.52971
728.75        65.61485
729.17         65.6373
729.59        65.61292
730.01        65.55882
730.43         65.5543
730.85        65.62357
731.27        65.64857
731.69        65.59975
732.10        65.95748
732.52        65.87896
732.94        66.02175
733.36        66.10974
733.78        66.13593
734.20        66.14096
734.62        66.03484
735.04         65.8079
735.46        65.87318
735.88        66.33707
736.30        65.33848
736.72        66.04263
737.13        66.15257
737.55        66.48917
737.97        66.84184
738.39        67.10193
738.81        66.94003
739.23        66.46432
739.65         66.3968
740.06        66.66048
740.48        66.78027
740.90        66.51099
741.32        66.17238
741.74        66.31863
742.16        66.37973
742.57          66.533
742.99        66.77036
743.41        67.04467
743.83        67.23627
744.25        67.30762
744.67        67.28217
745.08        67.19115
745.50        67.06402
745.92        66.93841
746.34        66.80163
746.75        66.67543
747.17        66.59409
747.59        66.56789
748.01        66.58472
748.42        66.77763
748.84        66.80889
749.26        66.79027
749.68        67.03795
750.09        67.48676
750.51        67.78806
750.93        67.86323
751.35        67.76064
751.76        67.53712
752.18        67.36353
752.60         67.2644
753.01        67.20253
753.43        67.10456
753.85        67.13131
754.27        67.24684
754.68        67.54295
755.10        67.96011
755.52        67.84096
755.93         67.8534
756.35        67.77542
756.77        67.70146
757.18        67.31902
757.60        67.95277
758.02        68.22888
758.43        68.31021
758.85        68.98547
759.26        68.91187
759.68         68.2697
760.10        68.13327
760.51        68.09805
760.93         67.4519
761.34        67.66426
761.76        68.09274
762.18        68.03938
762.59        67.59351
763.01        67.26192
763.42        67.72388
763.84        68.28761
764.26        68.68948
764.67        68.79057
765.09        68.32616
765.50        68.55714
765.92        69.25426
766.33        69.34306
766.75        68.78073
767.16        68.37157
767.58        68.19852
768.00        68.03757
768.41        67.99409
768.83        68.07387
769.24        68.57333
769.66        68.95281
770.07        69.20738
770.49        69.22761
770.90          69.103
771.32        69.19244
771.73        69.45603
772.15        69.52028
772.56        69.39362
772.97        69.19128
773.39        68.92524
773.80        69.01795
774.22        68.96808
774.63        68.64911
775.05        68.09032
775.46        67.98766
775.88        68.37392
776.29         68.9521
776.70        69.47488
777.12        69.67615
777.53        69.48241
777.95        68.94614
778.36        68.32696
778.77        68.06804
779.19        68.27605
779.60        68.86528
780.02         69.5307
780.43        69.94035
780.84        69.99787
781.26        69.46053
781.67        68.69723
782.09        69.19563
782.50        70.62537
782.91        70.75754
783.33        69.65936
783.74        69.55135
784.15        69.98344
784.57        70.31417
784.98        70.25495
785.39        69.90607
785.81        69.36021
786.22        69.04325
786.63        68.99937
787.04        68.95821
787.46        68.92936
787.87        69.12733
788.28        69.49889
788.70        69.79175
789.11        69.94926
789.52        70.08897
789.93        70.21165
790.35        70.19425
790.76        70.09148
791.17        70.14032
791.58        70.30788
792.00        70.21642
792.41        69.86366
792.82        69.70235
793.23        69.68366
793.65        69.18244
794.06        68.53515
794.47        68.76029
794.88        69.59428
795.29        70.73187
795.71        70.73365
796.12        70.05321
796.53        70.57867
796.94        70.11432
797.35        69.52898
797.76        69.51007
798.18        70.00877
798.59        70.25888
799.00        70.17952
799.41         70.1744
799.82        70.40804
800.23        70.48239
800.64        70.43649
801.06        70.30379
801.47        70.18623
801.88        70.18739
802.29        70.32135
802.70        70.52757
803.11        70.72164
803.52        70.77181
803.93        70.66194
804.34         70.4587
804.75        70.19608
805.17        70.01994
805.58        70.01112
805.99        69.81007
806.40        69.54234
806.81        70.21229
807.22        71.45449
807.63        71.40461
808.04        70.28426
808.45        70.03184
808.86         70.8035
809.27        71.60294
809.68        72.17184
810.09        72.47527
810.50         72.4052
810.91        72.02234
811.32        71.48887
811.73        71.02024
812.14        70.70233
812.55        70.51929
812.96        70.42881
813.37         70.3038
813.78        70.14053
814.19        70.06954
814.60        70.09069
815.01        70.12866
815.42        70.17442
815.83        70.23528
816.24        70.33067
816.65        70.48737
817.05        70.70481
817.46        70.93195
817.87          71.108
818.28        71.09609
818.69        70.89434
819.10        70.55459
819.51        70.22299
819.92        70.20522
820.33        70.57757
820.74        71.10091
821.14        71.66341
821.55        72.36125
821.96        72.97972
822.37        72.87701
822.78        72.17833
823.19        71.73386
823.60        71.65356
824.00        71.50227
824.41        71.24058
824.82        71.11509
825.23        71.13897
825.64          71.276
826.04        71.47885
826.45        71.61894
826.86        71.67464
827.27        71.64454
827.68        71.57249
828.08        71.62827
828.49        71.75512
828.90        71.79279
829.31        71.73363
829.72        71.71445
830.12         71.7569
830.53        71.75149
830.94        71.69711
831.35        71.59971
831.75        71.48434
832.16        71.31154
832.57        71.15562
832.97        71.11992
833.38        71.20374
833.79        71.36943
834.20        71.55051
834.60        71.63356
835.01        71.60567
835.42        71.51247
835.82        71.36848
836.23          71.147
836.64        70.89017
837.04        70.60276
837.45        70.38616
837.86        70.44878
838.26        70.82954
838.67        71.43573
839.08        72.07243
839.48        72.35916
839.89        72.19281
840.29        71.71512
840.70        71.17126
841.11        70.85546
841.51        70.86947
841.92        71.07032
842.33        71.44596
842.73        71.98119
843.14        72.53187
843.54         73.1525
843.95        73.63183
844.35        73.69921
844.76        73.32349
845.17        72.61723
845.57        71.81611
845.98         71.3083
846.38        71.19971
846.79        71.38575
847.19         71.8203
847.60        72.27599
848.00        72.69974
848.41        73.06846
848.81        73.39793
849.22        73.62993
849.62        73.79275
850.03        73.83466
850.43        73.76408
850.84        73.52567
851.24        73.19283
851.65        72.74845
852.05         72.3643
852.46        72.22157
852.86        72.36171
853.27        72.66399
853.67        72.94775
854.07        73.24443
854.48        73.39371
854.88        73.06699
855.29        72.35514
855.69        71.95042
856.10        71.89061
856.50        71.94067
856.90        72.00146
857.31        72.05897
857.71        72.14623
858.12        72.21947
858.52        72.32188
858.92        72.40173
859.33        72.43569
859.73        72.45023
860.13        72.46799
860.54        72.55251
860.94        72.76083
861.34        73.02704
861.75        73.21332
862.15        73.19479
862.55        72.91439
862.96        72.46768
863.36        71.97212
863.76        71.59887
864.17         71.4078
864.57        71.35571
864.97        71.47369
865.38        71.78876
865.78        72.31746
866.18        72.98616
866.58        73.55267
866.99        73.59492
867.39        73.05967
867.79        72.04423
868.19        70.79595
868.60         69.7016
869.00        68.86845
869.40        68.26492
869.80        67.94185
870.21         67.9411
870.61        68.28899
871.01        68.93113
871.41         69.6516
871.81        70.09247
872.22        70.18884
872.62        70.02299
873.02        69.70258
873.42          69.652
873.82        69.75726
874.22        69.39397
874.63        68.82124
875.03        68.66066
875.43        69.00366
875.83        70.70009
876.23        70.62772
876.63        70.01724
877.03        68.31027
877.44        65.64397
877.84        132.0857
878.24        65.63036
878.64        67.32803
879.04        71.76713
879.44        68.76586
879.84         67.0665
880.24        71.38574
880.64        71.40668
881.04        68.19012
881.44        66.05134
881.84        65.73542
882.24        66.53552
882.65        67.90697
883.05         68.7171
883.45        68.57309
883.85        68.14783
884.25        67.79939
884.65         67.7792
885.05        68.18678
885.45        68.88512
885.85        69.59337
886.25        69.88791
886.65        69.66594
887.05        69.08564
887.45        68.44903
887.85        68.19833
888.25        68.43763
888.65        69.03065
889.04        69.76221
889.44        70.17875
889.84        70.17294
890.24        69.87559
890.64        69.45086
891.04         69.1459
891.44        69.00953
891.84        68.92005
892.24        68.81761
892.64        68.61192
893.04        68.29859
893.44        68.00182
893.83        67.64983
894.23         67.1479
894.63        66.50123
895.03         65.7185
895.43        65.11024
895.83        65.19936
896.23        66.05172
896.63        67.49783
897.02        69.00037
897.42        69.58701
897.82        69.04155
898.22        67.68217
898.62        66.07961
899.01        65.11186
899.41        65.03894
899.81        65.56423
900.21        66.41711
900.61         67.1893
901.00        67.72136
901.40        68.11848
901.80        68.40229
902.20        68.57402
902.59        68.65479
902.99        68.61201
903.39        68.43111
903.79        68.12134
904.18         67.7119
904.58        67.26884
904.98        66.95601
905.38        67.01492
905.77        67.46075
906.17        68.21751
906.57        69.00706
906.96        69.41756
907.36        69.30558
907.76        68.76997
908.15        68.09124
908.55        67.67247
908.95        67.64417
909.34        67.93674
909.74        68.24841
910.14         68.0486
910.53        67.23567
910.93        66.05927
911.33        65.02782
911.72        64.93761
912.12        65.87904
912.52        67.49712
912.91        69.22175
913.31        70.10201
913.70        69.95522
914.10         69.0423
914.49        67.66535
914.89        66.54126
915.29        65.97873
915.68        65.79635
916.08        65.93956
916.47        66.30768
916.87         66.7858
917.26        67.40067
917.66        67.99351
918.05        68.32507
918.45        68.31058
918.84        68.04682
919.24        67.54202
919.64        66.84714
920.03        66.05276
920.42         65.1923
920.82        64.58812
921.21        64.68372
921.61        65.47318
922.00        66.84416
922.40        68.26311
922.79        69.08879
923.19        69.13364
923.58        68.35442
923.98         66.9876
924.37        66.22971
924.77        66.58173
925.16        64.23814
925.55        65.67064
925.95        65.57391
926.34        65.86797
926.74        66.34158
927.13        67.01572
927.52         67.7109
927.92        68.32121
928.31        68.94369
928.70        69.37922
929.10        69.33663
929.49        68.78758
929.89         67.8275
930.28         66.8688
930.67        66.57377
931.07        67.05423
931.46        68.16414
931.85        69.42933
932.24        70.13803
932.64        70.09731
933.03        69.40891
933.42        68.38781
933.82        67.70535
934.21        67.55227
934.60        67.76079
934.99        67.81672
935.39        67.28401
935.78        66.12823
936.17        63.92829
936.56        60.98056
936.96        62.00908
937.35        61.44515
937.74        63.55924
938.13        65.74266
938.53        67.25126
938.92        67.98181
939.31        68.20542
939.70        68.10133
940.09        67.84765
940.49        67.59273
940.88        67.31286
941.27        67.10711
941.66        67.16496
942.05        67.49693
942.44        68.03114
942.84        68.72583
943.23        69.49322
943.62        70.22965
944.01        70.97138
944.40        71.42841
944.79        71.15402
945.18        70.08693
945.57        68.29486
945.97        66.42009
946.36        65.60427
946.75        66.20445
947.14        67.84242
947.53        69.65221
947.92        70.42494
948.31        69.94359
948.70        68.58318
949.09        66.92928
949.48        66.00437
949.87        66.12933
950.26        66.97186
950.65        68.09675
951.04        68.79678
951.43        68.83379
951.82        68.43899
952.21        67.84979
952.60        67.42257
952.99        67.27361
953.38         67.2676
953.77        67.28475
954.16        67.16508
954.55        66.86929
954.94        66.48151
955.33        66.10834
955.72        65.89171
956.11        65.88378
956.50         66.0577
956.89        66.31987
957.28        66.49982
957.66        66.55035
958.05        66.43958
958.44        66.31095
958.83        66.35812
959.22         66.5989
959.61        66.98444
960.00        67.27061
960.39        67.03757
960.78        66.21485
961.16         64.9371
961.55        63.66745
961.94        62.98156
962.33        63.01141
962.72        63.61037
963.11        64.40113
963.49         64.7404
963.88        64.37392
964.27        63.53245
964.66        62.60816
965.04        62.24777
965.43        62.60392
965.82        63.46552
966.21        64.47757
966.60        65.07139
966.98        65.10442
967.37        64.74448
967.76        64.27985
968.15        64.14978
968.53        64.47636
968.92        65.00365
969.31        65.56586
969.69        65.89803
970.08        65.84859
970.47        65.56821
970.86        65.02914
971.24        64.13718
971.63        63.00399
972.02        61.69532
972.40        60.49829
972.79        59.93562
973.17        60.15655
973.56        60.93205
973.95        62.07227
974.33        63.19532
974.72        63.98434
975.11        64.51887
975.49        64.62614
975.88        64.05549
976.26        62.85286
976.65         61.1538
977.04        59.33251
977.42        58.06364
977.81        57.58931
978.19        57.74397
978.58        58.39861
978.96        59.28685
979.35        60.18843
979.74        61.25433
980.12        62.24768
980.51         62.5108
980.89        62.06921
981.28        61.01891
981.66        59.98819
982.05        59.90404
982.43        60.88211
982.82        62.62156
983.20        64.61543
983.59        65.63316
983.97        65.38789
984.35        64.15577
984.74        62.52705
985.12        61.33212
985.51        60.83636
985.89        60.78296
986.28        60.95363
986.66        61.00425
987.04        60.74408
987.43        60.40014
987.81        59.93256
988.20        59.21304
988.58        58.14354
988.96        56.57685
989.35        54.72913
989.73        53.45971
990.12        53.29835
990.50        54.15644
990.88        55.29219
991.27        55.76432
991.65        55.59199
992.03        54.98951
992.42        54.50801
992.80        55.10537
993.18        56.97995
993.56        59.53552
993.95        62.03109
994.33        63.90493
994.71        64.84582
995.10        65.06951
995.48         64.7431
995.86        64.02585
996.24        63.03255
996.63        61.73854
997.01        60.19337
997.39        58.80808
997.77        57.89644
998.15         57.4535
998.54        57.45837
998.92        57.80996
999.30        58.45505
999.68        59.57256
1000.06        60.67519
1000.45        60.32632
1000.83        58.26109
1001.21         55.2229
1001.59        52.65436
1001.97         51.6751
1002.35        52.15071
1002.73        53.79766
1003.12        55.88215
1003.50        56.69711
1003.88         55.4571
1004.26        52.80216
1004.64        49.83603
1005.02        48.06126
1005.40        47.86955
1005.78        48.82309
1006.16        50.66655
1006.54         52.6926
1006.92        54.24031
1007.30        55.29862
1007.69        55.76286
1008.07        55.73095
1008.45        55.13199
1008.83         53.8177
1009.21        51.28424
1009.59        47.21709
1009.97         42.2917
1010.35        37.45817
1010.73        34.69589
1011.11        35.40989
1011.49        39.02585
1011.86        44.89668
1012.24        50.22029
1012.62        52.46246
1013.00        51.45079
1013.38        48.12218
1013.76        43.89053
1014.14        41.31261
1014.52        41.16526
1014.90        42.61509
1015.28        44.64553
1015.66        45.52825
1016.04        44.63574
1016.41        42.54838
1016.79        39.55947
1017.17        36.61116
1017.55        34.59631
1017.93        33.26039
1018.31        32.82867
1018.69        33.59769
1019.06          35.347
1019.44        37.87473
1019.82        40.39908
1020.20        40.78485
1020.58          38.224
1020.95        33.42711
1021.33        27.49573
1021.71        20.99929
1022.09        13.12584
1022.46       0.1243797
1022.84       -17.31014
1023.22       -20.88296
1023.60       -2.380349
1023.97        18.20469
1024.35        29.42591
1024.73         32.3912
