SpectraSmart Spectrum 2.9.0.0
--------- Device Information -----------
Spectrum Name :  反射率_0
Saving Time :  2024/04/19 23:49:23
Spectro-Module Model Name : SE2030-DUVN
Spectro-Module Serial Number : OS361AC55029948
Wavelength Start : 200
Wavelength End : 1025
Wavelength Unit : Wavelength(nm)
Spectrum Unit : Reflectance(%)
-----------Spectrum Setting ------------
Integration Time : 30ms
Average : 10
Boxcar : 0
Background removal :  enabled
linearity correction :  enabled
SC :  disabled
Intensity correction :  disabled
DWT denoise :  enabled
savitzky-golay :  disabled
FFT :  disabled
Running average :  disabled
Kalman :  disabled
High pass :  disabled
---------------BEGIN--------------------
Wavelength(nm)             Reflectance(%)
200.29               0
200.75        56.20805
201.21        58.27142
201.67        62.40262
202.13        67.77689
202.58        73.62608
203.04        80.19864
203.50        85.59377
203.96        85.51192
204.42        80.48624
204.88        73.67136
205.34        67.67577
205.80        63.38229
206.26        59.97628
206.72        56.41713
207.18        52.52369
207.64         50.0712
208.10        51.07005
208.55        55.11511
209.01        59.18597
209.47        61.45584
209.93        61.89674
210.39        61.19772
210.85         59.5861
211.31        57.11492
211.77         53.6875
212.23         48.8229
212.69        43.27408
213.14         41.2374
213.60        43.90414
214.06        48.95589
214.52        53.74403
214.98        57.16215
215.44        59.55646
215.90        61.27206
216.36        62.55299
216.81        63.51437
217.27        63.99263
217.73        64.19052
218.19        63.20413
218.65        59.65675
219.11        53.37682
219.57        44.34201
220.02         34.9595
220.48        31.70281
220.94        36.46481
221.40        47.89021
221.86        60.52825
222.32         66.0728
222.77        62.87307
223.23        53.90935
223.69        44.04531
224.15        40.31601
224.61        43.08772
225.06        48.76029
225.52        54.16679
225.98        56.77558
226.44        56.50287
226.90        54.56567
227.36        51.78259
227.81        49.44949
228.27        48.44114
228.73        48.13432
229.19        48.31341
229.65        48.78197
230.10        49.33208
230.56        50.00286
231.02        50.63935
231.48        51.03486
231.93        51.12568
232.39        50.98856
232.85        50.56646
233.31        49.82983
233.77        48.81947
234.22        47.54696
234.68        46.26306
235.14         45.3118
235.60        44.84191
236.05        44.86102
236.51        45.16937
236.97        45.39447
237.43        45.48092
237.88        45.63375
238.34        46.06474
238.80        47.58035
239.26        50.29607
239.71        53.59042
240.17        56.60829
240.63        58.89745
241.08        60.43331
241.54        61.29709
242.00        61.07763
242.46        58.83178
242.91        53.91689
243.37        45.04654
243.83        32.68232
244.28        24.19904
244.74        27.44091
245.20        41.77176
245.66        56.70367
246.11        62.64735
246.57        58.78407
247.03        45.93608
247.48        27.56164
247.94        22.41399
248.40        33.05518
248.85        46.28364
249.31         55.9376
249.77        60.97668
250.22        62.76635
250.68        62.85815
251.14        61.74665
251.59        60.04037
252.05        58.46487
252.51        56.96126
252.96         55.3054
253.42        53.54286
253.88        51.98453
254.33        50.92239
254.79        51.68197
255.25        55.21922
255.70        60.77796
256.16         67.0603
256.62        72.08891
257.07        73.67379
257.53        72.09283
257.99        68.44404
258.44        63.79382
258.90        60.33765
259.35        58.14831
259.81        57.06599
260.27         56.3084
260.72        55.21931
261.18         53.9287
261.63        52.25147
262.09        50.83362
262.55        50.05274
263.00        49.84173
263.46        50.12284
263.91        50.15203
264.37        49.30211
264.83        47.60254
265.28        45.32064
265.74        43.38521
266.19        42.67487
266.65        43.28691
267.11        44.68698
267.56        46.13997
268.02         46.5871
268.47         45.8425
268.93        44.27931
269.38         42.3239
269.84        40.89883
270.30        40.25068
270.75        40.10803
271.21        40.17416
271.66        40.00098
272.12        39.44746
272.57        38.67171
273.03        37.83257
273.48        37.06688
273.94        36.47995
274.39        35.98793
274.85        35.53941
275.31        35.03433
275.76        34.42875
276.22        33.76686
276.67        33.13241
277.13        32.75172
277.58        32.58294
278.04        32.58887
278.49        32.48965
278.95        31.96103
279.40        30.95391
279.86        29.68685
280.31        28.42106
280.77        27.66318
281.22        27.42253
281.68        27.55333
282.13         27.7821
282.59        27.74047
283.04        27.34044
283.50        26.75163
283.95        26.09837
284.41        25.59344
284.86        25.27408
285.32        25.08193
285.77        24.98338
286.22        25.00211
286.68        25.10312
287.13        25.25117
287.59        25.36868
288.04        25.31229
288.50        25.08117
288.95        24.69538
289.41        24.24581
289.86        23.80278
290.32        23.45263
290.77        23.17246
291.22        23.00937
291.68        22.99476
292.13        23.12332
292.59        23.38884
293.04         23.7454
293.50        24.13233
293.95        24.51321
294.40        24.88544
294.86        25.23558
295.31        25.56026
295.77        25.86398
296.22        26.14662
296.68        26.42069
297.13        26.68782
297.58        26.96367
298.04        27.25787
298.49        27.58859
298.95         28.0139
299.40        28.52339
299.85        29.09876
300.31        29.67615
300.76         30.1586
301.21        30.52257
301.67        30.81212
302.12        31.05236
302.58        31.33605
303.03        31.65958
303.48        32.00672
303.94        32.37192
304.39        32.71237
304.84        33.01861
305.30        33.28769
305.75        33.49023
306.20        33.60176
306.66        33.63969
307.11        33.60644
307.57        33.52542
308.02        33.36355
308.47        33.15391
308.93         32.9066
309.38        32.69211
309.83        32.65882
310.29        32.81033
310.74        33.09719
311.19        33.35683
311.65        33.33162
312.10        32.97478
312.55        32.37413
313.00        31.71315
313.46        31.27565
313.91        31.11383
314.36        31.15103
314.82         31.2595
315.27        31.25291
315.72        31.06502
316.18        30.77292
316.63        30.42968
317.08        30.11504
317.53        29.85459
317.99        29.60719
318.44        29.37675
318.89        29.16944
319.35        28.98251
319.80        28.82281
320.25        28.66199
320.70        28.44915
321.16        28.17079
321.61        27.84106
322.06        27.49536
322.51        27.19782
322.97        26.95999
323.42        26.76949
323.87        26.58435
324.32        26.34065
324.78        26.01912
325.23        25.64675
325.68        25.25624
326.13        24.90648
326.59        24.61843
327.04        24.39509
327.49        24.21133
327.94        24.02702
328.39        23.82846
328.85        23.61153
329.30        23.42861
329.75        23.33396
330.20        23.33242
330.66        23.37899
331.11        23.42157
331.56         23.3287
332.01        23.06869
332.46        22.67716
332.92        22.22463
333.37        21.83294
333.82        21.55708
334.27        21.38872
334.72        21.29797
335.17        21.22832
335.63        21.15113
336.08        21.07661
336.53        21.05201
336.98        21.16005
337.43        21.39938
337.88        21.73755
338.34        22.00159
338.79        21.96035
339.24        21.55983
339.69        20.87229
340.14        20.15509
340.59        19.84142
341.05        20.01833
341.50        20.55997
341.95        21.18979
342.40         21.4751
342.85        21.31425
343.30        20.85505
343.75        20.28185
344.20         19.8965
344.66        19.78574
345.11        19.81744
345.56         19.9307
346.01        20.03164
346.46        20.06852
346.91        20.09532
347.36        20.03348
347.81        19.74418
348.26        19.24047
348.72        18.60032
349.17        17.98281
349.62        17.73775
350.07        17.93816
350.52        18.45499
350.97        19.10892
351.42        19.62972
351.87        19.92283
352.32        20.05271
352.77        20.01793
353.22        19.82472
353.67        19.50544
354.13        19.07178
354.58        18.60246
355.03        18.26321
355.48        18.09898
355.93        18.09127
356.38        18.16696
356.83        18.19307
357.28        18.12772
357.73        17.99451
358.18        17.84882
358.63        17.78432
359.08        17.81693
359.53        17.91057
359.98        17.97382
360.43        17.87413
360.88        17.59598
361.33        17.19004
361.78        16.77985
362.23        16.56408
362.68        16.58179
363.13        16.75765
363.58        16.96988
364.03        17.03168
364.48        16.89221
364.93        16.61189
365.38        16.24947
365.83        15.90637
366.28        15.63162
366.73         15.4005
367.18        15.22331
367.63        15.11664
368.08        15.07216
368.53        15.08513
368.98        15.12342
369.43        15.12828
369.88        15.08553
370.33        15.01306
370.78        14.91108
371.23        14.78935
371.68        14.65658
372.13        14.49714
372.58         14.3627
373.03        14.34116
373.48        14.43643
373.93        14.61971
374.38        14.77453
374.83        14.72015
375.28        14.42961
375.72        13.95656
376.17        13.45722
376.62        13.14419
377.07        13.08036
377.52        13.20012
377.97        13.41103
378.42        13.56729
378.87        13.61945
379.32        13.60582
379.77        13.56322
380.22        13.54458
380.67        13.56356
381.11         13.6002
381.56        13.61051
382.01        13.54499
382.46         13.3948
382.91         13.1774
383.36        12.96079
383.81        12.84205
384.26        12.83811
384.71        12.92796
385.15        13.01663
385.60        12.95768
386.05        12.73033
386.50        12.38391
386.95        12.04745
387.40        11.92412
387.85        12.04565
388.29        12.33267
388.74        12.63904
389.19        12.76695
389.64        12.67504
390.09        12.42583
390.54        12.11922
390.98        11.91007
391.43        11.85646
391.88          11.899
392.33        11.96626
392.78        11.95715
393.23        11.85521
393.67        11.69398
394.12        11.54854
394.57         11.4764
395.02        11.49021
395.47        11.56564
395.91        11.65862
396.36        11.68234
396.81        11.61835
397.26        11.48568
397.71        11.34463
398.15        11.27364
398.60        11.30135
399.05        11.39745
399.50        11.48698
399.95        11.46144
400.39        11.30245
400.84        11.04085
401.29        10.77847
401.74        10.70049
402.18        10.85493
402.63        11.17228
403.08        11.50706
403.53        11.63084
403.97        11.49675
404.42        11.18724
404.87        10.83672
405.32        10.66679
405.76        10.73062
406.21        10.94741
406.66        11.21395
407.11        11.37054
407.55        11.37345
408.00         11.2828
408.45        11.13857
408.90        10.97987
409.34        10.85032
409.79        10.78246
410.24        10.77554
410.68        10.78606
411.13         10.8106
411.58        10.88979
412.03        10.98374
412.47         11.0039
412.92        10.93361
413.37        10.79335
413.81        10.65498
414.26        10.64346
414.71        10.77442
415.15        11.01364
415.60        11.25312
416.05        11.33679
416.49        11.22286
416.94        10.97138
417.39        10.67309
417.83        10.47484
418.28        10.42569
418.73        10.47276
419.17        10.57072
419.62        10.63543
420.07        10.64516
420.51        10.62994
420.96        10.59826
421.41        10.54465
421.85        10.47329
422.30         10.3918
422.74        10.32422
423.19        10.33124
423.64         10.4125
424.08        10.55318
424.53        10.69798
424.98        10.76814
425.42        10.74045
425.87        10.64423
426.31        10.49993
426.76        10.34793
427.21        10.19961
427.65        10.03985
428.10        9.916759
428.54        9.892199
428.99        9.974264
429.44        10.18588
429.88        10.41816
430.33        10.42798
430.77        10.23805
431.22        10.07906
431.66        10.01461
432.11        10.03082
432.56        10.12946
433.00        10.34087
433.45        10.53823
433.89        10.52999
434.34        10.36911
434.78        10.17611
435.23          9.9631
435.67        10.41619
436.12        10.08368
436.57        10.04049
437.01        9.893616
437.46        9.827496
437.90        9.847612
438.35        9.873473
438.79        9.877957
439.24        9.863315
439.68        9.822164
440.13        9.672226
440.57         9.48576
441.02        9.527047
441.46        9.707908
441.91        9.726171
442.35         9.33515
442.80        9.163759
443.24        9.110942
443.69        8.987352
444.13        8.808037
444.58        8.704062
445.02        8.687562
445.47        8.743298
445.91          8.8271
446.36        8.848596
446.80        8.784869
447.24        8.674349
447.69        8.548416
448.13        8.431661
448.58        8.343143
449.02        8.274588
449.47        8.220265
449.91        8.168181
450.36        8.119493
450.80        8.076777
451.25         8.05684
451.69        8.071964
452.13        8.123767
452.58         8.19622
453.02        8.268168
453.47        8.302382
453.91        8.293982
454.36        8.253894
454.80        8.196123
455.24        8.148213
455.69        8.124406
456.13        8.106723
456.58         8.10731
457.02        8.138375
457.46        8.197514
457.91        8.262125
458.35        8.313662
458.79        8.337905
459.24        8.330609
459.68        8.292794
460.13        8.276595
460.57        8.278873
461.01        8.300448
461.46        8.551744
461.90         8.67092
462.34        8.603196
462.79        8.627293
463.23        8.471889
463.68        8.316309
464.12        8.223633
464.56        8.284759
465.01        8.409888
465.45        8.551092
465.89           8.646
466.34        8.681554
466.78        8.652918
467.22        8.589037
467.67        8.598127
468.11        8.664455
468.55        8.613156
468.99        8.479181
469.44        8.456747
469.88        8.557679
470.32        8.684403
470.77        8.783265
471.21          8.8164
471.65        8.768045
472.10        8.654679
472.54        8.524753
472.98        8.481868
473.42        8.545929
473.87           8.658
474.31        8.776458
474.75        8.887245
475.20        8.956399
475.64         8.90902
476.08        8.796563
476.52        8.775265
476.97        8.860305
477.41        8.983577
477.85        9.102135
478.29        9.174296
478.74        9.185802
479.18        9.133491
479.62        9.064706
480.06        9.057739
480.50        9.112624
480.95        9.157871
481.39        9.169899
481.83        9.157467
482.27        9.122576
482.72        9.074493
483.16        9.024047
483.60        9.010065
484.04        9.029822
484.48        9.079743
484.93        9.231565
485.37        9.439466
485.81         9.62742
486.25        10.30441
486.69        10.00808
487.14        9.749149
487.58        9.822618
488.02        10.44122
488.46        9.901411
488.90        9.853277
489.34        9.811161
489.79        9.954116
490.23        10.21354
490.67        10.38705
491.11        10.43122
491.55          10.344
491.99        10.17023
492.43        10.04875
492.88        10.01472
493.32        9.974808
493.76        9.955957
494.20        10.04472
494.64         10.2426
495.08        10.51614
495.52        10.80701
495.96        11.02991
496.41         11.1611
496.85        11.20608
497.29        11.19696
497.73         11.2406
498.17        11.33964
498.61        11.36757
499.05         11.3462
499.49        11.42525
499.93        11.61408
500.37        11.80809
500.82        11.98012
501.26        12.18755
501.70        12.38834
502.14        12.42618
502.58        12.33619
503.02        12.31932
503.46        12.39489
503.90        12.45989
504.34        12.49574
504.78        12.51472
505.22        12.51283
505.66        12.49836
506.10        12.47788
506.54        12.45651
506.98        12.44288
507.42        12.44022
507.86        12.46585
508.30        12.54686
508.74        12.68158
509.18        12.85187
509.62        13.03225
510.06        13.18227
510.50        13.28913
510.94        13.36743
511.38        13.40808
511.82        13.39978
512.26        13.34885
512.70        13.25611
513.14        13.17485
513.58        13.18756
514.02        13.29959
514.46        13.48816
514.90         13.6764
515.34        13.68834
515.78        13.50823
516.22        13.28177
516.66        13.11236
517.10        12.79793
517.54        12.36856
517.98        13.04476
518.42         12.9599
518.86        13.25605
519.30        13.35472
519.74        13.45042
520.18        13.51455
520.62         13.4773
521.06        13.35992
521.50        13.16488
521.93        12.95568
522.37        12.84686
522.81        12.86182
523.25        12.96999
523.69        13.11409
524.13        13.20146
524.57         13.2042
525.01        13.14641
525.45        13.05799
525.89        12.98752
526.32        12.94903
526.76        12.92723
527.20        12.90012
527.64         12.8387
528.08        12.73762
528.52        12.60963
528.96        12.48443
529.40        12.40257
529.83        12.37252
530.27        12.38564
530.71        12.40375
531.15        12.36707
531.59         12.2669
532.03         12.1241
532.46        11.98712
532.90          11.945
533.34        12.00585
533.78        12.13467
534.22         12.2762
534.66        12.34709
535.09        12.32298
535.53        12.23532
535.97        12.11219
536.41        11.99592
536.85        11.90668
537.28        11.84188
537.72        11.80917
538.16        11.78258
538.60         11.8186
539.04        11.86572
539.47        11.93076
539.91        12.02582
540.35        12.15229
540.79        12.19922
541.22        12.31314
541.66        12.39092
542.10        12.48821
542.54        12.40883
542.97        12.49654
543.41        12.54667
543.85        12.65476
544.29        12.78202
544.72         12.9033
545.16          13.016
545.60        13.11139
546.04        13.15205
546.47        13.18176
546.91        13.35462
547.35        13.63722
547.79        13.84655
548.22        13.95556
548.66        14.01672
549.10        14.05742
549.53        14.17762
549.97        14.38076
550.41        14.40479
550.84        14.51587
551.28        14.57544
551.72         14.6909
552.15        14.85723
552.59        15.07437
553.03        15.33066
553.46        15.57328
553.90        15.73515
554.34        15.80394
554.77        15.80129
555.21        15.77298
555.65        15.78312
556.08        15.84804
556.52        15.94838
556.96        16.06549
557.39        16.19166
557.83        16.31168
558.27        16.39153
558.70        16.43618
559.14        16.48284
559.57        16.53036
560.01        16.57658
560.45        16.61462
560.88        16.61424
561.32        16.61291
561.75        16.65522
562.19         16.7961
562.63        16.88061
563.06        16.91943
563.50        16.96293
563.93        17.01789
564.37        17.12516
564.80        17.20719
565.24         17.3272
565.68        17.43931
566.11        17.53246
566.55        17.61658
566.98        17.66424
567.42        17.68489
567.85        17.91491
568.29        17.89771
568.72        18.17094
569.16         18.5345
569.60        18.79992
570.03        18.93225
570.47         19.0501
570.90        19.08411
571.34        19.36189
571.77        19.25956
572.21         19.5516
572.64        19.74124
573.08        19.80878
573.51        20.01093
573.95        20.54236
574.38         20.6727
574.82        20.92743
575.25         21.0412
575.69        21.01693
576.12        20.84779
576.56        20.75985
576.99        20.84087
577.42        20.75897
577.86        20.86206
578.29        21.11424
578.73        21.28594
579.16        21.13723
579.60        20.76401
580.03         20.7596
580.47        20.96835
580.90        20.62884
581.33        20.42991
581.77        20.57315
582.20        20.69179
582.64        20.49362
583.07        20.35154
583.51        20.43177
583.94         19.8131
584.37        19.48679
584.81        19.24409
585.24        19.15097
585.68        19.17417
586.11        19.10628
586.54        19.11028
586.98         19.0609
587.41        19.02955
587.85        18.96105
588.28        18.85842
588.71        18.76649
589.15        18.73443
589.58        18.44173
590.01        18.54158
590.45        18.78196
590.88        18.54032
591.31        18.45717
591.75        18.31749
592.18        18.39664
592.61        18.25598
593.05         18.5774
593.48        18.58446
593.91        18.93653
594.35        18.70939
594.78         18.9533
595.21        19.13878
595.65        19.35059
596.08        19.18698
596.51        19.21258
596.94        19.36067
597.38        19.52473
597.81         19.7384
598.24        19.79187
598.68        20.28349
599.11        20.46808
599.54        21.13941
599.97        21.15682
600.41        21.60892
600.84         22.1844
601.27        22.53845
601.70        22.86773
602.14        23.03054
602.57        23.41705
603.00        24.01776
603.43        24.52098
603.87        24.90634
604.30        25.38695
604.73        25.93736
605.16        26.34241
605.60        26.61459
606.03        27.13671
606.46        27.79547
606.89        28.56595
607.32        28.89665
607.76         29.3639
608.19        29.74552
608.62        30.07001
609.05         30.3371
609.48        30.55412
609.92        31.05434
610.35        31.26046
610.78         32.1235
611.21        32.86642
611.64        32.89431
612.07        33.37154
612.50        33.57243
612.94        34.04025
613.37         34.3588
613.80        34.74223
614.23        35.10041
614.66        35.65622
615.09        36.03804
615.52        36.51842
615.96        36.93328
616.39        37.30313
616.82        37.67249
617.25        37.66621
617.68        38.09769
618.11        38.43895
618.54        38.85093
618.97        39.00658
619.40        38.93743
619.84        39.15268
620.27        39.05261
620.70        39.57546
621.13        40.35449
621.56         40.5774
621.99        40.35754
622.42        40.41872
622.85        40.82304
623.28        40.98462
623.71        40.90765
624.14        40.95025
624.57        41.15557
625.00        40.75911
625.43         41.0007
625.86        40.26358
626.29        40.18995
626.72        39.88387
627.15        39.74882
627.58        39.67773
628.01        39.59327
628.44          39.449
628.87         39.2143
629.30        38.61095
629.73        38.33965
630.16        37.73035
630.59         37.3898
631.02         36.9617
631.45         36.5465
631.88        36.09391
632.31        35.58792
632.74        35.05632
633.17        34.50314
633.60        33.89797
634.03        33.32054
634.46        32.71615
634.89        32.12376
635.32        31.54879
635.75        30.99572
636.18        30.50467
636.61        30.07072
637.04         29.4855
637.47        29.05155
637.89        28.52569
638.32        28.01627
638.75        27.55929
639.18        27.17133
639.61        26.84256
640.04        26.54426
640.47         26.2348
640.90        25.90458
641.33        25.56965
641.76        25.26159
642.18        25.03445
642.61        24.89481
643.04        24.82133
643.47        24.78804
643.90        24.75242
644.33        24.70352
644.76        24.66328
645.18        24.63293
645.61        24.61861
646.04        24.62933
646.47        24.66279
646.90        24.76238
647.33        24.99844
647.75        25.37964
648.18        25.87999
648.61        26.42504
649.04        26.89848
649.47        27.27868
649.89         27.5809
650.32        27.88064
650.75        28.36479
651.18        29.04808
651.61        29.71852
652.03         30.3665
652.46        31.25135
652.89        32.31558
653.32        33.00736
653.74        33.36505
654.17        34.30725
654.60        34.78153
655.03        35.95749
655.46         36.4987
655.88        37.77913
656.31        39.16476
656.74        44.34375
657.16        45.12156
657.59        44.10524
658.02        43.26596
658.45        42.72776
658.87        43.28624
659.30        43.98451
659.73        45.10765
660.15        45.70929
660.58        46.34954
661.01         46.4519
661.44        46.44374
661.86        46.97492
662.29        48.01724
662.72        49.01005
663.14        49.75266
663.57        50.02869
664.00        49.98868
664.42        50.24825
664.85        50.88514
665.27        51.48309
665.70        51.95454
666.13         52.3959
666.55        52.78812
666.98        53.10094
667.41        53.36127
667.83        53.60536
668.26        53.83987
668.69        54.07037
669.11         54.2956
669.54        54.49442
669.96        54.67132
670.39        54.87649
670.82        55.12072
671.24        55.34021
671.67        55.59715
672.09        56.05347
672.52        56.55368
672.94         57.1352
673.37        56.86732
673.80        56.78808
674.22        56.73708
674.65        56.73434
675.07        56.80762
675.50        57.04389
675.92        57.40144
676.35        57.52246
676.77        57.33612
677.20        57.73409
677.62        57.37224
678.05        57.46306
678.47        57.60126
678.90        57.91019
679.32        58.12356
679.75        58.37485
680.17        58.58237
680.60        58.79237
681.02        58.98494
681.45        59.00319
681.87        58.92659
682.30        58.97861
682.72        59.27014
683.15        59.33386
683.57        59.22278
684.00        59.09286
684.42        59.14623
684.85        59.25735
685.27        59.46948
685.70        59.79006
686.12         60.1274
686.54         60.3567
686.97        60.44915
687.39        60.41035
687.82        60.28661
688.24        60.31847
688.66        60.49403
689.09        60.44745
689.51        60.25129
689.94        60.44169
690.36        60.94134
690.78        61.05075
691.21         60.7943
691.63        60.84369
692.06         61.2408
692.48        61.32138
692.90        61.37252
693.33        61.79782
693.75        61.63065
694.17        61.69602
694.60        61.69261
695.02         61.6302
695.44        61.50394
695.87        61.49602
696.29        61.57207
696.71         61.4069
697.14        61.23792
697.56        61.55346
697.98        62.32102
698.41        63.51457
698.83         62.9184
699.25        62.70943
699.68         62.5636
700.10        62.48071
700.52        62.57135
700.94        62.78882
701.37         63.0493
701.79        63.29427
702.21        63.47352
702.64        63.35351
703.06        63.45408
703.48        63.49513
703.90        63.63791
704.33        63.84269
704.75        64.04772
705.17        64.08802
705.59        63.92764
706.01        63.72891
706.44        63.49015
706.86        63.44291
707.28        63.60946
707.70        64.14209
708.12        64.83349
708.55        65.07458
708.97        64.86066
709.39        64.71059
709.81        64.69888
710.23        64.61122
710.66        64.49132
711.08        64.50488
711.50        64.63476
711.92        64.78014
712.34        64.92659
712.76        65.10831
713.19        65.28918
713.61        65.45969
714.03         65.5847
714.45        65.65337
714.87        65.67432
715.29        65.74352
715.71        65.88771
716.13        65.95277
716.56        65.86031
716.98        66.29906
717.40        66.10699
717.82        66.11969
718.24        66.17352
718.66        66.21877
719.08        66.30246
719.50        66.41987
719.92        66.54443
720.34        66.61223
720.76        66.61526
721.19        66.52765
721.61        66.41273
722.03        66.44449
722.45        66.61192
722.87        66.64516
723.29         66.5599
723.71        66.57529
724.13        66.69859
724.55        66.82297
724.97         66.9404
725.39        67.03933
725.81        67.14349
726.23        67.37054
726.65        67.67539
727.07        67.86786
727.49        67.92683
727.91        67.94501
728.33        67.95459
728.75         67.9705
729.17        68.01459
729.59        68.08975
730.01        68.16613
730.43        68.23649
730.85        68.30394
731.27        68.26208
731.69        68.15873
732.10         68.4263
732.52        68.75378
732.94        68.79617
733.36        68.49915
733.78        68.43201
734.20        68.65378
734.62        68.70216
735.04        68.47683
735.46        68.99557
735.88        68.53291
736.30        68.44075
736.72        68.32014
737.13        68.34526
737.55         68.4839
737.97        68.93933
738.39        69.50398
738.81        69.37847
739.23        68.72256
739.65        68.53342
740.06        68.82681
740.48        69.19834
740.90        69.49892
741.32        69.02348
741.74        68.72002
742.16        68.55216
742.57        68.75468
742.99        68.93799
743.41        69.01925
743.83        69.08522
744.25         69.1004
744.67        69.03453
745.08        68.92581
745.50         68.8107
745.92        68.72203
746.34        68.65456
746.75        68.59833
747.17        68.53622
747.59        68.47259
748.01        68.42593
748.42        68.42794
748.84        68.52152
749.26        68.72043
749.68          68.904
750.09        69.05347
750.51        69.33907
750.93        69.64494
751.35        69.54926
751.76        69.13539
752.18        68.90753
752.60        68.88488
753.01        68.97574
753.43        68.85142
753.85        68.94098
754.27        69.12685
754.68        69.56614
755.10        70.05306
755.52        69.85469
755.93        69.12748
756.35        68.91161
756.77        69.26179
757.18         69.3921
757.60        69.37996
758.02        69.73358
758.43        70.22739
758.85        70.49107
759.26        70.76503
759.68        69.40971
760.10        69.24231
760.51        68.98922
760.93        69.51373
761.34        68.95071
761.76        69.59427
762.18        69.34148
762.59        69.01744
763.01        68.77823
763.42        69.03329
763.84        69.46706
764.26        70.01223
764.67         70.0777
765.09        69.82499
765.50        70.11508
765.92        70.83933
766.33        71.07719
766.75        70.70839
767.16        70.24246
767.58        69.76809
768.00        69.30761
768.41        69.07533
768.83        69.19715
769.24         69.6396
769.66        70.48304
770.07          71.356
770.49        71.31094
770.90        70.53239
771.32         70.2893
771.73        70.66169
772.15        70.82972
772.56        70.71922
772.97        70.53667
773.39        70.28161
773.80        70.08333
774.22        69.93705
774.63        69.67719
775.05        69.40324
775.46        69.42197
775.88        69.74216
776.29        70.30264
776.70        70.85925
777.12        71.03732
777.53        70.76522
777.95        70.13857
778.36        69.45502
778.77        69.18817
779.19        69.46999
779.60        70.25648
780.02        71.16598
780.43        71.71356
780.84        71.77245
781.26        71.08653
781.67        70.12663
782.09        70.67224
782.50        72.33895
782.91        72.54222
783.33        71.34843
783.74         71.0148
784.15        71.59613
784.57        71.81476
784.98        71.58273
785.39        71.25529
785.81        70.91145
786.22        70.73108
786.63        70.73148
787.04        70.71458
787.46        70.68464
787.87        70.78149
788.28        71.01607
788.70        71.28204
789.11        71.54249
789.52        71.86084
789.93        72.15115
790.35        72.18114
790.76        71.95924
791.17        71.70224
791.58        71.49612
792.00        71.19553
792.41        70.86479
792.82        70.93176
793.23         71.1842
793.65        70.79112
794.06        70.11505
794.47        70.17567
794.88        70.75018
795.29        72.78642
795.71        72.41893
796.12         72.3891
796.53         72.8009
796.94        72.09836
797.35        70.97596
797.76        70.73253
798.18        71.38016
798.59        71.74983
799.00        71.69456
799.41        71.71632
799.82        71.82539
800.23        71.94854
800.64        72.08237
801.06         71.9576
801.47        71.90944
801.88         71.8728
802.29        71.93996
802.70        72.01166
803.11        72.06622
803.52        72.07161
803.93        72.03298
804.34        72.03258
804.75          72.007
805.17        71.88406
805.58        71.75071
805.99        71.39438
806.40        71.02255
806.81        71.77312
807.22        73.22596
807.63        73.22778
808.04        71.99168
808.45        71.66072
808.86        72.42792
809.27        73.27159
809.68        73.91132
810.09        74.22891
810.50        74.10468
810.91        73.67093
811.32        73.11811
811.73        72.63732
812.14        72.31252
812.55        72.21313
812.96        72.26308
813.37        72.06599
813.78        71.69727
814.19        71.76194
814.60        72.16104
815.01        72.28014
815.42        72.08189
815.83        71.86101
816.24        71.72955
816.65        71.75642
817.05        71.98917
817.46        72.35921
817.87        72.74691
818.28        72.92365
818.69        72.85645
819.10         72.6177
819.51        72.34114
819.92        72.33356
820.33        72.68061
820.74        73.08273
821.14         73.4762
821.55        74.18453
821.96        74.94469
822.37        74.77121
822.78        73.83585
823.19        73.35271
823.60        73.45485
824.00        73.51191
824.41        73.40051
824.82        73.32246
825.23        73.26141
825.64        73.18944
826.04        73.16378
826.45        73.21609
826.86        73.36114
827.27        73.58468
827.68        73.81924
828.08         73.9758
828.49        73.97057
828.90         73.8475
829.31        73.68259
829.72        73.61396
830.12        73.69727
830.53        73.86063
830.94        74.02078
831.35        74.01765
831.75        73.84748
832.16        73.52773
832.57        73.19741
832.97        73.06752
833.38        73.17118
833.79        73.42999
834.20        73.74091
834.60        73.93791
835.01        73.98743
835.42        73.95407
835.82         73.8467
836.23        73.62573
836.64        73.33479
837.04        72.97439
837.45        72.67528
837.86        72.69892
838.26        73.09667
838.67        73.76755
839.08        74.47635
839.48         74.7663
839.89        74.52088
840.29         73.9138
840.70        73.24712
841.11        72.89528
841.51         72.9747
841.92        73.30903
842.33        73.84963
842.73        74.51698
843.14        75.13416
843.54        75.77468
843.95        76.22008
844.35        76.19384
844.76        75.67799
845.17        74.79289
845.57        73.81721
845.98        73.20458
846.38        73.07233
846.79        73.30044
847.19        73.81422
847.60        74.32251
848.00        74.75568
848.41        75.11605
848.81         75.4286
849.22        75.65201
849.62        75.82264
850.03        75.86541
850.43        75.82799
850.84        75.72234
851.24        75.62954
851.65        75.51115
852.05        75.42391
852.46        75.38786
852.86        75.42381
853.27        75.39104
853.67        75.27077
854.07        75.53891
854.48        75.98977
854.88        75.77204
855.29        74.96141
855.69        74.64801
856.10         74.8615
856.50        75.10672
856.90        75.23763
857.31        75.30343
857.71         75.3372
858.12         75.2839
858.52        75.21825
858.92        75.14244
859.33        75.05312
859.73        74.96822
860.13        74.95623
860.54        75.15165
860.94        75.61481
861.34        76.25101
861.75        76.78838
862.15        76.88802
862.55        76.44112
862.96        75.59659
863.36        74.61208
863.76         73.8982
864.17        73.59747
864.57        73.61693
864.97        73.89001
865.38        74.28629
865.78        74.77345
866.18        75.30764
866.58        75.73978
866.99         75.8051
867.39        75.48438
867.79        74.82153
868.19        73.87643
868.60        72.74936
869.00        71.49168
869.40        70.14501
869.80        69.02592
870.21        68.63218
870.61        69.10712
871.01        70.26922
871.41        71.59164
871.81        72.22024
872.22        71.98351
872.62        71.13596
873.02        70.07661
873.42        69.67934
873.82        69.94337
874.22        70.10486
874.63        70.23174
875.03        70.55161
875.43        70.98669
875.83        72.43845
876.23        72.11826
876.63        71.37456
877.03        69.73705
877.44        67.27821
877.84        130.4937
878.24        67.21398
878.64        68.51691
879.04        72.43288
879.44        69.13544
879.84        67.30121
880.24        71.67569
880.64        71.90529
881.04        69.02189
881.44        67.17126
881.84        67.00259
882.24        67.85442
882.65        69.14082
883.05        69.69105
883.45        69.13208
883.85        68.15443
884.25         67.2829
884.65        67.00837
885.05        67.46628
885.45        68.44968
885.85        69.53796
886.25        70.05446
886.65        69.81577
887.05        69.05973
887.45        68.15471
887.85        67.64478
888.25        67.67744
888.65        68.08066
889.04        68.67257
889.44        69.06843
889.84        69.16177
890.24        69.06022
890.64        68.85502
891.04        68.67547
891.44        68.54301
891.84        68.37012
892.24        68.11707
892.64        67.74281
893.04        67.27036
893.44        66.80213
893.83        66.31339
894.23          65.774
894.63        65.18838
895.03        64.55763
895.43        64.08953
895.83        64.12974
896.23        64.71552
896.63        65.73354
897.02        66.80309
897.42        67.22537
897.82        66.85413
898.22         65.9171
898.62        64.82819
899.01        64.22615
899.41        64.29691
899.81         64.8045
900.21        65.55308
900.61        66.25008
901.00        66.77091
901.40        67.18433
901.80        67.46012
902.20        67.52541
902.59        67.38687
902.99        67.04351
903.39        66.57172
903.79         66.1162
904.18        65.74296
904.58        65.49366
904.98        65.40564
905.38        65.52773
905.77        65.84144
906.17        66.31568
906.57         66.8412
906.96        67.27486
907.36         67.5082
907.76         67.5421
908.15        67.42796
908.55        67.21104
908.95        66.94797
909.34        66.68687
909.74        66.35151
910.14        65.80636
910.53        65.06996
910.93        64.25614
911.33         63.7176
911.72        64.01186
912.12        65.14127
912.52        66.82336
912.91        68.50778
913.31        69.26247
913.70        68.92822
914.10        67.75814
914.49        66.09377
914.89        64.75629
915.29        64.10428
915.68        63.94696
916.08        64.22266
916.47        64.81164
916.87        65.57155
917.26        66.51818
917.66        67.42844
918.05        67.95568
918.45        67.98721
918.84        67.64785
919.24        66.99102
919.64        66.15441
920.03        65.26251
920.42        64.32339
920.82        63.67405
921.21        63.77726
921.61        64.61905
922.00        66.08803
922.40        67.58683
922.79        68.36217
923.19        68.20815
923.58        67.10552
923.98        65.37421
924.37        64.40592
924.77        64.76842
925.16         62.4208
925.55        64.10125
925.95        64.11657
926.34        64.44641
926.74        64.90943
927.13        65.57015
927.52        66.30701
927.92        67.02634
928.31        67.79773
928.70        68.39423
929.10        68.48032
929.49        68.00378
929.89        67.07006
930.28        66.09622
930.67        65.75436
931.07        66.16354
931.46        67.17695
931.85        68.33045
932.24        68.92352
932.64        68.77254
933.03        67.99035
933.42        66.89742
933.82        66.17118
934.21        66.01012
934.60        66.24129
934.99        66.36015
935.39        65.96719
935.78        65.02494
936.17        63.07623
936.56        60.36982
936.96        61.55111
937.35        60.92751
937.74        62.89346
938.13         64.8744
938.53        66.18929
938.92        66.75446
939.31         66.8176
939.70        66.62316
940.09        66.46021
940.49        66.48763
940.88        66.64058
941.27        66.86067
941.66        67.11491
942.05        67.36537
942.44        67.57488
942.84        67.85229
943.23        68.37495
943.62        69.11686
944.01        70.06775
944.40        70.74436
944.79        70.37878
945.18        68.84138
945.57        66.28357
945.97        63.65819
946.36        62.67094
946.75        63.80883
947.14        66.46479
947.53        69.33765
947.92        70.64593
948.31         70.0737
948.70        68.17081
949.09        65.79208
949.48        64.43411
949.87        64.56445
950.26        65.69161
950.65        67.19557
951.04        68.06158
951.43        67.96195
951.82        67.27274
952.21         66.3148
952.60        65.55544
952.99        65.17329
953.38        64.98315
953.77        64.94247
954.16        65.02493
954.55        65.18925
954.94         65.4815
955.33        65.82346
955.72        66.04661
956.11        66.12173
956.50        66.08369
956.89        66.00578
957.28        66.05626
957.66         66.2856
958.05        66.53204
958.44        66.79119
958.83        67.06242
959.22        67.32043
959.61        67.59821
960.00        67.68199
960.39        67.19936
960.78        66.12667
961.16        64.59003
961.55        63.11039
961.94         62.3525
962.33        62.45686
962.72        63.25686
963.11        64.29854
963.49        64.79617
963.88         64.4422
964.27        63.49043
964.66        62.38417
965.04        61.85922
965.43        62.10907
965.82        62.92147
966.21        63.90287
966.60        64.42504
966.98        64.33536
967.37        63.80567
967.76         63.2408
968.15        63.25757
968.53        63.99427
968.92        65.14504
969.31        66.29049
969.69        66.75574
970.08         66.3035
970.47         65.1899
970.86        63.73943
971.24        62.43466
971.63        61.53358
972.02        60.96733
972.40        60.64223
972.79        60.41492
973.17        60.25683
973.56        60.13002
973.95        60.27012
974.33        61.03209
974.72        62.28338
975.11        63.82348
975.49        65.06149
975.88         65.1199
976.26        63.87917
976.65        61.69285
977.04        59.13695
977.42        57.22149
977.81        56.33595
978.19        56.20906
978.58          56.736
978.96        57.69069
979.35        58.84546
979.74        60.38885
980.12        61.94037
980.51        62.54768
980.89        62.14851
981.28        60.88482
981.66        59.58059
982.05        59.45417
982.43        60.66782
982.82        62.84467
983.20        65.28392
983.59        66.39869
983.97        65.81126
984.35        63.91682
984.74        61.56323
985.12         59.9788
985.51        59.52485
985.89        59.82203
986.28        60.45915
986.66        60.67589
987.04        60.14823
987.43         59.3069
987.81        58.23759
988.20        56.90545
988.58        55.22361
988.96         52.9356
989.35        50.46717
989.73        49.23141
990.12        49.93389
990.50        52.21221
990.88        54.72812
991.27        55.93689
991.65        55.84482
992.03        54.83942
992.42        53.74629
992.80         54.0965
993.18        56.26941
993.56        59.42133
993.95        62.62038
994.33        65.05598
994.71        66.34074
995.10        66.80762
995.48        66.55775
995.86        65.62266
996.24        64.11286
996.63        61.98088
997.01        59.52539
997.39        57.78991
997.77        57.31179
998.15        57.86513
998.54        58.94769
998.92        59.94083
999.30        60.70638
999.68        61.46201
1000.06        61.82804
1000.45        60.90828
1000.83        58.78033
1001.21         56.0223
1001.59        53.63967
1001.97        52.27879
1002.35        51.75989
1002.73        51.88336
1003.12        52.29817
1003.50         52.3101
1003.88         51.6141
1004.26        50.52267
1004.64        49.40874
1005.02        48.75617
1005.40        48.70178
1005.78        49.05522
1006.16        49.84761
1006.54        51.06079
1006.92        52.33452
1007.30        53.38991
1007.69        53.96501
1008.07        53.99891
1008.45        53.36721
1008.83        52.05227
1009.21        49.47351
1009.59        45.04205
1009.97        39.34972
1010.35        33.40685
1010.73        29.84498
1011.11        30.84487
1011.49        35.75198
1011.86         43.5522
1012.24        50.64353
1012.62        53.55241
1013.00        52.05173
1013.38        47.41801
1013.76        41.68123
1014.14        38.44385
1014.52        38.82423
1014.90        41.78079
1015.28        45.65166
1015.66        47.64529
1016.04        46.80397
1016.41        43.83257
1016.79         39.8098
1017.17         37.3867
1017.55        37.69934
1017.93        39.50244
1018.31        41.57959
1018.69        42.93885
1019.06        43.36902
1019.44        42.97517
1019.82        41.77251
1020.20        39.73975
1020.58        37.10224
1020.95        34.18027
1021.33        30.57459
1021.71         24.4676
1022.09        13.92593
1022.46       -6.105829
1022.84         -35.978
1023.22       -45.84818
1023.60        -18.8141
1023.97        12.71244
1024.35        30.72446
1024.73        36.54307
