SpectraSmart Spectrum 2.9.0.0
--------- Device Information -----------
Spectrum Name :  反射率_0
Saving Time :  2024/04/19 23:53:06
Spectro-Module Model Name : SE2030-DUVN
Spectro-Module Serial Number : OS361AC55029948
Wavelength Start : 200
Wavelength End : 1025
Wavelength Unit : Wavelength(nm)
Spectrum Unit : Reflectance(%)
-----------Spectrum Setting ------------
Integration Time : 30ms
Average : 10
Boxcar : 0
Background removal :  enabled
linearity correction :  enabled
SC :  disabled
Intensity correction :  disabled
DWT denoise :  enabled
savitzky-golay :  disabled
FFT :  disabled
Running average :  disabled
Kalman :  disabled
High pass :  disabled
---------------BEGIN--------------------
Wavelength(nm)             Reflectance(%)
200.29               0
200.75        62.24614
201.21        62.41874
201.67        65.11063
202.13        70.33468
202.58        77.79275
203.04        87.80464
203.50        97.09129
203.96        97.93031
204.42        90.56202
204.88        80.26048
205.34        71.29319
205.80        65.32494
206.26        61.28414
206.72        57.68224
207.18        54.63624
207.64        54.39125
208.10        58.44088
208.55        65.63634
209.01        71.59415
209.47         73.7021
209.93        72.45381
210.39        69.00502
210.85         64.6776
211.31        60.72377
211.77        57.09121
212.23        52.96852
212.69        48.61887
213.14         46.5415
213.60        47.59196
214.06        50.88221
214.52        54.29471
214.98        56.73572
215.44        58.46056
215.90        59.61274
216.36        60.94239
216.81        63.66444
217.27        67.56466
217.73         72.0449
218.19        75.03229
218.65        73.84367
219.11        68.11902
219.57        58.13913
220.02        46.44815
220.48        40.08412
220.94        41.58635
221.40        49.73082
221.86        59.99857
222.32        65.23936
222.77        63.77075
223.23        58.04003
223.69        51.69567
224.15        49.90268
224.61        52.78306
225.06        57.54617
225.52        61.67548
225.98        63.14693
226.44        61.94944
226.90        59.04598
227.36         55.4552
227.81        52.91608
228.27        52.32027
228.73          52.861
229.19        53.81768
229.65        54.35303
230.10        54.29988
230.56        54.06272
231.02         53.8154
231.48        53.76511
231.93        53.89166
232.39        54.06524
232.85        54.17131
233.31        54.11118
233.77        53.84998
234.22        53.44225
234.68        52.89874
235.14        52.13678
235.60        51.23207
236.05         50.2885
236.51        49.51587
236.97        49.18347
237.43        49.40769
237.88        50.36034
238.34        51.93269
238.80         53.8728
239.26        55.64705
239.71        56.91642
240.17        57.55979
240.63        58.14836
241.08        58.95114
241.54        59.90247
242.00        60.22335
242.46        58.33653
242.91        53.33644
243.37        43.86687
243.83         31.0152
244.28        24.30848
244.74        32.60434
245.20         53.6037
245.66         73.4118
246.11         80.6099
246.57        74.52803
247.03        55.58538
247.48        28.55295
247.94        19.79517
248.40         33.7416
248.85        52.02689
249.31         65.4204
249.77        71.63222
250.22         72.5759
250.68        70.50853
251.14        66.51164
251.59        62.82824
252.05        61.11971
252.51        60.83228
252.96        61.09938
253.42        60.72173
253.88        59.47134
254.33        58.11134
254.79        58.16706
255.25        60.67742
255.70        65.09307
256.16        70.25397
256.62        74.40141
257.07        75.64824
257.53        74.21845
257.99        70.93029
258.44        66.84354
258.90        64.09728
259.35        62.56646
259.81        62.11091
260.27        61.66836
260.72        60.33841
261.18        58.41561
261.63        55.85413
262.09        53.72498
262.55        52.97225
263.00        53.47813
263.46          54.835
263.91        55.84268
264.37        55.39547
264.83        53.50957
265.28        50.68435
265.74         48.1101
266.19        46.97947
266.65        47.46368
267.11        48.89705
267.56        50.44304
268.02        50.92416
268.47        50.11415
268.93        48.43907
269.38        46.35227
269.84        44.80828
270.30        44.07541
270.75        43.87471
271.21        43.89617
271.66        43.67389
272.12        43.06579
272.57         42.2253
273.03        41.35258
273.48         40.6456
273.94        40.19936
274.39        39.88298
274.85        39.55917
275.31        38.99631
275.76        38.14471
276.22        37.12814
276.67        36.10382
277.13          35.415
277.58         35.0555
278.04         34.9474
278.49        34.83178
278.95        34.42048
279.40        33.63177
279.86        32.66108
280.31        31.64538
280.77        30.92299
281.22        30.48771
281.68        30.26392
282.13        30.10659
282.59        29.85135
283.04        29.45015
283.50        29.00387
283.95         28.5459
284.41        28.16224
284.86        27.85074
285.32        27.59575
285.77         27.3975
286.22        27.32925
286.68        27.37864
287.13        27.49989
287.59        27.59627
288.04        27.49619
288.50        27.19869
288.95        26.72732
289.41         26.2283
289.86        25.85295
290.32        25.68899
290.77        25.67727
291.22        25.75936
291.68        25.81023
292.13        25.80478
292.59         25.8003
293.04        25.86574
293.50        26.12245
293.95        26.57525
294.40        27.15923
294.86        27.78749
295.31        28.33979
295.77        28.78206
296.22        29.15421
296.68        29.48086
297.13        29.78009
297.58        30.08419
298.04        30.39656
298.49        30.76179
298.95        31.28868
299.40        31.96883
299.85        32.76067
300.31        33.57327
300.76        34.26025
301.21        34.78107
301.67        35.19807
302.12        35.51676
302.58        35.81152
303.03        36.08559
303.48        36.33615
303.94        36.62304
304.39        36.99897
304.84        37.47242
305.30        38.01611
305.75        38.52239
306.20        38.84547
306.66        38.97928
307.11        38.96035
307.57        38.88765
308.02        38.83705
308.47         38.8618
308.93        38.92657
309.38         39.0308
309.83        39.22548
310.29        39.49029
310.74        39.80597
311.19        40.05268
311.65        40.03741
312.10        39.72974
312.55        39.19635
313.00        38.60138
313.46        38.19914
313.91        38.03674
314.36        38.05878
314.82        38.14738
315.27        38.13082
315.72        37.94762
316.18        37.66621
316.63        37.34909
317.08        37.09719
317.53        36.93381
317.99        36.81108
318.44         36.6915
318.89          36.511
319.35        36.25391
319.80        35.94798
320.25        35.62316
320.70        35.32525
321.16        35.06226
321.61        34.82056
322.06        34.58116
322.51         34.3177
322.97        34.01632
323.42        33.69782
323.87        33.35746
324.32        32.99207
324.78         32.6029
325.23        32.20174
325.68        31.80954
326.13        31.46798
326.59        31.18919
327.04        30.98725
327.49        30.83211
327.94        30.67543
328.39        30.49987
328.85        30.29263
329.30        30.11666
329.75        30.03597
330.20        30.05706
330.66        30.13243
331.11         30.1946
331.56        30.08346
332.01        29.76263
332.46         29.2725
332.92        28.71245
333.37        28.26337
333.82        27.98986
334.27        27.86952
334.72        27.82553
335.17        27.71971
335.63         27.5031
336.08        27.21904
336.53        26.96842
336.98        26.92478
337.43        27.11675
337.88        27.48906
338.34        27.83286
338.79        27.86054
339.24        27.49383
339.69        26.81315
340.14        26.09175
340.59        25.78966
341.05        25.99813
341.50        26.57925
341.95        27.22018
342.40        27.43755
342.85        27.12716
343.30        26.45841
343.75        25.68021
344.20        25.19635
344.66        25.11821
345.11        25.28669
345.56        25.57208
346.01        25.76762
346.46        25.79312
346.91        25.73425
347.36        25.57157
347.81        25.25928
348.26        24.82702
348.72        24.31329
349.17        23.82449
349.62         23.6242
350.07        23.76458
350.52        24.15601
350.97        24.65555
351.42        25.04277
351.87        25.24364
352.32        25.30878
352.77        25.24774
353.22        25.08428
353.67        24.84639
354.13        24.53958
354.58        24.20466
355.03        23.94905
355.48        23.80254
355.93        23.75735
356.38        23.76966
356.83         23.7578
357.28        23.69237
357.73         23.5816
358.18        23.45811
358.63         23.3773
359.08         23.3498
359.53        23.36176
359.98        23.34281
360.43        23.18918
360.88        22.89171
361.33        22.48454
361.78        22.09136
362.23        21.91175
362.68         21.9772
363.13         22.2129
363.58        22.46224
364.03        22.48469
364.48        22.22313
364.93        21.75101
365.38        21.18627
365.83        20.73297
366.28        20.46395
366.73        20.32458
367.18          20.258
367.63        20.17179
368.08        20.03565
368.53        19.88701
368.98        19.74763
369.43        19.63935
369.88        19.57027
370.33        19.52945
370.78        19.49702
371.23        19.45072
371.68        19.38268
372.13        19.28768
372.58        19.20685
373.03        19.20853
373.48        19.29491
373.93        19.43951
374.38        19.54534
374.83        19.46604
375.28        19.18108
375.72        18.73193
376.17         18.2614
376.62        17.95941
377.07        17.87979
377.52        17.96438
377.97        18.11799
378.42        18.19019
378.87        18.13704
379.32        18.00349
379.77        17.84307
380.22        17.73224
380.67        17.69076
381.11        17.69491
381.56        17.69346
382.01        17.62451
382.46        17.47427
382.91        17.26303
383.36        17.05801
383.81        16.95518
384.26        16.97038
384.71        17.07934
385.15         17.1845
385.60        17.14149
386.05          16.926
386.50        16.58263
386.95        16.24081
387.40        16.10463
387.85        16.20672
388.29        16.47043
388.74        16.74428
389.19         16.8126
389.64        16.63524
390.09        16.28029
390.54        15.87873
390.98        15.63354
391.43        15.61142
391.88        15.73362
392.33        15.88503
392.78        15.90124
393.23          15.757
393.67        15.50661
394.12        15.26755
394.57        15.14489
395.02        15.16021
395.47        15.27104
395.91        15.41066
396.36        15.44912
396.81        15.35793
397.26        15.17437
397.71        14.97593
398.15          14.862
398.60        14.87233
399.05        14.96603
399.50        15.06615
399.95        15.06333
400.39        14.93588
400.84        14.71231
401.29        14.48637
401.74        14.42752
402.18        14.57819
402.63        14.87239
403.08        15.16751
403.53        15.24026
403.97        15.04825
404.42        14.67558
404.87        14.26835
405.32        14.06609
405.76        14.12588
406.21         14.3653
406.66        14.66473
407.11        14.83765
407.55        14.83339
408.00        14.71585
408.45        14.54351
408.90        14.37998
409.34         14.2771
409.79        14.27437
410.24        14.33428
410.68        14.34295
411.13        14.29128
411.58        14.24949
412.03        14.21965
412.47        14.18176
412.92        14.13579
413.37        14.07563
413.81        14.03893
414.26        14.09878
414.71        14.25389
415.15        14.48993
415.60        14.69679
416.05        14.71793
416.49        14.52038
416.94        14.16212
417.39        13.77045
417.83        13.55158
418.28        13.56265
418.73        13.73321
419.17        13.96465
419.62        14.08858
420.07        14.06519
420.51        13.95157
420.96        13.80167
421.41        13.68081
421.85        13.60919
422.30          13.569
422.74        13.55826
423.19        13.60377
423.64        13.69445
424.08        13.83416
424.53        13.96536
424.98        14.00755
425.42        13.94402
425.87        13.80211
426.31        13.62776
426.76        13.50235
427.21        13.44041
427.65        13.41356
428.10        13.42987
428.54        13.47761
428.99         13.5484
429.44        13.70596
429.88        13.86614
430.33        13.80108
430.77        13.55921
431.22        13.41569
431.66        13.41908
432.11        13.49283
432.56        13.62042
433.00        13.85803
433.45        14.05721
433.89        14.00077
434.34        13.77432
434.78        13.52384
435.23        13.24482
435.67        13.82346
436.12        13.32798
436.57        13.20176
437.01        12.94491
437.46        12.83015
437.90        12.87423
438.35        12.95887
438.79        13.04253
439.24        13.11732
439.68        13.16454
440.13        13.07371
440.57        12.91877
441.02         13.0298
441.46        13.28464
441.91        13.27685
442.35        12.70498
442.80        12.47164
443.24        12.44835
443.69        12.36035
444.13        12.20541
444.58        12.12053
445.02        12.11409
445.47        12.18305
445.91        12.27873
446.36        12.29394
446.80        12.20672
447.24        12.06232
447.69        11.91446
448.13        11.81809
448.58        11.79563
449.02        11.82684
449.47        11.87266
449.91        11.86514
450.36        11.79528
450.80        11.68552
451.25        11.58415
451.69        11.55061
452.13        11.59997
452.58        11.69834
453.02        11.81279
453.47        11.89157
453.91        11.92017
454.36        11.91458
454.80        11.87543
455.24        11.80525
455.69        11.71993
456.13        11.61011
456.58        11.51679
457.02        11.49342
457.46        11.54484
457.91        11.62648
458.35        11.70881
458.79        11.77121
459.24        11.79988
459.68        11.80016
460.13          11.818
460.57         11.8088
461.01         11.7687
461.46        12.01183
461.90        12.06611
462.34        11.92958
462.79              12
463.23        11.87872
463.68        11.77329
464.12        11.70278
464.56        11.77417
465.01        11.89001
465.45        12.00518
465.89        12.06422
466.34        12.06021
466.78        11.97489
467.22        11.85857
467.67        11.87793
468.11        12.01227
468.55        12.01578
468.99        11.90862
469.44        11.91763
469.88        12.04921
470.32        12.17692
470.77        12.25193
471.21        12.26255
471.65        12.19905
472.10        12.06938
472.54        11.92652
472.98         11.8861
473.42        11.96789
473.87        12.10183
474.31        12.23779
474.75        12.37066
475.20        12.45653
475.64        12.38515
476.08        12.22555
476.52        12.19112
476.97         12.3021
477.41        12.46606
477.85        12.62227
478.29        12.71021
478.74        12.71058
479.18         12.6217
479.62        12.51666
480.06        12.51108
480.50        12.61018
480.95        12.71986
481.39        12.79356
481.83        12.82313
482.27        12.79795
482.72        12.71993
483.16         12.6367
483.60        12.62068
484.04        12.67602
484.48        12.87104
484.93        13.20859
485.37        13.30875
485.81        13.23672
486.25        13.82355
486.69        13.89954
487.14        13.54895
487.58        13.83787
488.02        14.34958
488.46         13.9946
488.90        14.00441
489.34        14.01256
489.79        14.12557
490.23        14.29609
490.67        14.45661
491.11        14.55888
491.55        14.49852
491.99         14.3237
492.43        14.25131
492.88        14.31303
493.32        14.36929
493.76        14.43444
494.20        14.58596
494.64        14.81941
495.08        15.13025
495.52         15.4531
495.96        15.63673
496.41        15.69201
496.85        15.75339
497.29        15.85318
497.73        15.99945
498.17        16.18097
498.61        16.30004
499.05        16.35961
499.49        16.48979
499.93        16.69567
500.37        16.84837
500.82        16.95982
501.26         17.1892
501.70        17.49511
502.14        17.63305
502.58        17.60844
503.02         17.6371
503.46        17.73078
503.90        17.76831
504.34         17.7505
504.78        17.73851
505.22        17.74062
505.66          17.749
506.10        17.76878
506.54        17.80352
506.98        17.85554
507.42        17.92805
507.86        18.02133
508.30         18.1332
508.74        18.25706
509.18        18.38397
509.62        18.50725
510.06        18.61802
510.50        18.71417
510.94        18.80306
511.38         18.8704
511.82        18.89476
512.26        18.87679
512.70        18.81979
513.14        18.77315
513.58        18.81156
514.02        18.93857
514.46        19.13309
514.90        19.32069
515.34        19.32476
515.78        19.14731
516.22        18.91377
516.66        18.73327
517.10        18.42728
517.54        18.02823
517.98        18.67772
518.42         18.6221
518.86        18.91728
519.30        19.01798
519.74        19.10476
520.18        19.16287
520.62        19.14668
521.06        19.07701
521.50        18.95004
521.93        18.79596
522.37        18.67602
522.81        18.60696
523.25        18.57832
523.69        18.58073
524.13        18.59502
524.57        18.60982
525.01        18.62745
525.45        18.63739
525.89        18.62216
526.32        18.57761
526.76        18.50874
527.20        18.42091
527.64        18.32946
528.08        18.23944
528.52        18.14399
528.96        18.05351
529.40        17.98169
529.83        17.92861
530.27        17.89838
530.71        17.85942
531.15         17.7614
531.59        17.60285
532.03        17.40498
532.46        17.22114
532.90        17.15023
533.34        17.20145
533.78        17.33733
534.22        17.49994
534.66        17.60036
535.09        17.60935
535.53        17.55865
535.97        17.46696
536.41        17.36324
536.85        17.26419
537.28        17.17046
537.72         17.1033
538.16        17.04379
538.60         17.0795
539.04        17.13363
539.47        17.20212
539.91        17.28181
540.35        17.37539
540.79        17.33628
541.22        17.40472
541.66        17.48193
542.10        17.65327
542.54        17.62346
542.97        17.84355
543.41        17.96392
543.85        18.10557
544.29        18.22983
544.72        18.32573
545.16        18.42922
545.60        18.53866
546.04        18.58849
546.47        18.63048
546.91        18.86518
547.35        19.24197
547.79        19.51264
548.22        19.64319
548.66        19.71361
549.10        19.76252
549.53        19.92565
549.97        20.20884
550.41         20.2512
550.84        20.42549
551.28        20.53196
551.72        20.70662
552.15        20.91659
552.59        21.16059
553.03        21.43331
553.46        21.68147
553.90        21.84527
554.34        21.91439
554.77        21.91095
555.21        21.88656
555.65        21.91261
556.08        22.00555
556.52        22.14138
556.96        22.29774
557.39        22.46807
557.83         22.6322
558.27        22.74032
558.70        22.79456
559.14        22.84329
559.57        22.88468
560.01        22.91794
560.45        22.94183
560.88        22.92698
561.32        22.92565
561.75        22.99625
562.19        23.20494
562.63        23.32345
563.06        23.36271
563.50        23.39639
563.93        23.44123
564.37        23.56607
564.80        23.66701
565.24        23.82785
565.68        23.97741
566.11        24.08932
566.55        24.17355
566.98         24.1946
567.42        24.17401
567.85        24.44997
568.29        24.40341
568.72         24.7642
569.16        25.24353
569.60         25.5634
570.03        25.64507
570.47        25.69817
570.90        25.66329
571.34        25.94618
571.77        25.69738
572.21        26.29448
572.64        26.45841
573.08        26.46496
573.51        26.52813
573.95        27.06545
574.38        27.28586
574.82        27.55988
575.25        27.62992
575.69        27.51292
576.12        27.49864
576.56        27.50306
576.99        27.64406
577.42        27.58698
577.86        27.58336
578.29        27.62132
578.73        27.86734
579.16        27.72066
579.60        27.60653
580.03        27.38579
580.47         27.3765
580.90        27.14248
581.33        26.90593
581.77          26.878
582.20        27.14937
582.64        26.88832
583.07        26.67398
583.51        26.64088
583.94        26.29997
584.37        26.15028
584.81        25.79255
585.24         25.6973
585.68        25.73297
586.11        25.59617
586.54        25.58812
586.98        25.21485
587.41        25.45379
587.85        25.45756
588.28        25.43294
588.71        25.28151
589.15        25.07995
589.58        24.81287
590.01        24.86436
590.45        25.26821
590.88        24.94862
591.31        24.87782
591.75        24.73053
592.18        24.90016
592.61        24.77621
593.05        25.08298
593.48        25.10909
593.91        25.35268
594.35        25.26886
594.78        25.49574
595.21         25.6807
595.65        25.81051
596.08        25.73891
596.51        25.82762
596.94        26.06538
597.38        26.16924
597.81         26.3735
598.24        26.37533
598.68        27.03478
599.11        27.11226
599.54        27.96092
599.97        27.83633
600.41         28.2653
600.84         28.7933
601.27        29.29106
601.70        29.69664
602.14        29.87595
602.57         30.2633
603.00        30.84892
603.43        31.26949
603.87        31.54637
604.30        32.03754
604.73        32.72469
605.16         33.0573
605.60        33.58683
606.03        34.03102
606.46        34.46332
606.89        35.36081
607.32        35.83643
607.76        36.24364
608.19        36.53136
608.62        36.96609
609.05        37.03168
609.48         37.3644
609.92        37.78764
610.35        38.13481
610.78        38.90259
611.21        39.46004
611.64        39.47854
612.07        39.92718
612.50        40.31012
612.94        40.21827
613.37        40.91852
613.80        41.26205
614.23        41.61812
614.66        42.17388
615.09        42.49952
615.52        42.88685
615.96        43.14795
616.39        43.49195
616.82        43.97679
617.25        43.74517
617.68        44.14628
618.11         44.6217
618.54        45.11317
618.97        45.31708
619.40        45.12857
619.84        45.28733
620.27        44.92985
620.70        45.41812
621.13        46.29111
621.56        46.65007
621.99        46.55606
622.42        46.55053
622.85        46.74781
623.28        46.90563
623.71        47.01823
624.14         47.0684
624.57        47.13784
625.00        46.85084
625.43        47.08962
625.86        46.50907
626.29        46.47314
626.72        46.23448
627.15        46.14487
627.58        46.11108
628.01        46.05409
628.44        45.92815
628.87         45.7114
629.30        45.12567
629.73        44.77192
630.16        44.38231
630.59        44.20398
631.02        43.91149
631.45        43.50652
631.88         43.0966
632.31        42.66521
632.74        42.13293
633.17        41.52309
633.60        40.92862
634.03         40.3699
634.46        39.82572
634.89        39.28817
635.32        38.74188
635.75        38.18829
636.18         37.6488
636.61        37.13105
637.04        36.63671
637.47        36.16474
637.89        35.71207
638.32        35.27989
638.75        34.90421
639.18        34.58789
639.61        34.32574
640.04         34.0736
640.47        33.75808
640.90        33.36767
641.33        32.92691
641.76        32.49971
642.18        32.19431
642.61        32.03218
643.04        31.98389
643.47        31.99571
643.90         31.9763
644.33        31.90252
644.76        31.80967
645.18        31.73005
645.61        31.71802
646.04        31.79109
646.47        31.92638
646.90        32.12723
647.33        32.40242
647.75        32.74564
648.18        33.14972
648.61        33.57641
649.04        33.96919
649.47        34.32319
649.89        34.63161
650.32        34.94935
650.75        35.44122
651.18        36.11311
651.61         36.7362
652.03        37.31148
652.46        38.17378
652.89        39.23958
653.32        39.81969
653.74        39.96059
654.17        40.80553
654.60        41.17899
655.03        42.37315
655.46         42.4307
655.88         43.7951
656.31        44.99146
656.74        49.11533
657.16        48.64245
657.59         46.9403
658.02        47.04757
658.45        47.02841
658.87        48.31464
659.30        48.71879
659.73        49.80394
660.15        50.21036
660.58        50.45066
661.01        50.42072
661.44        50.38116
661.86         50.7895
662.29         51.5954
662.72        52.39001
663.14        53.00453
663.57         53.2143
664.00        53.15279
664.42         53.3497
664.85        53.87288
665.27        54.36866
665.70        54.74903
666.13        55.07309
666.55        55.32671
666.98        55.49611
667.41         55.6279
667.83        55.79232
668.26        55.99757
668.69        56.22642
669.11        56.46669
669.54        56.67069
669.96        56.83374
670.39        57.05224
670.82        57.30712
671.24        57.39358
671.67        57.40368
672.09        57.67997
672.52        58.16974
672.94        58.60308
673.37        58.86242
673.80        58.75803
674.22        58.42498
674.65        58.34608
675.07        58.59045
675.50          58.872
675.92        59.10833
676.35         59.2577
676.77        59.29663
677.20        59.24987
677.62        59.18176
678.05        59.20163
678.47        59.33193
678.90        59.54105
679.32         59.8004
679.75        60.05304
680.17         60.2662
680.60        60.49727
681.02        60.72806
681.45        60.77264
681.87        60.69792
682.30        60.84209
682.72        61.13755
683.15        61.16435
683.57        61.00182
684.00        60.89973
684.42        60.97291
684.85        61.61218
685.27        61.47526
685.70        61.82193
686.12        62.15855
686.54        62.41458
686.97        62.57038
687.39        62.32739
687.82        62.31016
688.24         62.3734
688.66        62.64465
689.09        62.76566
689.51        62.73637
689.94        62.76264
690.36        62.83534
690.78        62.87433
691.21        62.92192
691.63        62.85492
692.06        63.02179
692.48        63.40017
692.90        63.32925
693.33        63.80164
693.75        63.53268
694.17        63.67579
694.60        63.87314
695.02        63.79379
695.44        63.46998
695.87        63.49791
696.29        63.82561
696.71        63.61748
697.14         63.1353
697.56        63.52945
697.98        64.51981
698.41        65.41485
698.83        65.01582
699.25        64.44476
699.68         64.4409
700.10        64.31134
700.52        64.40672
700.94         64.5866
701.37        64.72665
701.79        65.30045
702.21        65.17056
702.64        65.23634
703.06        65.23486
703.48        65.28697
703.90        65.41121
704.33        65.57919
704.75        65.74469
705.17        65.76287
705.59        65.61236
706.01        65.39015
706.44         65.2139
706.86        65.13649
707.28        65.23832
707.70         65.7546
708.12        66.49052
708.55        66.80481
708.97        66.67616
709.39        66.59953
709.81        66.63628
710.23        66.58286
710.66        66.47544
711.08        66.45823
711.50        66.51973
711.92         66.5854
712.34        66.65067
712.76        66.74824
713.19        66.85624
713.61        66.98946
714.03        67.11696
714.45        67.22758
714.87        67.33382
715.29        67.46821
715.71        67.63551
716.13        67.80834
716.56        67.93334
716.98        68.04645
717.40        68.12346
717.82        67.99729
718.24         68.0108
718.66        67.95871
719.08        67.95168
719.50        67.97271
719.92        68.01517
720.34        68.05703
720.76        68.08876
721.19        68.11875
721.61        68.16134
722.03        68.19707
722.45        68.24303
722.87        68.30175
723.29        68.37941
723.71        68.43214
724.13        68.48337
724.55        68.63892
724.97        68.86713
725.39        69.02007
725.81         69.0798
726.23        69.11403
726.65         69.1592
727.07        69.24268
727.49        69.36408
727.91        69.53992
728.33        69.73382
728.75        69.78197
729.17        69.64847
729.59        69.77981
730.01         69.5069
730.43        69.48689
730.85        69.53388
731.27        69.59592
731.69         69.6627
732.10        69.84901
732.52        70.08974
732.94        70.12668
733.36        69.95693
733.78         69.9039
734.20        70.02634
734.62        69.97974
735.04        69.66878
735.46        70.15961
735.88        69.74383
736.30        69.48949
736.72        69.38569
737.13        69.61885
737.55        70.15337
737.97        70.66959
738.39        70.99416
738.81        70.74698
739.23        70.13929
739.65        70.11789
740.06        70.59135
740.48        70.82887
740.90        70.75864
741.32        70.14813
741.74        70.08169
742.16        70.05123
742.57        70.28082
742.99        70.64783
743.41        71.01226
743.83        71.24944
744.25        71.29655
744.67        71.18465
745.08        70.98259
745.50        70.78316
745.92         70.6412
746.34        70.52149
746.75        70.43232
747.17        70.38086
747.59        70.37148
748.01        70.45438
748.42        70.58998
748.84        70.65248
749.26        70.67264
749.68        70.64347
750.09        70.63721
750.51        70.98483
750.93        71.49245
751.35        71.48744
751.76         71.0562
752.18        70.74625
752.60        70.52708
753.01        71.06223
753.43        70.49134
753.85         70.5424
754.27         70.6347
754.68        71.05363
755.10        71.71095
755.52        71.16438
755.93        71.24114
756.35        71.09102
756.77        71.30342
757.18         71.1362
757.60        71.48247
758.02        71.63776
758.43         71.6371
758.85        72.22181
759.26        72.22004
759.68        71.36482
760.10        71.21838
760.51         71.3551
760.93         71.5442
761.34        71.35841
761.76        71.40099
762.18        71.10382
762.59        70.79066
763.01        70.89644
763.42        71.41984
763.84        71.91802
764.26        72.22194
764.67        72.03012
765.09        71.61968
765.50        71.75958
765.92        72.40664
766.33         72.9305
766.75        73.05922
767.16        72.61629
767.58        71.69721
768.00        71.00397
768.41         70.9181
768.83        70.79015
769.24        71.85048
769.66        72.64527
770.07        73.26107
770.49        73.15209
770.90        72.53768
771.32        72.53035
771.73        73.07585
772.15        73.13116
772.56        72.71148
772.97         72.3867
773.39        72.23538
773.80        72.39166
774.22        72.69216
774.63        72.46204
775.05         71.8387
775.46        71.73057
775.88        72.17745
776.29        72.71614
776.70        73.12424
777.12        73.29056
777.53        73.16255
777.95        72.74565
778.36        72.26109
778.77        72.09495
779.19        72.33753
779.60        72.92422
780.02        73.56761
780.43        73.97382
780.84        74.05824
781.26        73.53864
781.67        72.78275
782.09        73.32173
782.50        74.77027
782.91        74.79787
783.33        73.54993
783.74        73.16178
784.15        73.72167
784.57        74.24365
784.98        74.47574
785.39        74.08207
785.81        73.22073
786.22        72.85033
786.63        72.99134
787.04        72.97548
787.46        72.83096
787.87         72.8369
788.28        72.96508
788.70        73.72791
789.11        73.70895
789.52        74.17422
789.93        74.60076
790.35        74.59946
790.76        74.24727
791.17        74.08947
791.58        74.19703
792.00        74.19466
792.41         73.9796
792.82        74.02436
793.23        73.46314
793.65        73.15866
794.06        73.08249
794.47        73.45831
794.88        74.02515
795.29        75.04642
795.71        75.19817
796.12        74.41236
796.53        75.10149
796.94         74.5124
797.35        73.70531
797.76        73.47979
798.18        73.87084
798.59         74.2382
799.00        74.41534
799.41        74.54103
799.82        74.60542
800.23        74.70296
800.64        74.82697
801.06        74.78291
801.47        74.63972
801.88        74.57528
802.29        74.60783
802.70        74.65086
803.11        74.68172
803.52         74.6719
803.93        74.62785
804.34         74.6044
804.75        74.55202
805.17        74.44388
805.58        74.30264
805.99        73.91087
806.40        73.51395
806.81        73.97514
807.22        74.98074
807.63        75.73621
808.04        75.00967
808.45        74.88398
808.86        75.17525
809.27        75.76595
809.68        76.46384
810.09        76.73351
810.50        76.48714
810.91        76.08837
811.32        75.70422
811.73        75.34148
812.14        75.05221
812.55        75.01169
812.96        75.10773
813.37        74.76207
813.78        74.11289
814.19        74.04655
814.60        74.49508
815.01        74.67113
815.42        74.53812
815.83         74.5151
816.24        74.66094
816.65        74.85608
817.05        75.09986
817.46        75.37457
817.87        75.60239
818.28        75.62027
818.69        75.42174
819.10        75.05797
819.51        74.67961
819.92        74.62315
820.33        74.97899
820.74        75.46036
821.14        75.96544
821.55        76.71653
821.96        77.44948
822.37        77.26663
822.78        76.35286
823.19        75.88416
823.60         75.9974
824.00        76.08733
824.41        76.02644
824.82         75.9936
825.23        75.96535
825.64        75.92554
826.04        75.90656
826.45        75.89893
826.86        75.91428
827.27        75.94621
827.68        75.98408
828.08        76.03806
828.49        76.04758
828.90        76.03812
829.31        76.01315
829.72        75.97781
830.12        75.95831
830.53        75.93101
830.94        75.89655
831.35         75.8237
831.75        75.73654
832.16        75.59946
832.57        75.50218
832.97        75.57045
833.38        75.79701
833.79        76.13218
834.20        76.45626
834.60         76.5779
835.01        76.47411
835.42        76.21452
835.82         75.8858
836.23        75.58142
836.64        75.37572
837.04        75.23818
837.45        75.20505
837.86        75.37817
838.26        75.76836
838.67         76.3165
839.08        76.86282
839.48        77.08702
839.89        76.90835
840.29        76.44231
840.70        75.93777
841.11        75.69557
841.51        75.80915
841.92        76.12991
842.33        76.61228
842.73        77.17655
843.14        77.66189
843.54        78.15737
843.95        78.47872
844.35        78.40988
844.76        77.94383
845.17        77.16998
845.57        76.35751
845.98        75.94932
846.38        76.04211
846.79        76.51461
847.19        77.21425
847.60        77.70473
848.00        77.90321
848.41        77.87148
848.81        77.76756
849.22         77.7608
849.62        77.93577
850.03        78.13889
850.43        78.36903
850.84        78.53302
851.24        78.66006
851.65        78.74988
852.05        78.74966
852.46        78.55866
852.86        78.21715
853.27        77.48072
853.67        76.60533
854.07        76.85071
854.48        77.90137
854.88        77.96198
855.29        77.02354
855.69        76.79771
856.10        77.29251
856.50        77.56286
856.90        77.49399
857.31        77.47565
857.71        77.57926
858.12        77.61835
858.52        77.63066
858.92        77.57359
859.33        77.42395
859.73        77.25169
860.13        77.09226
860.54        77.00683
860.94        77.07683
861.34        77.24628
861.75        77.39986
862.15        77.44323
862.55        77.31195
862.96        77.07642
863.36        76.80692
863.76        76.59267
864.17        76.46714
864.57         76.4084
864.97        76.46066
865.38        76.67685
865.78        77.09048
866.18        77.61547
866.58        78.05296
866.99        78.05673
867.39        77.59358
867.79        76.74494
868.19        75.66636
868.60        74.59161
869.00        73.59039
869.40        72.65663
869.80        71.94743
870.21        71.69519
870.61        71.97987
871.01        72.69805
871.41        73.50609
871.81        73.83986
872.22        73.60143
872.62        72.96484
873.02        72.19383
873.42        71.93275
873.82        72.13735
874.22        72.14951
874.63        72.11373
875.03        72.39947
875.43        72.97867
875.83        74.62257
876.23        74.64321
876.63        74.15265
877.03        72.68229
877.44        70.29815
877.84        127.8684
878.24        70.02219
878.64        71.41246
879.04        75.25307
879.44         72.5584
879.84        70.88079
880.24        74.44742
880.64        74.17397
881.04        70.99243
881.44        68.91951
881.84        68.68997
882.24         69.6158
882.65        71.10609
883.05        72.00003
883.45        71.88575
883.85        71.40982
884.25        70.93559
884.65        70.75511
885.05        70.98676
885.45        71.48601
885.85         72.0237
886.25        72.26534
886.65        72.12021
887.05        71.71774
887.45        71.28471
887.85        71.14069
888.25        71.36838
888.65        71.88102
889.04        72.50529
889.44        72.86257
889.84        72.87455
890.24        72.62583
890.64        72.30977
891.04        72.22685
891.44        72.40925
891.84        72.71306
892.24        72.93015
892.64        72.71996
893.04        72.03965
893.44        71.11388
893.83        70.07195
894.23        69.10297
894.63        68.27908
895.03        67.54827
895.43        67.10303
895.83        67.26588
896.23        68.04508
896.63        69.32114
897.02        70.67906
897.42        71.34685
897.82          71.139
898.22        70.28297
898.62        69.15556
899.01        68.35276
899.41         68.0946
899.81        68.19634
900.21        68.57851
900.61        69.12176
901.00        69.73869
901.40        70.44002
901.80        71.13535
902.20        71.64066
902.59        71.90366
902.99        71.93938
903.39        71.75616
903.79        71.39654
904.18        70.91678
904.58        70.38023
904.98        69.95505
905.38        69.90142
905.77        70.24155
906.17        70.88989
906.57        71.62163
906.96        72.10102
907.36        72.17974
907.76        71.93184
908.15        71.49331
908.55        71.03848
908.95        70.66144
909.34        70.36205
909.74         70.0395
910.14        69.52435
910.53        68.81496
910.93        68.05006
911.33        67.54977
911.72        67.81057
912.12        68.84416
912.52        70.39365
912.91        71.98195
913.31        72.79878
913.70        72.70744
914.10        71.91099
914.49        70.69531
914.89        69.74384
915.29        69.33323
915.68        69.28557
916.08         69.5245
916.47        69.90981
916.87         70.3312
917.26        70.83053
917.66         71.2711
918.05        71.45501
918.45        71.32085
918.84        70.96417
919.24        70.41414
919.64        69.75278
920.03        69.06416
920.42        68.36036
920.82        67.92461
921.21        68.13558
921.61         68.9738
922.00        70.35536
922.40         71.7445
922.79        72.50006
923.19        72.43699
923.58        71.52728
923.98        70.08681
924.37        69.37585
924.77        69.87832
925.16         68.1156
925.55        69.72322
925.95         69.7079
926.34        69.72825
926.74        69.70116
927.13         69.8024
927.52        70.08606
927.92        70.51414
928.31        71.12103
928.70        71.67712
929.10        71.82881
929.49        71.50563
929.89         70.8109
930.28        70.11997
930.67        70.03241
931.07        70.63849
931.46        71.78699
931.85        73.01855
932.24        73.65917
932.64        73.53413
933.03        72.75341
933.42        71.64326
933.82         70.9006
934.21        70.72669
934.60        70.94046
934.99        71.04388
935.39         70.5916
935.78        69.53299
936.17        67.51168
936.56        64.76754
936.96        65.53201
937.35        64.78779
937.74        66.44908
938.13        68.22939
938.53        69.54558
938.92        70.31561
939.31        70.76366
939.70        70.99506
940.09        71.04357
940.49        70.97619
940.88        70.78062
941.27        70.59442
941.66        70.67436
942.05        71.05029
942.44        71.63937
942.84        72.32972
943.23        72.92919
943.62        73.33575
944.01        73.64097
944.40        73.72847
944.79        73.41724
945.18        72.71233
945.57        71.62591
945.97         70.5955
946.36        70.36111
946.75        71.11937
947.14        72.58242
947.53        74.08916
947.92        74.72987
948.31         74.3545
948.70        73.25533
949.09        71.86941
949.48        70.97233
949.87        70.82259
950.26        71.17157
950.65        71.78255
951.04        72.26237
951.43        72.45216
951.82         72.4952
952.21        72.39248
952.60        72.12582
952.99        71.72851
953.38        71.17994
953.77        70.60838
954.16        70.24185
954.55        70.13005
954.94        70.23989
955.33        70.43564
955.72        70.46606
956.11         70.2747
956.50        69.93993
956.89        69.60283
957.28        69.53374
957.66        69.81015
958.05        70.23281
958.44        70.68839
958.83        71.03341
959.22        71.21868
959.61        71.30866
960.00        71.19318
960.39        70.69292
960.78        69.82391
961.16        68.63322
961.55        67.50932
961.94        66.91673
962.33        66.95571
962.72        67.53931
963.11        68.29547
963.49        68.58094
963.88        68.14856
964.27        67.20768
964.66        66.22017
965.04        65.95405
965.43        66.57319
965.82        67.83938
966.21          69.241
966.60         69.9537
966.98        69.78456
967.37        68.96996
967.76        68.00758
968.15        67.67604
968.53        68.17657
968.92        69.15748
969.31        70.23277
969.69         70.7707
970.08        70.52384
970.47        69.75607
970.86        68.65603
971.24        67.47838
971.63        66.42965
972.02        65.47828
972.40        64.72742
972.79         64.3802
973.17        64.49895
973.56        64.95056
973.95        65.72331
974.33        66.73515
974.72        67.74364
975.11        68.70583
975.49        69.29438
975.88        69.03344
976.26        67.90747
976.65        66.13848
977.04        64.14916
977.42         62.6913
977.81        62.04871
978.19        62.02563
978.58        62.55328
978.96        63.48359
979.35        64.60189
979.74        66.03342
980.12        67.39404
980.51        67.74942
980.89        67.05637
981.28        65.50201
981.66        63.87167
982.05        63.30183
982.43        63.94884
982.82         65.4724
983.20        67.29221
983.59        68.05111
983.97        67.45641
984.35        65.84855
984.74        63.94754
985.12        62.77785
985.51        62.63295
985.89        63.18054
986.28        64.05231
986.66        64.58041
987.04        64.42399
987.43        63.93462
987.81        63.14679
988.20        62.01907
988.58        60.48422
988.96        58.31985
989.35        55.92973
989.73        54.71533
990.12        55.35836
990.50        57.51853
990.88        59.92228
991.27        61.10205
991.65        61.05879
992.03        60.18021
992.42        59.21952
992.80        59.58008
993.18        61.61018
993.56        64.52831
993.95        67.50758
994.33        69.87299
994.71        71.24809
995.10        71.88375
995.48        71.81871
995.86        71.00111
996.24        69.50442
996.63        67.30843
997.01        64.63293
997.39        62.36915
997.77        61.10775
998.15         60.7566
998.54        61.07903
998.92        61.67037
999.30        62.40389
999.68        63.52689
1000.06         64.5594
1000.45        64.10044
1000.83        61.96667
1001.21        58.89771
1001.59        56.28787
1001.97        55.21856
1002.35        55.54368
1002.73         56.9338
1003.12         58.8259
1003.50        59.91326
1003.88        59.47074
1004.26        57.97977
1004.64        55.97721
1005.02        54.17098
1005.40        52.81116
1005.78        51.63283
1006.16        50.99552
1006.54        51.61075
1006.92        53.28611
1007.30        55.45039
1007.69        57.28825
1008.07        58.17021
1008.45        57.93934
1008.83        56.69585
1009.21        54.04261
1009.59        50.00124
1009.97        45.52514
1010.35        41.32658
1010.73         39.3103
1011.11        40.95275
1011.49        45.62729
1011.86        52.58797
1012.24        58.86563
1012.62        61.70132
1013.00        60.91938
1013.38        57.55716
1013.76        53.14077
1014.14        50.38539
1014.52        50.12955
1014.90        51.53169
1015.28        53.46512
1015.66        53.99821
1016.04         52.4533
1016.41        49.45636
1016.79        45.57573
1017.17        42.45379
1017.55        41.11677
1017.93        40.90976
1018.31        41.53443
1018.69        42.81988
1019.06        44.54282
1019.44        46.67255
1019.82        48.49828
1020.20        48.13707
1020.58        44.97537
1020.95        39.67693
1021.33        33.44519
1021.71        26.94182
1022.09        19.49406
1022.46         8.00808
1022.84       -6.349142
1023.22       -7.214329
1023.60        10.81772
1023.97        29.20028
1024.35        39.18259
1024.73         42.6762
