SpectraSmart Spectrum 2.9.0.0
--------- Device Information -----------
Spectrum Name :  反射率_0
Saving Time :  2024/04/20 00:36:15
Spectro-Module Model Name : SE2030-DUVN
Spectro-Module Serial Number : OS361AC55029948
Wavelength Start : 200
Wavelength End : 1025
Wavelength Unit : Wavelength(nm)
Spectrum Unit : Reflectance(%)
-----------Spectrum Setting ------------
Integration Time : 30ms
Average : 10
Boxcar : 0
Background removal :  enabled
linearity correction :  enabled
SC :  disabled
Intensity correction :  disabled
DWT denoise :  enabled
savitzky-golay :  disabled
FFT :  disabled
Running average :  disabled
Kalman :  disabled
High pass :  disabled
---------------BEGIN--------------------
Wavelength(nm)             Reflectance(%)
200.29               0
200.75        74.69556
201.21        74.87823
201.67        77.66351
202.13        83.65597
202.58        92.86546
203.04        105.6785
203.50        117.6101
203.96        118.2549
204.42        108.0646
204.88        94.15495
205.34        82.58855
205.80        76.06119
206.26        73.40393
206.72        73.28432
207.18        75.89794
207.64        80.34517
208.10        84.47407
208.55        88.11698
209.01        89.84521
209.47        89.88414
209.93        88.80157
210.39         86.5438
210.85        84.03838
211.31        82.43426
211.77         81.7542
212.23        81.82118
212.69        82.28094
213.14         82.0633
213.60        80.72595
214.06        79.76272
214.52        79.47605
214.98        80.02869
215.44         81.3502
215.90        83.04696
216.36        85.68192
216.81        89.92738
217.27        95.10513
217.73        100.8606
218.19        105.1085
218.65        105.1866
219.11        101.0013
219.57        93.01543
220.02        84.10229
220.48        81.64243
220.94        88.07252
221.40        101.4495
221.86        117.2324
222.32        128.5198
222.77        133.2256
223.23        133.6172
223.69        131.0826
224.15        127.8552
224.61        125.2763
225.06         122.876
225.52        121.5478
225.98        121.9469
226.44           123.9
226.90        127.1717
227.36        130.9605
227.81        133.3135
228.27        133.8702
228.73        133.1838
229.19        131.7657
229.65        130.2625
230.10        128.8524
230.56        127.6961
231.02        126.9587
231.48        127.1109
231.93        127.9381
232.39        129.2695
232.85        130.5661
233.31        131.0713
233.77        130.6066
234.22        129.5334
234.68        127.8092
235.14         125.397
235.60        122.5694
236.05        119.4021
236.51        116.7649
236.97        115.9508
237.43         117.234
237.88        120.9519
238.34        125.6945
238.80        128.0789
239.26        125.7698
239.71        119.5136
240.17        111.1755
240.63        104.2363
241.08        99.74932
241.54        96.90717
242.00         95.2112
242.46        93.43253
242.91        90.96648
243.37        87.62616
243.83         83.9575
244.28        83.05631
244.74        86.97461
245.20        93.96132
245.66        99.73996
246.11        101.5593
246.57        98.94534
247.03        91.85477
247.48        80.26813
247.94        71.75316
248.40        70.84356
248.85        73.32435
249.31        76.12343
249.77        78.05693
250.22        79.27422
250.68        80.37149
251.14        81.57442
251.59        82.87367
252.05        84.37648
252.51        86.29771
252.96         87.9702
253.42        88.61607
253.88        88.41807
254.33        87.66949
254.79        88.66882
255.25        93.47727
255.70        101.3175
256.16        110.5414
256.62        118.7584
257.07        123.3013
257.53        124.5114
257.99        123.6116
258.44        121.0486
258.90          118.54
259.35        116.1699
259.81        114.7691
260.27        114.0356
260.72        113.8406
261.18         114.478
261.63        115.0998
262.09        116.0576
262.55        116.9293
263.00         117.357
263.46        117.7594
263.91        117.3668
264.37        116.0004
264.83        113.6687
265.28        110.5417
265.74         107.766
266.19        106.1665
266.65         106.024
267.11        106.7726
267.56        107.6181
268.02        107.5472
268.47        106.2925
268.93        104.2356
269.38        101.8481
269.84        100.1406
270.30        99.36922
270.75        99.20827
271.21        99.22414
271.66        98.70094
272.12        97.49243
272.57        95.80125
273.03        94.00764
273.48        92.53937
273.94        91.60869
274.39         90.9698
274.85        90.43813
275.31        89.60164
275.76        88.33069
276.22        86.82404
276.67        85.24881
277.13        84.08546
277.58        83.28336
278.04        82.78965
278.49         82.1737
278.95        81.05357
279.40        79.29599
279.86        77.24491
280.31        75.16076
280.77        73.68729
281.22        72.79304
281.68        72.35538
282.13        72.01311
282.59        71.38737
283.04        70.33799
283.50        69.08326
283.95        67.75419
284.41        66.66959
284.86        65.82541
285.32        65.16834
285.77        64.55215
286.22        63.88941
286.68        63.17566
287.13        62.41748
287.59        61.68157
288.04        60.93058
288.50         60.2113
288.95        59.45901
289.41        58.74195
289.86        58.06466
290.32        57.48909
290.77        56.97915
291.22        56.53063
291.68        56.09742
292.13        55.65289
292.59        55.24928
293.04        54.90741
293.50         54.7111
293.95        54.65386
294.40         54.7061
294.86        54.83818
295.31        55.00445
295.77        55.18836
296.22        55.40146
296.68        55.61053
297.13        55.74986
297.58        55.81332
298.04         55.8107
298.49        55.81814
298.95           56.01
299.40        56.38258
299.85        56.88859
300.31        57.38096
300.76         57.6048
301.21         57.5362
301.67         57.3084
302.12        57.04108
302.58        57.01011
303.03        57.23101
303.48        57.64304
303.94        58.18866
304.39        58.72097
304.84        59.20238
305.30          59.659
305.75         60.0443
306.20        60.33247
306.66        60.54662
307.11        60.65895
307.57        60.72435
308.02        60.72851
308.47        60.71473
308.93        60.68941
309.38        60.67863
309.83        60.79116
310.29        61.03136
310.74        61.36225
311.19        61.65604
311.65        61.70308
312.10        61.45898
312.55         60.9935
313.00        60.48698
313.46        60.21767
313.91        60.22628
314.36        60.44323
314.82        60.69692
315.27        60.73946
315.72        60.49155
316.18        60.05584
316.63        59.54893
317.08        59.17095
317.53        58.96904
317.99        58.86392
318.44        58.78465
318.89        58.60434
319.35        58.28582
319.80        57.88214
320.25        57.43371
320.70        57.00209
321.16        56.60482
321.61        56.23072
322.06        55.86888
322.51        55.51214
322.97        55.14643
323.42        54.78889
323.87        54.43073
324.32        54.06329
324.78        53.67484
325.23        53.28886
325.68        52.88868
326.13        52.46087
326.59        52.01114
327.04        51.57998
327.49        51.19872
327.94        50.92859
328.39        50.77316
328.85        50.67295
329.30        50.64722
329.75        50.64087
330.20        50.62263
330.66        50.58491
331.11         50.4818
331.56        50.17271
332.01        49.64811
332.46        48.94415
332.92        48.21717
333.37        47.77448
333.82        47.69222
334.27        47.91401
334.72        48.26625
335.17         48.4361
335.63        48.30849
336.08        47.97817
336.53        47.58449
336.98        47.39137
337.43        47.46606
337.88        47.72429
338.34        47.97608
338.79        47.97132
339.24        47.63409
339.69         47.0564
340.14        46.45574
340.59        46.18679
341.05        46.32496
341.50        46.75877
341.95        47.26219
342.40        47.49181
342.85        47.36524
343.30        46.99764
343.75        46.54152
344.20        46.24564
344.66        46.17846
345.11        46.23137
345.56        46.33795
346.01        46.39316
346.46        46.35524
346.91        46.28369
347.36        46.14423
347.81         45.8683
348.26         45.4739
348.72        45.00435
349.17        44.57007
349.62        44.42816
350.07        44.61944
350.52        45.04201
350.97        45.53292
351.42        45.84784
351.87        45.91178
352.32        45.78925
352.77         45.5149
353.22        45.15232
353.67        44.74973
354.13          44.315
354.58        43.88383
355.03        43.56081
355.48        43.37154
355.93        43.30711
356.38        43.32151
356.83        43.32877
357.28        43.29115
357.73        43.20778
358.18        43.08866
358.63        42.96006
359.08        42.82421
359.53        42.67146
359.98        42.45905
360.43        42.12275
360.88        41.66718
361.33        41.13081
361.78         40.6105
362.23        40.26075
362.68         40.1151
363.13         40.1179
363.58        40.17746
364.03        40.15031
364.48        39.98487
364.93        39.70969
365.38        39.34802
365.83        38.94937
366.28        38.54336
366.73        38.12383
367.18        37.70163
367.63        37.29325
368.08        36.91204
368.53        36.57346
368.98        36.29022
369.43        36.06791
369.88        35.90191
370.33        35.78437
370.78        35.69398
371.23        35.59937
371.68        35.48678
372.13         35.3525
372.58        35.20669
373.03        35.07455
373.48        34.95797
373.93        34.84335
374.38        34.70664
374.83        34.51068
375.28        34.24749
375.72        33.92313
376.17        33.58478
376.62        33.26564
377.07        32.99007
377.52        32.75985
377.97        32.57359
378.42        32.42617
378.87        32.31021
379.32        32.21786
379.77        32.15464
380.22        32.12585
380.67        32.12444
381.11         32.1523
381.56        32.14496
382.01        32.02408
382.46         31.7778
382.91        31.42335
383.36        31.06614
383.81        30.86628
384.26        30.85022
384.71        30.97989
385.15        31.10769
385.60        31.01658
386.05        30.66802
386.50        30.13708
386.95        29.60713
387.40         29.3672
387.85        29.46795
388.29        29.79132
388.74        30.15619
389.19        30.27976
389.64        30.10314
390.09         29.7091
390.54        29.24245
390.98        28.92488
391.43        28.84043
391.88        28.90215
392.33        28.98814
392.78        28.92582
393.23        28.69348
393.67         28.3457
394.12        28.03507
394.57        27.87457
395.02        27.88752
395.47        28.02517
395.91        28.20806
396.36        28.26928
396.81        28.17757
397.26        27.98046
397.71        27.77073
398.15         27.6648
398.60        27.71787
399.05        27.86713
399.50        28.02818
399.95        28.08406
400.39        28.00852
400.84         27.8291
401.29        27.62403
401.74         27.5356
402.18         27.6047
402.63        27.77801
403.08        27.94134
403.53        27.90988
403.97        27.65334
404.42        27.25191
404.87         26.8453
405.32        26.66145
405.76        26.74809
406.21        27.02526
406.66        27.36574
407.11        27.57028
407.55         27.5857
408.00        27.48017
408.45        27.31038
408.90        27.10707
409.34        26.93706
409.79        26.91274
410.24        26.98721
410.68        26.97558
411.13        26.87097
411.58        26.78319
412.03        26.72621
412.47         26.6832
412.92        26.65417
413.37        26.63323
413.81        26.64565
414.26         26.7498
414.71        26.93809
415.15        27.20033
415.60        27.42591
416.05        27.46855
416.49        27.29624
416.94        26.95675
417.39        26.57469
417.83        26.35109
418.28        26.34305
418.73        26.48557
419.17        26.67511
419.62        26.74123
420.07         26.6463
420.51        26.45009
420.96        26.23292
421.41        26.08991
421.85          26.042
422.30        26.06928
422.74         26.1352
423.19        26.23041
423.64        26.33142
424.08        26.45579
424.53        26.56287
424.98        26.61967
425.42        26.62252
425.87        26.57998
426.31        26.50556
426.76        26.43217
427.21        26.35876
427.65        26.26904
428.10        26.20391
428.54        26.19844
428.99        26.26184
429.44        26.49375
429.88        26.74422
430.33        26.60553
430.77        26.16592
431.22        25.95678
431.66        26.02377
432.11        26.14531
432.56        26.27598
433.00        26.49658
433.45         26.6088
433.89        26.44982
434.34        26.16738
434.78         25.8151
435.23        25.35893
435.67        26.44853
436.12        25.59828
436.57        25.60439
437.01        25.49321
437.46        25.48458
437.90         25.5817
438.35        25.71881
438.79        25.84403
439.24        25.91306
439.68        25.91343
440.13          25.654
440.57        25.29953
441.02        25.52138
441.46        26.08558
441.91        26.18954
442.35           25.22
442.80        24.91209
443.24        25.02464
443.69        25.04557
444.13        24.93442
444.58        24.86733
445.02        24.85377
445.47         24.9233
445.91        25.03054
446.36        25.03253
446.80        24.90752
447.24        24.72983
447.69         24.5565
448.13         24.4248
448.58        24.36131
449.02        24.34965
449.47        24.35903
449.91        24.32962
450.36        24.25564
450.80        24.15314
451.25        24.06418
451.69        24.02839
452.13        24.06119
452.58        24.13898
453.02        24.23312
453.47        24.30898
453.91        24.35399
454.36        24.37468
454.80        24.37469
455.24        24.35655
455.69        24.33318
456.13        24.27905
456.58        24.22149
457.02        24.19062
457.46        24.18756
457.91        24.14929
458.35        24.08048
458.79        24.05324
459.24        24.06294
459.68        24.10043
460.13        24.19941
460.57        24.18521
461.01        24.02531
461.46        24.39591
461.90        24.38701
462.34        24.09753
462.79        24.34385
463.23        24.28864
463.68        24.27079
464.12        24.20567
464.56        24.28157
465.01        24.35099
465.45        24.39775
465.89        24.42179
466.34        24.42685
466.78        24.32891
467.22        24.18855
467.67        24.27732
468.11        24.53223
468.55        24.48328
468.99         24.1709
469.44        24.05237
469.88        24.15077
470.32        24.21334
470.77        24.20893
471.21        24.20939
471.65        24.21032
472.10        24.19082
472.54        24.17051
472.98        24.22662
473.42        24.35927
473.87        24.47216
474.31        24.53814
474.75         24.6709
475.20        24.81265
475.64        24.70838
476.08        24.44365
476.52        24.36471
476.97        24.49551
477.41        24.67773
477.85        24.84101
478.29        24.94302
478.74         24.9636
479.18         24.8745
479.62        24.76378
480.06         24.7765
480.50        24.90626
480.95        24.99496
481.39         25.0077
481.83        25.01114
482.27         25.0036
482.72        24.96264
483.16        24.91864
483.60        24.91613
484.04        24.95281
484.48        25.10708
484.93        25.42484
485.37        25.47047
485.81        25.53416
486.25        26.13505
486.69        26.94472
487.14        26.32665
487.58        25.87194
488.02        26.49373
488.46        26.01932
488.90        26.17516
489.34        26.11765
489.79        26.24572
490.23        26.48422
490.67          26.671
491.11        26.77962
491.55         26.7391
491.99        26.59812
492.43        26.54097
492.88        26.59988
493.32         26.6656
493.76        26.74719
494.20        26.89802
494.64        27.11501
495.08        27.40815
495.52        27.71772
495.96        27.90331
496.41        27.98155
496.85        28.06268
497.29        28.18208
497.73        28.40475
498.17         28.6927
498.61        28.81827
499.05        28.79626
499.49        28.89959
499.93        29.14319
500.37        29.30375
500.82        29.38596
501.26        29.60753
501.70        29.91002
502.14        29.95259
502.58        29.78152
503.02        29.75738
503.46         29.9056
503.90        30.03718
504.34        30.11564
504.78        30.16655
505.22        30.18155
505.66        30.16209
506.10        30.13767
506.54        30.15177
506.98        30.21857
507.42        30.33019
507.86        30.46924
508.30        30.60563
508.74        30.72622
509.18        30.83217
509.62        30.93557
510.06         31.0558
510.50        31.19518
510.94        31.34913
511.38        31.48119
511.82        31.53432
512.26        31.50193
512.70        31.40311
513.14        31.30476
513.58        31.30753
514.02        31.42367
514.46        31.62363
514.90        31.83649
515.34         31.8763
515.78        31.77473
516.22        31.61402
516.66        31.48013
517.10        31.19284
517.54        30.77925
517.98        31.21259
518.42        31.05264
518.86        31.26054
519.30        31.38769
519.74        31.56715
520.18        31.74002
520.62        31.79276
521.06        31.72346
521.50        31.54988
521.93        31.33348
522.37        31.18544
522.81        31.13636
523.25        31.15811
523.69        31.21322
524.13         31.2421
524.57        31.22363
525.01        31.17268
525.45        31.10796
525.89        31.05602
526.32        31.02344
526.76        31.00587
527.20        30.97307
527.64        30.88417
528.08        30.73566
528.52        30.54048
528.96        30.35934
529.40        30.28218
529.83         30.3202
530.27        30.45182
530.71        30.58717
531.15        30.58693
531.59        30.42635
532.03        30.15249
532.46        29.86149
532.90        29.72632
533.34        29.77322
533.78        29.94075
534.22         30.1405
534.66        30.23701
535.09        30.19042
535.53         30.0587
535.97        29.88222
536.41        29.71928
536.85        29.59722
537.28        29.51177
537.72        29.48149
538.16        29.44744
538.60        29.54967
539.04        29.65578
539.47        29.76419
539.91        29.88365
540.35        30.02154
540.79        29.92085
541.22        29.98941
541.66        30.04852
542.10        30.24542
542.54        30.08344
542.97        30.34826
543.41        30.46177
543.85        30.63531
544.29        30.79515
544.72        30.91397
545.16        31.03819
545.60        31.15849
546.04         31.1702
546.47        31.15733
546.91         31.4478
547.35         31.9612
547.79        32.29076
548.22        32.39746
548.66        32.44127
549.10        32.48483
549.53        32.73893
549.97        33.19746
550.41        33.24822
550.84        33.49523
551.28        33.61504
551.72        33.82117
552.15        34.04287
552.59        34.28676
553.03        34.55615
553.46         34.7974
553.90        34.96758
554.34        35.05452
554.77        35.07419
555.21        35.08113
555.65        35.14685
556.08        35.28255
556.52        35.46073
556.96        35.64391
557.39        35.81792
557.83        35.95723
558.27         35.9863
558.70        35.93642
559.14        35.93063
559.57        35.97346
560.01        36.05281
560.45        36.13847
560.88        36.12888
561.32        36.08892
561.75        36.15122
562.19        36.43693
562.63        36.54964
563.06        36.54562
563.50        36.67928
563.93        36.91006
564.37        37.11416
564.80        37.10998
565.24        37.14726
565.68        37.18067
566.11        37.23942
566.55        37.35962
566.98        37.43615
567.42        37.45082
567.85        37.90742
568.29        37.79474
568.72        38.14825
569.16        38.59714
569.60        38.89053
570.03        38.97901
570.47        39.10983
570.90        39.14188
571.34        39.51998
571.77        39.24182
572.21        39.89993
572.64        40.11913
573.08        40.20902
573.51        40.24018
573.95        40.77314
574.38         41.3105
574.82        41.59174
575.25        41.80809
575.69        41.57431
576.12        41.38213
576.56        41.21527
576.99         41.2613
577.42        41.47515
577.86        41.52672
578.29        41.53656
578.73        42.34539
579.16        41.54969
579.60        41.45036
580.03        41.24871
580.47        41.18973
580.90        40.93603
581.33        40.91035
581.77        41.11607
582.20        41.73607
582.64        41.22755
583.07        40.70442
583.51        40.64067
583.94        40.06668
584.37        39.95095
584.81        39.46567
585.24        39.51789
585.68        39.78876
586.11        39.81408
586.54         39.4504
586.98        39.25138
587.41        39.24035
587.85        39.24876
588.28        39.21886
588.71        39.10339
589.15        38.94656
589.58        38.57443
590.01        38.40942
590.45        38.96001
590.88        38.87646
591.31        38.89699
591.75        38.56889
592.18        38.63727
592.61        38.28342
593.05        38.69433
593.48        38.82352
593.91        39.60228
594.35        39.11933
594.78        39.34784
595.21         39.6172
595.65        40.12994
596.08        40.05709
596.51        40.04371
596.94        40.01125
597.38        40.05836
597.81        40.24871
598.24         40.6883
598.68         41.3529
599.11        41.35168
599.54        42.50121
599.97        42.26392
600.41        42.33645
600.84        43.18896
601.27        43.68721
601.70        44.29715
602.14        44.56465
602.57        45.01674
603.00        45.64775
603.43        46.26442
603.87        46.69727
604.30        47.17756
604.73        47.73211
605.16        47.86628
605.60        48.52842
606.03        49.15274
606.46        49.83125
606.89        50.61228
607.32        51.12339
607.76        51.31918
608.19        51.65348
608.62        52.25667
609.05        52.29235
609.48         52.7606
609.92        53.39418
610.35        53.29828
610.78        54.46393
611.21        55.11628
611.64        54.99262
612.07        55.61917
612.50        55.79636
612.94        56.07276
613.37        56.53832
613.80        57.02042
614.23        57.58089
614.66        57.90013
615.09        58.10335
615.52         58.5934
615.96        59.27222
616.39        59.72733
616.82        60.00171
617.25        59.78774
617.68        60.27158
618.11        60.63222
618.54        61.10305
618.97        61.20634
619.40        60.94473
619.84        61.14246
620.27          60.635
620.70        61.17763
621.13        62.17551
621.56        62.42736
621.99        62.10133
622.42        62.15243
622.85        62.75647
623.28        63.02621
623.71        63.00552
624.14        62.96358
624.57         63.0063
625.00        62.78946
625.43        63.15126
625.86        62.11868
626.29        62.18833
626.72         62.1088
627.15         61.7878
627.58        61.67398
628.01        61.44947
628.44        61.52212
628.87        61.21346
629.30        60.66652
629.73        60.33126
630.16        60.04309
630.59        59.61905
631.02        59.13438
631.45        58.57244
631.88        58.04421
632.31        57.56879
632.74        57.06636
633.17        56.53333
633.60        55.99036
634.03         55.4368
634.46        54.87882
634.89        54.30939
635.32        53.70104
635.75        53.06754
636.18        52.45589
636.61        51.88512
637.04        51.35161
637.47        50.85712
637.89        50.41311
638.32        49.99953
638.75        49.60603
639.18        49.22879
639.61        48.87646
640.04        48.53107
640.47        48.16016
640.90        47.76341
641.33         47.3549
641.76        46.97546
642.18        46.69749
642.61        46.52948
643.04        46.45112
643.47        46.43228
643.90        46.42041
644.33        46.39837
644.76        46.38612
645.18        46.38246
645.61        46.38625
646.04        46.40558
646.47        46.43775
646.90        46.52374
647.33        46.73299
647.75        47.07822
648.18        47.53554
648.61        48.04495
649.04         48.5162
649.47        48.93739
649.89         49.3008
650.32        49.66536
650.75        50.25566
651.18        51.06174
651.61        51.69624
652.03        52.19997
652.46        53.17402
652.89         54.4851
653.32        55.10048
653.74        55.12868
654.17        55.91991
654.60         56.4106
655.03        58.03677
655.46        57.66607
655.88        60.06065
656.31        61.24788
656.74        70.06993
657.16        67.31271
657.59        62.64522
658.02        63.20102
658.45        63.04292
658.87        64.79632
659.30        65.64915
659.73        66.15422
660.15        67.13702
660.58        67.23384
661.01         67.2599
661.44         67.0587
661.86        67.52935
662.29        68.59518
662.72         69.6292
663.14        70.38921
663.57        70.48756
664.00        70.13489
664.42        70.18314
664.85        70.73512
665.27        71.23125
665.70        71.59354
666.13        71.99935
666.55        72.43288
666.98        72.84064
667.41        73.20659
667.83         73.4958
668.26         73.6909
668.69        73.81029
669.11         73.9139
669.54        74.07751
669.96        74.32301
670.39        74.68978
670.82        75.11391
671.24        75.32275
671.67        75.35859
672.09        75.59397
672.52        75.99467
672.94        76.21679
673.37        76.24046
673.80        76.16686
674.22        76.08118
674.65        76.09406
675.07        76.24808
675.50        76.47431
675.92        76.70858
676.35        76.83333
676.77         76.8317
677.20        76.74005
677.62        76.64375
678.05        76.68993
678.47         76.9006
678.90        77.23042
679.32        77.60004
679.75         77.8695
680.17        77.99499
680.60        78.07433
681.02        78.14959
681.45        78.11791
681.87        78.08493
682.30        78.37315
682.72        78.88486
683.15         79.1009
683.57        78.99774
684.00         78.8344
684.42        78.78795
684.85        78.82772
685.27        79.00364
685.70        79.32098
686.12        79.67172
686.54        79.91546
686.97         80.0115
687.39        79.96312
687.82        79.84138
688.24        79.90685
688.66         80.1349
689.09        80.22868
689.51        80.19083
689.94        80.21622
690.36        80.32732
690.78        80.38309
691.21        80.38485
691.63        80.50789
692.06        80.77191
692.48        80.83701
692.90        80.87246
693.33        81.45329
693.75        81.22448
694.17        81.42436
694.60         81.5821
695.02        81.35703
695.44        80.84069
695.87        80.83345
696.29        81.29932
696.71        81.22266
697.14        80.81468
697.56        81.26498
697.98         82.3394
698.41        83.01576
698.83        83.08286
699.25        82.33346
699.68        82.57236
700.10        82.40816
700.52         82.4167
700.94        82.55814
701.37        82.75877
701.79        82.93636
702.21        83.01701
702.64        83.02831
703.06        83.01611
703.48         83.1263
703.90        83.39278
704.33         83.5362
704.75         83.8788
705.17        83.90344
705.59        83.70473
706.01        83.33725
706.44        82.98862
706.86        82.93471
707.28        83.21649
707.70        83.76518
708.12        84.39875
708.55        84.71735
708.97        84.76714
709.39        84.67524
709.81        84.54045
710.23        84.38943
710.66        84.28095
711.08        84.24245
711.50        84.29092
711.92         84.4307
712.34        84.65303
712.76        85.00216
713.19        85.39642
713.61        85.54698
714.03        85.72337
714.45        85.68479
714.87        85.60577
715.29         85.6008
715.71        85.70399
716.13        85.87558
716.56        86.04916
716.98        86.22274
717.40        86.34115
717.82        86.41988
718.24        86.47231
718.66        86.51665
719.08        86.55934
719.50        86.59128
719.92        86.60054
720.34        86.57373
720.76        86.51297
721.19        86.41409
721.61        86.32235
722.03        86.28836
722.45         86.3361
722.87        86.38464
723.29        86.43214
723.71        86.51031
724.13        86.61729
724.55        86.73412
724.97        86.87492
725.39        87.05376
725.81        87.27187
726.23         87.5565
726.65        87.88332
727.07        88.08054
727.49        88.31306
727.91        88.45475
728.33         88.5572
728.75        88.60488
729.17        88.60917
729.59        88.58111
730.01        88.52737
730.43        88.49835
730.85        88.51298
731.27        88.47653
731.69        88.40889
732.10        88.66212
732.52        88.85918
732.94        88.95244
733.36         88.8325
733.78        88.77081
734.20        88.82496
734.62        88.73768
735.04        88.46677
735.46        88.63084
735.88        88.77078
736.30        88.05607
736.72        88.41852
737.13         88.6263
737.55        89.13239
737.97         89.7989
738.39        90.35901
738.81         90.0339
739.23         89.0895
739.65        88.84631
740.06        89.27827
740.48        89.80119
740.90        90.23172
741.32        89.41579
741.74        88.92396
742.16        89.00858
742.57        89.04917
742.99        89.36263
743.41        89.52861
743.83        89.68169
744.25         89.7645
744.67        89.75024
745.08        89.69472
745.50        89.62746
745.92        89.58119
746.34        89.53352
746.75        89.48429
747.17        89.42067
747.59        89.35407
748.01        89.37614
748.42        89.46662
748.84        89.48353
749.26        89.52045
749.68        89.61035
750.09         89.7852
750.51        90.46448
750.93        91.30407
751.35        90.99351
751.76         89.7833
752.18        89.28003
752.60        89.58163
753.01        89.85288
753.43        89.93053
753.85        90.08134
754.27         90.2224
754.68        90.50777
755.10        90.92808
755.52        90.55066
755.93        90.57105
756.35        90.65997
756.77        90.36203
757.18        90.44887
757.60        90.72177
758.02        91.08712
758.43        91.32811
758.85        91.62851
759.26        91.78265
759.68        90.99263
760.10        90.77677
760.51        90.92346
760.93        90.41365
761.34        90.27983
761.76        90.31205
762.18        90.17102
762.59        90.02642
763.01        90.12446
763.42        90.54108
763.84         91.1057
764.26        91.67516
764.67        91.62025
765.09        91.19399
765.50        91.42554
765.92         92.2007
766.33        92.45019
766.75        92.00202
767.16        91.36797
767.58        90.71725
768.00        90.20171
768.41        90.08028
768.83         90.6188
769.24        91.58883
769.66        92.36216
770.07        92.67348
770.49        92.42635
770.90        91.85224
771.32        91.67305
771.73        91.95252
772.15        92.18552
772.56         92.2698
772.97        92.14806
773.39        91.80959
773.80        91.65157
774.22        91.61382
774.63        91.19311
775.05        90.57047
775.46        90.47061
775.88        90.93465
776.29        91.71149
776.70        92.47924
777.12        92.80429
777.53        92.58196
777.95        91.93652
778.36        91.18909
778.77        90.83177
779.19        91.02324
779.60        91.76418
780.02        92.67713
780.43        93.24685
780.84        93.34115
781.26         92.7524
781.67        91.91948
782.09        92.50945
782.50        94.13263
782.91        94.29279
783.33        93.07906
783.74        92.71957
784.15        93.26847
784.57        93.54288
784.98        93.38641
785.39        92.89264
785.81        92.18439
786.22        91.75692
786.63        91.68658
787.04        91.65097
787.46        91.68449
787.87         91.9579
788.28        92.39198
788.70        92.86308
789.11         93.3399
789.52        93.12103
789.93        93.75639
790.35        93.58921
790.76        93.22531
791.17        93.30927
791.58        93.79802
792.00        93.80096
792.41         93.2721
792.82         93.1242
793.23        93.25663
793.65        92.46507
794.06        91.24991
794.47        91.51795
794.88        92.92388
795.29        94.27272
795.71        94.05974
796.12        93.50681
796.53         94.6194
796.94        93.98235
797.35        92.63112
797.76         92.3363
798.18        93.11104
798.59        93.45221
799.00        93.26246
799.41         93.4881
799.82         94.0562
800.23        94.36813
800.64        94.35668
801.06        94.14252
801.47        93.87495
801.88        93.73193
802.29        93.74969
802.70        93.81989
803.11        93.86758
803.52        93.75651
803.93        93.48544
804.34        93.25535
804.75        93.03728
805.17        92.68919
805.58        92.40343
805.99        92.15731
806.40        92.14272
806.81        93.41682
807.22        95.36916
807.63        95.47561
808.04        93.99711
808.45        93.46954
808.86        94.15784
809.27        95.15955
809.68        95.72958
810.09        96.08876
810.50        95.97615
810.91        95.61659
811.32          95.169
811.73        94.72031
812.14        94.34732
812.55        94.13226
812.96        94.03011
813.37        93.76207
813.78        93.39683
814.19        93.37495
814.60        93.64442
815.01        93.78642
815.42        93.76971
815.83        93.79519
816.24        93.89178
816.65        94.01128
817.05        94.16361
817.46        94.30997
817.87        94.43825
818.28        94.47529
818.69        94.43122
819.10        94.33277
819.51        94.27058
819.92        94.47612
820.33        94.99165
820.74         95.5071
821.14        95.94608
821.55        96.67873
821.96        97.41768
822.37        97.02777
822.78        95.75549
823.19        95.09418
823.60        95.21909
824.00        95.37753
824.41        95.39724
824.82        95.47572
825.23        95.56185
825.64        95.63343
826.04        95.68981
826.45        95.66639
826.86        95.57431
827.27        95.42522
827.68        95.27174
828.08        95.24498
828.49        95.29942
828.90        95.43445
829.31        95.60935
829.72        95.74377
830.12         95.8239
830.53        95.84113
830.94        95.78574
831.35        95.60641
831.75        95.34148
832.16        94.95942
832.57        94.60889
832.97        94.52347
833.38        94.71996
833.79        95.12609
834.20        95.58433
834.60        95.83377
835.01        95.82881
835.42        95.66431
835.82        95.41226
836.23        95.13181
836.64        94.89635
837.04        94.66161
837.45        94.52802
837.86        94.71925
838.26        95.27178
838.67        96.09567
839.08        96.89752
839.48        97.11194
839.89        96.61423
840.29        95.61806
840.70        94.59926
841.11        94.16423
841.51        94.46738
841.92        95.25281
842.33        96.31004
842.73        97.26585
843.14        97.83182
843.54         98.1977
843.95         98.2526
844.35        97.92973
844.76         97.2868
845.17        96.36575
845.57        95.44755
845.98        95.00966
846.38        95.14845
846.79        95.75417
847.19        96.63545
847.60        97.23268
848.00        97.43861
848.41        97.31374
848.81        97.10571
849.22        97.11753
849.62        97.47834
850.03        98.01292
850.43        98.58698
850.84        98.81489
851.24        98.66713
851.65        98.19263
852.05        97.64847
852.46        97.30829
852.86        97.26856
853.27        97.46976
853.67        97.70951
854.07        97.85126
854.48        97.80929
854.88        97.66814
855.29         97.4448
855.69        97.35814
856.10        97.34941
856.50        97.47147
856.90        97.57952
857.31         97.4837
857.71        97.24184
858.12        96.86073
858.52        96.51113
858.92        96.33158
859.33        96.33021
859.73        96.51396
860.13        96.80585
860.54         97.0715
860.94        97.32777
861.34        97.53165
861.75         97.5958
862.15        97.50468
862.55         97.2196
862.96        96.77734
863.36        96.28339
863.76        95.86976
864.17        95.59438
864.57        95.45766
864.97        95.47243
865.38        95.61973
865.78         95.9271
866.18        96.32185
866.58        96.68172
866.99        96.78904
867.39        96.65354
867.79        96.29878
868.19         95.7392
868.60        94.98553
869.00        94.06173
869.40        93.00617
869.80        92.11278
870.21        91.85659
870.61        92.38301
871.01        93.49048
871.41        94.68411
871.81        95.16753
872.22        94.77071
872.62        93.77207
873.02          92.584
873.42        91.93484
873.82        91.97729
874.22        92.36381
874.63        92.98731
875.03        93.71054
875.43        94.34053
875.83        95.07471
876.23        95.39804
876.63        95.58546
877.03        95.55749
877.44        95.22543
877.84        104.6087
878.24        94.69022
878.64        94.42626
879.04        94.66031
879.44        93.44192
879.84        92.31816
880.24        92.65144
880.64        92.01117
881.04         90.5966
881.44        89.83557
881.84        90.03645
882.24        90.94193
882.65        92.00727
883.05        92.48037
883.45        92.06446
883.85         91.0675
884.25        90.03977
884.65        89.73645
885.05        90.32442
885.45        91.56296
885.85        92.95425
886.25         93.6626
886.65        93.45803
887.05        92.61722
887.45        91.61386
887.85        91.14986
888.25        91.40826
888.65        92.18413
889.04        93.15925
889.44        93.68439
889.84         93.6145
890.24        93.14157
890.64        92.57527
891.04        92.37305
891.44        92.60529
891.84        93.06016
892.24        93.47622
892.64        93.42728
893.04        92.83772
893.44        91.97507
893.83        90.95399
894.23        89.97176
894.63         89.1017
895.03        88.28567
895.43        87.78851
895.83        88.05785
896.23         89.1165
896.63        90.80456
897.02        92.58324
897.42          93.438
897.82        93.13068
898.22        91.95708
898.62        90.42139
899.01        89.31486
899.41        88.92425
899.81        88.99855
900.21        89.40264
900.61        89.92708
901.00        90.46204
901.40        91.06882
901.80        91.66233
902.20        92.06164
902.59        92.22805
902.99        92.14634
903.39        91.88315
903.79         91.5785
904.18        91.28314
904.58        91.02005
904.98        90.83044
905.38        90.78083
905.77        90.86958
906.17        91.11153
906.57        91.39617
906.96        91.57426
907.36        91.56293
907.76         91.3662
908.15        91.10877
908.55        90.94778
908.95         90.9381
909.34        91.08279
909.74        91.14683
910.14        90.75632
910.53        89.87105
910.93        88.70484
911.33         87.7201
911.72        87.64004
912.12         88.5537
912.52        90.12415
912.91        91.84383
913.31        92.86897
913.70        93.03504
914.10        92.55503
914.49        91.63021
914.89        90.70857
915.29        90.04385
915.68        89.52357
916.08        89.28006
916.47        89.43896
916.87        89.95019
917.26        90.75756
917.66        91.59604
918.05        92.05229
918.45        91.98666
918.84        91.56612
919.24        90.85876
919.64        90.02002
920.03        89.16908
920.42        88.28951
920.82        87.69635
921.21        87.80725
921.61        88.60983
922.00        90.02654
922.40        91.47931
922.79        92.23826
923.19        92.03838
923.58        91.02359
923.98        89.59657
924.37        88.68884
924.77        88.70539
925.16        88.22871
925.55        89.16927
925.95        89.36133
926.34         89.3425
926.74        89.17287
927.13        89.13094
927.52          89.523
927.92        90.36366
928.31        91.57552
928.70        92.77409
929.10        93.31039
929.49        93.03276
929.89        92.13022
930.28        91.07608
930.67        90.62433
931.07        90.93772
931.46        91.80923
931.85        92.85482
932.24        93.51283
932.64        93.60532
933.03        93.28262
933.42        92.66665
933.82          92.056
934.21        91.57442
934.60        91.16979
934.99        90.73415
935.39        90.16286
935.78        89.43679
936.17        88.45443
936.56        87.30724
936.96        87.53861
937.35        87.35376
937.74        88.10432
938.13        88.95171
938.53        89.67997
938.92        90.27406
939.31        90.81655
939.70        91.21609
940.09        91.24612
940.49        90.89146
940.88        90.25883
941.27        89.66581
941.66        89.61151
942.05        90.16961
942.44         91.1726
942.84        92.32443
943.23         93.1549
943.62         93.4745
944.01        93.44904
944.40         93.1478
944.79         92.6953
945.18        92.16643
945.57         91.4734
945.97        90.84527
946.36        90.69088
946.75        91.09814
947.14        91.95113
947.53        92.77846
947.92        92.89795
948.31        92.22228
948.70        90.96809
949.09         89.5737
949.48        88.82515
949.87        88.95044
950.26        89.68711
950.65         90.6917
951.04        91.38887
951.43        91.56328
951.82        91.38911
952.21        90.94541
952.60        90.35522
952.99         89.7205
953.38        89.01974
953.77        88.37382
954.16        87.99063
954.55        87.91576
954.94        88.11722
955.33        88.51305
955.72        88.93368
956.11        89.31844
956.50        89.70846
956.89        90.05163
957.28        90.26874
957.66        90.33345
958.05         90.1653
958.44        89.92176
958.83        89.82413
959.22        89.89965
959.61        90.13253
960.00        90.26173
960.39        89.82322
960.78        88.76747
961.16        87.25996
961.55        85.85286
961.94        85.24773
962.33        85.57954
962.72        86.62609
963.11        87.91323
963.49        88.63461
963.88         88.4482
964.27        87.65408
964.66        86.60882
965.04        85.91692
965.43        85.76576
965.82        85.97101
966.21         86.4138
966.60        86.90911
966.98        87.37285
967.37        87.84711
967.76        88.30951
968.15        88.67941
968.53        88.95419
968.92        89.04034
969.31        88.99256
969.69         88.9217
970.08        88.80753
970.47        88.68865
970.86        88.50604
971.24        88.12725
971.63        87.59554
972.02        86.98632
972.40        86.48226
972.79         86.3725
973.17        86.76107
973.56        87.42023
973.95        88.23679
974.33        88.98725
974.72        89.42354
975.11        89.61907
975.49        89.45711
975.88        88.75266
976.26        87.57315
976.65        86.07932
977.04        84.56876
977.42        83.56637
977.81        83.25206
978.19        83.48092
978.58        84.24093
978.96        85.55077
979.35         87.1823
979.74        89.17045
980.12        90.98315
980.51        91.40979
980.89        90.38091
981.28        88.26524
981.66        85.98083
982.05          84.864
982.43        85.12086
982.82        86.38028
983.20        88.17142
983.59        89.29536
983.97        89.46268
984.35         88.8863
984.74        88.05389
985.12        87.65671
985.51        87.86376
985.89        88.48957
986.28        89.08232
986.66        89.05206
987.04        88.15375
987.43        86.82941
987.81        85.44469
988.20        84.42451
988.58         83.7785
988.96        83.33715
989.35        83.02657
989.73        82.98633
990.12        83.11868
990.50        83.55741
990.88        83.93157
991.27        83.81779
991.65        83.25825
992.03        82.31553
992.42        81.45324
992.80        81.63746
993.18        83.07254
993.56        85.31414
993.95        87.57707
994.33         89.1209
994.71        89.63006
995.10        89.29168
995.48        88.53516
995.86        87.96038
996.24        87.79662
996.63         88.0336
997.01        88.21305
997.39        87.29699
997.77        85.17386
998.15        82.34023
998.54         80.2193
998.92        80.33389
999.30        82.98258
999.68        88.34938
1000.06        94.95101
1000.45        97.18442
1000.83        92.81789
1001.21        84.55942
1001.59        76.77927
1001.97        72.86497
1002.35         72.6339
1002.73        75.02795
1003.12        78.82315
1003.50        81.31733
1003.88        80.98182
1004.26        78.76606
1004.64        75.91897
1005.02        74.15083
1005.40         73.9734
1005.78        74.79108
1006.16        76.29433
1006.54        77.87248
1006.92        79.02286
1007.30        79.85145
1007.69        80.46539
1008.07        81.13238
1008.45        81.99921
1008.83        83.21291
1009.21        84.50893
1009.59        84.70762
1009.97        82.87568
1010.35         79.1726
1010.73         75.6934
1011.11         75.0321
1011.49         77.1931
1011.86        81.34326
1012.24        85.03308
1012.62        85.89529
1013.00        83.83702
1013.38        79.92234
1013.76        75.51721
1014.14        73.05745
1014.52        73.28643
1014.90        75.28146
1015.28        78.22665
1015.66        80.82121
1016.04        82.48302
1016.41        83.75041
1016.79        83.73598
1017.17        81.20309
1017.55        76.59412
1017.93        70.99413
1018.31        66.32632
1018.69        64.23812
1019.06        64.54639
1019.44        66.59866
1019.82        69.51669
1020.20        70.99773
1020.58        69.99236
1020.95        67.16418
1021.33        63.37957
1021.71        59.20664
1022.09        54.30354
1022.46        46.42093
1022.84        35.90568
1023.22        34.54785
1023.60        46.87617
1023.97        59.77118
1024.35        67.16073
1024.73         70.2768
