SpectraSmart Spectrum 2.9.0.0
--------- Device Information -----------
Spectrum Name :  反射率_0
Saving Time :  2024/04/20 00:59:49
Spectro-Module Model Name : SE2030-DUVN
Spectro-Module Serial Number : OS361AC55029948
Wavelength Start : 200
Wavelength End : 1025
Wavelength Unit : Wavelength(nm)
Spectrum Unit : Reflectance(%)
-----------Spectrum Setting ------------
Integration Time : 30ms
Average : 10
Boxcar : 0
Background removal :  enabled
linearity correction :  enabled
SC :  disabled
Intensity correction :  disabled
DWT denoise :  enabled
savitzky-golay :  disabled
FFT :  disabled
Running average :  disabled
Kalman :  disabled
High pass :  disabled
---------------BEGIN--------------------
Wavelength(nm)             Reflectance(%)
200.29               0
200.75        56.31561
201.21        59.39956
201.67        64.95499
202.13        71.91636
202.58        79.35059
203.04        87.27413
203.50        93.52851
203.96        93.64204
204.42        88.26507
204.88        80.79092
205.34        74.19735
205.80        69.56367
206.26        65.98094
206.72        62.28219
207.18        58.15873
207.64        55.05461
208.10        54.99701
208.55        58.14106
209.01        61.43812
209.47        62.70144
209.93        62.01025
210.39        60.27682
210.85        58.17202
211.31         56.3704
211.77        54.88275
212.23        53.16207
212.69         51.6911
213.14        52.33125
213.60         54.7484
214.06         58.0235
214.52        60.54488
214.98        61.55725
215.44        61.32905
215.90        59.87543
216.36        58.12976
216.81        58.24272
217.27        60.72549
217.73        64.89861
218.19        68.30841
218.65        67.61647
219.11        62.26797
219.57        52.74258
220.02        41.67582
220.48        36.23627
220.94        38.89697
221.40        48.15416
221.86        59.26274
222.32        64.90726
222.77         63.3798
223.23        57.23727
223.69        50.18175
224.15        47.50124
224.61        49.49335
225.06        53.43407
225.52        56.90966
225.98         57.9828
226.44        56.56709
226.90        53.57347
227.36        49.85931
227.81        46.89348
228.27        45.62513
228.73        45.49223
229.19        45.97941
229.65        46.47349
230.10        46.78613
230.56         47.0863
231.02        47.55938
231.48        48.44752
231.93        49.66557
232.39        51.05686
232.85        52.19496
233.31        52.47343
233.77        51.79954
234.22        50.38689
234.68          48.694
235.14        47.44632
235.60        46.92779
236.05        46.98209
236.51        47.42051
236.97        47.91462
237.43        48.40394
237.88        49.21692
238.34        50.29702
238.80        51.62528
239.26        52.96849
239.71         54.0026
240.17        54.76763
240.63        56.07245
241.08        58.15432
241.54        60.77253
242.00         63.1303
242.46        63.65464
242.91        61.63186
243.37        56.47756
243.83        48.73107
244.28        43.98964
244.74        47.58912
245.20        58.18052
245.66        68.63488
246.11        73.03126
246.57        70.86092
247.03        62.92393
247.48        50.51111
247.94        44.39667
248.40         47.8065
248.85         53.7468
249.31        58.61099
249.77        61.70672
250.22        63.59583
250.68        65.20261
251.14        66.49129
251.59         66.7664
252.05        65.90607
252.51        63.97436
252.96        61.50772
253.42        59.99146
253.88        59.91889
254.33        60.83841
254.79        62.85028
255.25        65.66727
255.70        68.85573
256.16        72.05408
256.62        74.53809
257.07        75.50686
257.53        75.09127
257.99        73.47688
258.44        70.81062
258.90        68.22029
259.35        65.77706
259.81        64.05306
260.27        62.52635
260.72        60.69499
261.18        58.75557
261.63        56.41944
262.09        54.51161
262.55         53.6614
263.00        53.75825
263.46        54.58908
263.91        55.11864
264.37        54.41672
264.83        52.49342
265.28        49.72738
265.74        47.25974
266.19        46.23203
266.65        46.78057
267.11         48.2706
267.56         49.7823
268.02        50.00912
268.47        48.73085
268.93        46.41524
269.38        43.69854
269.84        41.85801
270.30        41.23795
270.75        41.45826
271.21         41.9967
271.66        42.06807
272.12        41.45219
272.57        40.39917
273.03        39.24137
273.48        38.38597
273.94        37.98602
274.39        37.84408
274.85        37.73404
275.31        37.31084
275.76        36.50227
276.22        35.46904
276.67        34.44691
277.13        33.88417
277.58        33.77697
278.04        33.98835
278.49        34.15306
278.95        33.83271
279.40        32.93716
279.86        31.73654
280.31        30.46915
280.77        29.61023
281.22        29.18497
281.68        29.06367
282.13        29.06699
282.59        28.97674
283.04        28.71842
283.50         28.4066
283.95        28.05114
284.41        27.69949
284.86        27.35308
285.32        27.01053
285.77         26.7144
286.22        26.60727
286.68        26.69032
287.13        26.89286
287.59          27.094
288.04        27.08807
288.50         26.8602
288.95        26.44515
289.41        25.97978
289.86        25.59914
290.32        25.39665
290.77        25.32645
291.22        25.35826
291.68        25.40927
292.13        25.46762
292.59        25.58149
293.04        25.81275
293.50        26.26831
293.95        26.94265
294.40        27.76994
294.86        28.65205
295.31        29.45199
295.77        30.13087
296.22        30.72891
296.68        31.27305
297.13        31.78882
297.58        32.30926
298.04        32.83276
298.49          33.407
298.95        34.14785
299.40        35.04725
299.85        36.06514
300.31        37.09977
300.76        37.98345
301.21        38.67511
301.67        39.24593
302.12        39.72172
302.58         40.2149
303.03        40.73153
303.48        41.26025
303.94        41.83505
304.39        42.46312
304.84        43.14526
305.30        43.86802
305.75        44.54486
306.20        45.06918
306.66        45.44008
307.11        45.66903
307.57        45.83471
308.02        45.97568
308.47        46.13854
308.93        46.30351
309.38         46.4738
309.83        46.71319
310.29        47.01242
310.74        47.35121
311.19        47.62497
311.65        47.66155
312.10        47.43278
312.55        47.00276
313.00        46.52487
313.46        46.23438
313.91        46.17175
314.36        46.28594
314.82         46.4596
315.27        46.52517
315.72        46.41871
316.18        46.20497
316.63        45.94212
317.08        45.73498
317.53        45.60533
317.99        45.50032
318.44          45.383
318.89         45.1864
319.35        44.89704
319.80        44.55512
320.25         44.1837
320.70        43.81578
321.16        43.46471
321.61        43.12622
322.06        42.82213
322.51        42.59318
322.97         42.4297
323.42        42.32353
323.87        42.20688
324.32        41.97571
324.78         41.5994
325.23         41.1243
325.68        40.59674
326.13        40.10873
326.59        39.70089
327.04        39.38099
327.49        39.14605
327.94        38.99347
328.39        38.90872
328.85        38.86384
329.30        38.87886
329.75        38.91954
330.20        38.95878
330.66        38.96846
331.11        38.91318
331.56        38.68394
332.01        38.27133
332.46        37.71143
332.92         37.1072
333.37        36.65606
333.82        36.42268
334.27        36.38303
334.72        36.46865
335.17        36.54766
335.63        36.55565
336.08        36.52667
336.53        36.49699
336.98        36.54795
337.43        36.68705
337.88        36.87846
338.34        36.98972
338.79        36.86448
339.24        36.46158
339.69        35.83865
340.14        35.20151
340.59        34.89056
341.05        34.97425
341.50        35.36047
341.95        35.81938
342.40        35.98978
342.85        35.79007
343.30        35.34211
343.75        34.81451
344.20        34.48496
344.66        34.42632
345.11        34.51338
345.56        34.66943
346.01        34.77477
346.46        34.77395
346.91         34.7244
347.36        34.57285
347.81         34.2218
348.26        33.69233
348.72        33.04999
349.17        32.43307
349.62        32.15071
350.07        32.26744
350.52        32.67038
350.97        33.20396
351.42        33.63107
351.87        33.86433
352.32        33.95683
352.77        33.89234
353.22        33.65503
353.67        33.27169
354.13        32.76403
354.58         32.2171
355.03        31.81209
355.48         31.5986
355.93        31.55481
356.38         31.6004
356.83        31.59175
357.28        31.48361
357.73         31.2996
358.18        31.10271
358.63        31.00154
359.08         31.0092
359.53        31.07643
359.98        31.09337
360.43        30.89939
360.88        30.47403
361.33        29.88386
361.78        29.25965
362.23        28.81365
362.68        28.60097
363.13        28.54922
363.58        28.56391
364.03        28.49614
364.48          28.294
364.93          28.001
365.38        27.63369
365.83        27.22376
366.28        26.80053
366.73        26.35917
367.18        25.93818
367.63        25.59989
368.08        25.35676
368.53        25.19944
368.98        25.09273
369.43        24.97073
369.88        24.81536
370.33        24.64555
370.78        24.47201
371.23        24.31884
371.68        24.19442
372.13        24.07745
372.58        23.98364
373.03        23.94504
373.48        23.95359
373.93        23.99209
374.38        23.99598
374.83        23.86476
375.28        23.58384
375.72        23.18151
376.17        22.74988
376.62         22.3989
377.07        22.17138
377.52         22.0384
377.97        21.97768
378.42        21.95031
378.87        21.93195
379.32        21.92788
379.77        21.91962
380.22        21.87516
380.67        21.78938
381.11        21.67365
381.56        21.52418
382.01          21.362
382.46         21.1971
382.91        21.01688
383.36        20.85909
383.81        20.77755
384.26        20.77275
384.71        20.83712
385.15        20.87465
385.60        20.74216
386.05         20.4225
386.50         19.9651
386.95         19.5173
387.40        19.31263
387.85        19.39265
388.29        19.67222
388.74         19.9929
389.19         20.1219
389.64        20.00965
390.09        19.72047
390.54        19.37961
390.98        19.18032
391.43        19.18681
391.88        19.32194
392.33        19.46336
392.78        19.43843
393.23        19.22901
393.67        18.89615
394.12        18.58932
394.57        18.44663
395.02        18.49425
395.47         18.6798
395.91        18.91083
396.36        19.00478
396.81        18.91886
397.26        18.70528
397.71        18.46355
398.15        18.32608
398.60        18.34234
399.05         18.4523
399.50        18.57041
399.95        18.57619
400.39        18.44414
400.84        18.21108
401.29        17.96116
401.74        17.84604
402.18        17.91292
402.63         18.1069
403.08        18.32045
403.53        18.38111
403.97         18.2539
404.42         18.0054
404.87        17.74776
405.32        17.66488
405.76        17.79382
406.21        18.06471
406.66        18.37111
407.11        18.54935
407.55        18.55756
408.00        18.45311
408.45        18.28985
408.90        18.11584
409.34        17.98629
409.79        17.96789
410.24        18.02562
410.68        18.02993
411.13        17.97316
411.58        17.93501
412.03        17.91525
412.47        17.88512
412.92        17.84246
413.37        17.78493
413.81         17.7534
414.26        17.82705
414.71        18.00631
415.15         18.2762
415.60        18.52303
416.05        18.58676
416.49        18.43208
416.94        18.11455
417.39        17.76253
417.83        17.58461
418.28        17.63581
418.73        17.84078
419.17        18.09358
419.62        18.21778
420.07        18.17303
420.51        18.02336
420.96        17.83018
421.41        17.66612
421.85        17.55746
422.30        17.49109
422.74        17.47137
423.19        17.53864
423.64        17.68118
424.08        17.89924
424.53        18.12284
424.98        18.25103
425.42        18.25773
425.87        18.17313
426.31        18.03996
426.76        17.93905
427.21        17.88532
427.65        17.84517
428.10        17.84613
428.54          17.906
428.99        18.02203
429.44        18.27085
429.88        18.51855
430.33        18.43252
430.77        18.07391
431.22        17.82298
431.66        17.76859
432.11        17.84598
432.56        18.04531
433.00        18.43573
433.45        18.79647
433.89        18.78275
434.34        18.49477
434.78        18.14499
435.23        17.76302
435.67        18.59613
436.12        18.05474
436.57        18.05498
437.01        17.88234
437.46        17.84597
437.90         17.9498
438.35        18.04939
438.79        18.10544
439.24        18.13416
439.68        18.12903
440.13        17.94068
440.57         17.6856
441.02        17.83885
441.46        18.23591
441.91        18.30705
442.35        17.62512
442.80        17.42113
443.24        17.51739
443.69        17.53063
444.13        17.42495
444.58        17.34101
445.02        17.28793
445.47        17.27658
445.91        17.29828
446.36        17.29887
446.80         17.2676
447.24        17.23773
447.69        17.22157
448.13        17.20052
448.58        17.18167
449.02        17.16626
449.47        17.14351
449.91        17.08968
450.36        17.01002
450.80        16.91018
451.25        16.82648
451.69        16.79641
452.13        16.83177
452.58         16.9126
453.02        17.00925
453.47        17.07671
453.91        17.10242
454.36        17.09555
454.80        17.06531
455.24         17.0277
455.69        16.99694
456.13        16.95074
456.58        16.90718
457.02        16.88464
457.46        16.88419
457.91        16.86478
458.35        16.82811
458.79        16.81807
459.24        16.83043
459.68        16.85374
460.13        16.92408
460.57        16.93512
461.01        16.86619
461.46        17.18712
461.90        17.23138
462.34        17.01915
462.79        17.12223
463.23        16.96234
463.68        16.82898
464.12        16.74631
464.56        16.86016
465.01        17.03287
465.45        17.19548
465.89        17.26534
466.34        17.23219
466.78        17.07067
467.22        16.85655
467.67        16.83174
468.11        16.97182
468.55        16.93412
468.99         16.7502
469.44        16.74132
469.88        16.91633
470.32        17.09507
470.77        17.21891
471.21        17.28343
471.65        17.27274
472.10        17.18696
472.54        17.07056
472.98        17.03548
473.42        17.10008
473.87        17.18236
474.31        17.24886
474.75        17.35263
475.20        17.44623
475.64        17.36127
476.08        17.16673
476.52        17.11699
476.97        17.23125
477.41        17.39377
477.85        17.54627
478.29        17.64652
478.74        17.67649
479.18        17.61763
479.62         17.5419
480.06        17.56803
480.50        17.69276
480.95         17.7973
481.39        17.84299
481.83        17.85516
482.27        17.83224
482.72        17.77328
483.16        17.71128
483.60         17.7004
484.04        17.74489
484.48        17.88437
484.93        18.17553
485.37        18.29594
485.81        18.38268
486.25        18.94432
486.69        19.68777
487.14        18.87692
487.58        18.58104
488.02        19.41938
488.46        18.96832
488.90        19.09783
489.34        18.87634
489.79        19.04203
490.23        19.48884
490.67        19.71618
491.11        19.70722
491.55        19.64486
491.99        19.57399
492.43         19.5181
492.88        19.50459
493.32        19.49402
493.76        19.52222
494.20        19.65749
494.64        19.90122
495.08        20.26506
495.52         20.6636
495.96        20.87894
496.41        20.93088
496.85         21.0317
497.29        21.20288
497.73        21.38994
498.17        21.56791
498.61        21.63192
499.05        21.60982
499.49        21.70398
499.93        21.93158
500.37        22.11729
500.82        22.25702
501.26        22.52433
501.70        22.85827
502.14        22.95185
502.58        22.83734
503.02        22.83078
503.46        22.95435
503.90         23.0387
504.34        23.06334
504.78        23.07371
505.22        23.07003
505.66        23.05059
506.10        23.03727
506.54         23.0596
506.98        23.12695
507.42        23.23505
507.86        23.37001
508.30        23.50698
508.74        23.63329
509.18        23.74651
509.62         23.8528
510.06        23.96367
510.50        24.08022
510.94        24.20092
511.38          24.297
511.82        24.32401
512.26        24.27843
512.70         24.1756
513.14         24.0761
513.58        24.07058
514.02        24.16976
514.46        24.34848
514.90        24.53835
515.34        24.56618
515.78        24.44541
516.22        24.27862
516.66        24.15588
517.10        23.88317
517.54        23.48656
517.98        24.04062
518.42        23.92747
518.86        24.16588
519.30        24.25603
519.74        24.35796
520.18        24.44829
520.62         24.4688
521.06        24.43094
521.50        24.33219
521.93        24.20014
522.37        24.09091
522.81        24.01991
523.25        23.97836
523.69        23.95159
524.13        23.91396
524.57        23.85728
525.01        23.78849
525.45        23.72044
525.89        23.67107
526.32        23.64325
526.76        23.63388
527.20        23.61799
527.64        23.56144
528.08        23.45732
528.52        23.31117
528.96        23.16488
529.40        23.08152
529.83        23.07051
530.27        23.12111
530.71        23.16643
531.15        23.10227
531.59        22.91536
532.03        22.64382
532.46        22.37755
532.90        22.27469
533.34        22.35525
533.78        22.56082
534.22        22.79614
534.66        22.91505
535.09        22.87657
535.53        22.73692
535.97        22.54541
536.41        22.37761
536.85        22.26455
537.28        22.19374
537.72        22.17433
538.16        22.15322
538.60         22.2331
539.04        22.32068
539.47        22.41383
539.91        22.51509
540.35        22.63025
540.79        22.56458
541.22         22.6315
541.66         22.7062
542.10        22.90038
542.54         22.8326
542.97        23.08759
543.41         23.2103
543.85        23.35754
544.29        23.47968
544.72        23.56466
545.16        23.66117
545.60        23.76761
546.04        23.80159
546.47        23.82636
546.91        24.09173
547.35         24.5343
547.79        24.84104
548.22        24.97853
548.66        25.06491
549.10        25.14733
549.53         25.3881
549.97        25.78257
550.41          25.852
550.84        26.06363
551.28        26.17228
551.72        26.34786
552.15        26.52899
552.59        26.72073
553.03        26.97815
553.46        27.17252
553.90        27.33956
554.34        27.44373
554.77        27.49671
555.21        27.54297
555.65        27.64124
556.08        27.79895
556.52        27.99369
556.96        28.18317
557.39        28.33815
557.83        28.43755
558.27        28.42741
558.70        28.35658
559.14        28.35921
559.57        28.44603
560.01        28.59405
560.45        28.75129
560.88        28.80088
561.32        28.78639
561.75        28.80287
562.19        28.96978
562.63        29.06001
563.06        29.10257
563.50        29.17229
563.93        29.25624
564.37        29.38958
564.80        29.43431
565.24        29.51555
565.68        29.58876
566.11        29.68474
566.55        29.82739
566.98         29.9523
567.42        30.03403
567.85        30.41647
568.29        30.31093
568.72        30.64255
569.16        31.10317
569.60        31.43726
570.03        31.53312
570.47        31.67677
570.90        31.72573
571.34        32.05478
571.77        31.64632
572.21        32.26306
572.64        32.51548
573.08        32.55482
573.51        32.66488
573.95        33.27721
574.38        33.45914
574.82         33.7347
575.25        33.78106
575.69        33.63003
576.12        33.64247
576.56        33.55249
576.99        33.50593
577.42        33.82354
577.86        33.73873
578.29        33.92902
578.73         34.2572
579.16        33.92744
579.60        33.47773
580.03        33.54198
580.47        33.39436
580.90         33.3238
581.33        33.17704
581.77        33.32321
582.20         33.6582
582.64        33.17793
583.07        32.71806
583.51        32.55015
583.94        32.20047
584.37        31.94884
584.81         31.8584
585.24        31.83244
585.68        31.88455
586.11        31.64099
586.54        31.47552
586.98        31.30867
587.41        31.27605
587.85         31.3783
588.28        31.49958
588.71        31.31947
589.15        30.93086
589.58        30.59147
590.01        30.69334
590.45        31.16405
590.88        30.94982
591.31        30.86254
591.75        30.60952
592.18        30.66016
592.61        30.47267
593.05        31.00986
593.48        30.97726
593.91         31.6281
594.35        31.03072
594.78        31.33097
595.21        31.56938
595.65        31.95725
596.08        31.93914
596.51         31.9235
596.94        31.90411
597.38        32.02242
597.81        32.34288
598.24        32.51959
598.68        33.13879
599.11        33.20503
599.54        34.28025
599.97        34.06806
600.41        34.27928
600.84        34.97075
601.27        35.42308
601.70        35.91612
602.14        36.13213
602.57        36.59081
603.00        37.25939
603.43        37.79916
603.87        38.19043
604.30        38.58869
604.73        39.02698
605.16        39.37909
605.60        39.78669
606.03        40.38454
606.46        41.02869
606.89        41.83208
607.32         42.2877
607.76        42.50819
608.19        42.85197
608.62        43.51622
609.05        43.59594
609.48        43.77957
609.92        44.33395
610.35        44.23888
610.78        45.10519
611.21        46.05139
611.64        45.44731
612.07        46.20737
612.50        46.43533
612.94        46.32347
613.37        47.04305
613.80        47.34257
614.23        47.67001
614.66        48.23404
615.09        48.55419
615.52        48.98994
615.96         49.3118
616.39        49.62143
616.82        49.98901
617.25        49.74224
617.68        50.17189
618.11        50.53411
618.54        51.05886
618.97        51.05645
619.40        50.60139
619.84         50.6501
620.27        50.51521
620.70         51.0134
621.13        51.74834
621.56        52.10442
621.99        52.13008
622.42        52.21891
622.85        52.46411
623.28        52.49958
623.71        52.31833
624.14        52.68049
624.57        52.40669
625.00        52.22097
625.43        52.47558
625.86        51.68923
626.29        51.82263
626.72        51.57455
627.15        51.51725
627.58        51.46939
628.01        51.35098
628.44        51.33891
628.87        51.28268
629.30        50.37511
629.73        50.38937
630.16        49.79283
630.59        49.61288
631.02        49.19845
631.45        48.71912
631.88        48.29593
632.31        47.91412
632.74        47.49898
633.17        47.02879
633.60        46.52849
634.03          45.999
634.46        45.43883
634.89        44.86609
635.32        44.30904
635.75        43.78191
636.18         43.2885
636.61        42.82413
637.04        42.37423
637.47        41.93071
637.89        41.49605
638.32        41.07237
638.75        40.68861
639.18        40.35093
639.61        40.05696
640.04        39.77082
640.47        39.43257
640.90        39.03593
641.33        38.60395
641.76        38.19968
642.18        37.92924
642.61          37.809
643.04        37.80667
643.47        37.86359
643.90        37.88054
644.33        37.83157
644.76        37.75481
645.18        37.67764
645.61        37.64743
646.04        37.68343
646.47        37.76305
646.90        37.91205
647.33         38.1755
647.75        38.55273
648.18        39.02696
648.61        39.52309
649.04        39.92699
649.47        40.22731
649.89        40.42629
650.32        40.61594
650.75        41.06969
651.18        41.79142
651.61        42.39806
652.03        42.88601
652.46        43.79388
652.89        45.01258
653.32        45.50401
653.74        45.24435
654.17        46.19315
654.60        46.70862
655.03        47.65003
655.46        47.32998
655.88        49.61645
656.31        50.83106
656.74        59.20045
657.16        55.79102
657.59        51.45802
658.02        51.63255
658.45        52.27061
658.87        53.31927
659.30        54.01094
659.73        54.12783
660.15        54.99508
660.58        55.22721
661.01        55.26932
661.44        54.93342
661.86        55.08461
662.29        55.74207
662.72        56.61706
663.14        57.47261
663.57         57.6079
664.00        57.18932
664.42          57.221
664.85        57.78205
665.27        58.22338
665.70        58.46513
666.13        58.73127
666.55        59.00983
666.98        59.22832
667.41        59.40151
667.83        59.55189
668.26        59.68148
668.69        59.80542
669.11        59.92744
669.54        60.04743
669.96        60.17909
670.39        60.32182
670.82        60.50142
671.24          60.772
671.67        61.12816
672.09         61.4754
672.52        61.76617
672.94        62.06828
673.37        62.29936
673.80         62.1367
674.22        61.71717
674.65        61.55831
675.07        61.73845
675.50        61.99298
675.92        62.24213
676.35         62.4164
676.77        62.48234
677.20        62.47905
677.62        62.45183
678.05        62.45789
678.47        62.50891
678.90        62.65986
679.32        62.77333
679.75        62.93593
680.17        63.08902
680.60        63.30347
681.02        63.54441
681.45         63.5658
681.87        63.44744
682.30        63.60516
682.72        63.97831
683.15        64.07132
683.57        63.92224
684.00        63.82169
684.42        63.92052
684.85        64.25881
685.27        64.29313
685.70        64.59837
686.12        64.91595
686.54        65.09708
686.97        65.10837
687.39        64.98174
687.82        64.80216
688.24        64.79004
688.66        64.94975
689.09        65.08522
689.51        65.17004
689.94        65.27194
690.36        65.39709
690.78        65.44696
691.21        65.43228
691.63        65.56892
692.06         65.8976
692.48        65.85097
692.90         66.0372
693.33        66.52052
693.75        66.34122
694.17        66.43031
694.60        66.45017
695.02        66.36047
695.44        66.16053
695.87        66.10086
696.29        66.19409
696.71        66.00066
697.14        65.71729
697.56        66.10751
697.98        67.25663
698.41        67.63069
698.83        67.52695
699.25        67.26693
699.68        67.08548
700.10        66.98257
700.52        67.03079
700.94        67.19913
701.37        67.38992
701.79        67.59715
702.21        67.77666
702.64        67.62575
703.06        67.75919
703.48        67.79353
703.90        67.91811
704.33        68.08188
704.75        68.23318
705.17         68.2572
705.59        68.12903
706.01        67.88362
706.44        67.64452
706.86        67.62112
707.28        67.84402
707.70        68.23108
708.12        68.65936
708.55        68.93465
708.97        69.00413
709.39         68.9357
709.81        68.78413
710.23         68.6504
710.66        68.58056
711.08        68.54723
711.50        68.55346
711.92        68.62242
712.34        68.75012
712.76        68.94059
713.19        69.12682
713.61        69.24805
714.03        69.26054
714.45        69.19098
714.87        69.10728
715.29         69.1183
715.71        69.24738
716.13        69.45792
716.56        69.68455
716.98        69.89562
717.40        70.03674
717.82        70.12774
718.24        70.17524
718.66        70.19177
719.08        70.18581
719.50        70.14701
719.92        70.09686
720.34        70.07056
720.76        70.07775
721.19        70.11744
721.61        70.17139
722.03        70.16743
722.45        70.11768
722.87        70.02847
723.29        69.96467
723.71        70.02007
724.13        70.21235
724.55        70.51142
724.97        70.85558
725.39        71.10416
725.81        71.21237
726.23        71.28152
726.65        71.37775
727.07        71.22952
727.49        71.46909
727.91        71.57841
728.33        71.70654
728.75        71.78513
729.17         71.8082
729.59        71.79836
730.01        71.77191
730.43        71.78286
730.85        71.84494
731.27        71.89037
731.69        71.93036
732.10         72.1083
732.52        72.35513
732.94        72.40587
733.36        72.26464
733.78        72.19006
734.20        72.21696
734.62        72.16964
735.04        72.04103
735.46        72.07155
735.88        72.11811
736.30        71.93756
736.72        72.12588
737.13        72.23988
737.55        72.39499
737.97        72.76672
738.39        73.21939
738.81         73.0711
739.23        72.46975
739.65        72.53047
740.06        73.13223
740.48         73.2548
740.90        72.84753
741.32        72.51707
741.74        72.38078
742.16        72.33711
742.57        72.42679
742.99        72.64349
743.41        72.91745
743.83        73.11026
744.25        73.17825
744.67        73.14204
745.08        73.04257
745.50        72.90463
745.92        72.77028
746.34        72.62612
746.75        72.49647
747.17         72.4267
747.59        72.43179
748.01        72.51521
748.42         72.6614
748.84        72.83879
749.26        73.04354
749.68         73.1465
750.09        73.17731
750.51        73.46231
750.93         73.8704
751.35        73.77283
751.76        73.25415
752.18        73.00284
752.60        73.06041
753.01        73.07364
753.43        73.01356
753.85        73.04915
754.27        73.17902
754.68        73.36954
755.10        73.56293
755.52        73.67903
755.93        73.70056
756.35        73.64108
756.77        73.54564
757.18        73.59679
757.60        73.87743
758.02        74.06631
758.43        73.98479
758.85        74.63969
759.26        74.68478
759.68        73.81516
760.10        73.89301
760.51        73.80466
760.93        74.22902
761.34        73.45473
761.76        73.58316
762.18        73.46506
762.59        73.04404
763.01        73.24841
763.42        73.83459
763.84        74.25189
764.26        74.37898
764.67        74.28011
765.09        74.13693
765.50        74.24253
765.92         74.5704
766.33        74.79752
766.75        74.76946
767.16        74.38329
767.58        73.74083
768.00        73.47475
768.41        73.70975
768.83        73.87094
769.24        73.94484
769.66        74.60831
770.07        75.54456
770.49        75.43878
770.90        74.51497
771.32        74.45745
771.73        75.24749
772.15        75.47587
772.56        75.13092
772.97        75.06377
773.39        75.21891
773.80        75.12943
774.22         74.7568
774.63        74.25834
775.05        73.81161
775.46        73.71287
775.88        73.99871
776.29        74.61523
776.70        75.27667
777.12        75.53407
777.53        75.29321
777.95        74.65984
778.36        73.94379
778.77        73.66863
779.19        73.95761
779.60        74.68851
780.02         75.5071
780.43        76.02251
780.84        76.11349
781.26        75.52348
781.67        74.65582
782.09        75.10577
782.50        76.51595
782.91        76.52296
783.33        75.24799
783.74        74.86756
784.15        75.44936
784.57         75.8297
784.98        75.84538
785.39        75.58138
785.81         75.1261
786.22          74.915
786.63         74.9679
787.04        74.94363
787.46        74.85704
787.87        74.89218
788.28        75.05053
788.70         75.4177
789.11        75.51559
789.52         75.8493
789.93        76.19347
790.35        76.18732
790.76        75.89719
791.17        75.79501
791.58        75.93035
792.00        75.88334
792.41        75.61066
792.82         75.5878
793.23        75.68578
793.65        74.94242
794.06        73.85554
794.47        74.18716
794.88        75.57703
795.29        76.98387
795.71        76.69938
796.12        76.09676
796.53        76.59113
796.94        75.96513
797.35        75.02258
797.76        74.85414
798.18         75.4218
798.59        75.66766
799.00        75.50201
799.41        75.59183
799.82        75.91202
800.23        76.09123
800.64        76.09569
801.06        75.98547
801.47        75.86427
801.88         75.8458
802.29        75.94994
802.70        76.10282
803.11        76.23256
803.52        76.23235
803.93        76.09868
804.34        75.90701
804.75        75.66869
805.17        75.49973
805.58        75.47597
805.99          75.201
806.40        74.86043
806.81        75.63644
807.22        77.13037
807.63        77.28019
808.04        76.23647
808.45        75.92573
808.86        76.52642
809.27        77.14296
809.68        77.57574
810.09        77.78973
810.50        77.70059
810.91        77.42052
811.32        77.07767
811.73        76.73355
812.14        76.43275
812.55        76.33812
812.96        76.37416
813.37        76.01534
813.78        75.41795
814.19        75.47627
814.60        76.07056
815.01        76.30648
815.42        76.12916
815.83        76.00269
816.24        76.00921
816.65        76.06576
817.05        76.19979
817.46        76.38836
817.87        76.56707
818.28        76.58894
818.69        76.44229
819.10        76.17533
819.51        75.90983
819.92        75.90902
820.33        76.23854
820.74        76.67478
821.14        77.13227
821.55        77.74287
821.96          78.313
822.37        78.21162
822.78        77.56012
823.19         77.1805
823.60        77.17153
824.00         77.1115
824.41        76.93523
824.82        76.84666
825.23        76.84727
825.64        76.91467
826.04        77.01704
826.45         77.0432
826.86         76.9842
827.27        76.86308
827.68        76.74231
828.08        76.75659
828.49        76.87844
828.90        77.09557
829.31         77.3336
829.72         77.4639
830.12        77.46307
830.53        77.33444
830.94        77.14459
831.35        76.96357
831.75        76.84522
832.16        76.73639
832.57        76.66116
832.97        76.63657
833.38        76.64211
833.79        76.67242
834.20        76.73219
834.60        76.81548
835.01        76.92754
835.42        77.07291
835.82        77.18301
836.23        77.09406
836.64        76.80523
837.04        76.35179
837.45        75.90659
837.86        75.79507
838.26        76.09911
838.67        76.71309
839.08        77.37884
839.48        77.60166
839.89        77.26579
840.29        76.55974
840.70        75.86274
841.11        75.65998
841.51          76.069
841.92        76.86111
842.33        77.85309
842.73        78.72758
843.14        79.23782
843.54        79.54331
843.95         79.5374
844.35        79.14247
844.76        78.42027
845.17         77.4346
845.57        76.47717
845.98        76.01969
846.38        76.15582
846.79        76.76786
847.19        77.66249
847.60        78.31303
848.00        78.59888
848.41        78.59005
848.81        78.46848
849.22        78.44618
849.62        78.63144
850.03        78.87679
850.43        79.15816
850.84        79.33769
851.24        79.42121
851.65        79.40808
852.05        79.34425
852.46        79.17295
852.86        78.92209
853.27        78.63799
853.67        78.34003
854.07        78.19449
854.48        78.19181
854.88         78.3155
855.29        78.44781
855.69        78.53493
856.10        78.45624
856.50        78.32951
856.90        78.13509
857.31        77.88529
857.71        77.69088
858.12        77.49066
858.52        77.38266
858.92        77.40622
859.33        77.54369
859.73        77.81835
860.13        78.16037
860.54        78.44041
860.94        78.65477
861.34        78.76684
861.75        78.72233
862.15        78.55269
862.55        78.24832
862.96        77.86313
863.36         77.4654
863.76        77.13711
864.17        76.91904
864.57        76.80881
864.97        76.88454
865.38          77.241
865.78        77.90532
866.18        78.76073
866.58        79.52905
866.99        79.72329
867.39        79.26584
867.79         78.2794
868.19         76.9791
868.60        75.69848
869.00        74.56001
869.40        73.54878
869.80        72.85352
870.21        72.75348
870.61        73.31782
871.01        74.40462
871.41         75.6144
871.81        76.29329
872.22        76.30246
872.62        75.83652
873.02        75.11745
873.42        74.71592
873.82        74.62141
874.22        74.23351
874.63        73.80063
875.03         73.9221
875.43        74.63675
875.83        76.57694
876.23        77.06138
876.63        76.85719
877.03        75.46083
877.44        72.97742
877.84        125.7678
878.24        71.99274
878.64        73.24752
879.04        76.92862
879.44        74.61974
879.84        73.34805
880.24        76.85748
880.64        76.84216
881.04        74.18797
881.44        72.42598
881.84        72.17407
882.24        72.84828
882.65        73.92033
883.05        74.39256
883.45        73.92234
883.85        73.10715
884.25        72.41189
884.65        72.27621
885.05        72.81307
885.45        73.83145
885.85         74.9194
886.25         75.4146
886.65        75.14541
887.05        74.34709
887.45        73.40826
887.85        72.90425
888.25        72.99203
888.65        73.50094
889.04        74.23111
889.44        74.75254
889.84        74.94336
890.24        74.91052
890.64        74.76888
891.04         74.6908
891.44        74.70065
891.84        74.69279
892.24        74.57751
892.64        74.22883
893.04        73.66227
893.44        73.03013
893.83        72.36862
894.23        71.73967
894.63        71.16862
895.03        70.62778
895.43        70.31763
895.83         70.5727
896.23        71.40453
896.63        72.68499
897.02         73.9815
897.42        74.49895
897.82         74.0711
898.22        72.95892
898.62        71.61066
899.01        70.72205
899.41        70.52076
899.81        70.76649
900.21        71.32132
900.61        71.97497
901.00        72.60577
901.40        73.25861
901.80          73.807
902.20        74.01081
902.59        73.83773
902.99        73.33199
903.39        72.65253
903.79        72.09111
904.18        71.75137
904.58        71.61118
904.98        71.67813
905.38        71.95718
905.77        72.40579
906.17        73.02804
906.57         73.6489
906.96        74.01759
907.36        74.02777
907.76        73.70755
908.15        73.26119
908.55        72.98248
908.95        72.96737
909.34        73.18612
909.74        73.36395
910.14        73.02299
910.53         72.0906
910.93        70.80753
911.33        69.68906
911.72        69.53957
912.12        70.45384
912.52         72.0798
912.91         73.8391
913.31        74.76898
913.70        74.67959
914.10          73.821
914.49        72.49738
914.89        71.41587
915.29          70.883
915.68        70.71992
916.08        70.86126
916.47        71.18121
916.87        71.57978
917.26        72.10219
917.66        72.63705
918.05        73.02374
918.45        73.18541
918.84        73.17439
919.24        72.95522
919.64        72.51003
920.03        71.88789
920.42        71.13246
920.82        70.52707
921.21        70.45361
921.61         70.9216
922.00          71.859
922.40        72.83223
922.79        73.36793
923.19        73.31615
923.58        72.61912
923.98        71.47801
924.37        70.90017
924.77        71.29862
925.16         69.4175
925.55         70.7332
925.95        70.59618
926.34        70.64804
926.74          70.749
927.13        71.05281
927.52        71.60066
927.92        72.33301
928.31        73.27973
928.70        74.14902
929.10        74.46615
929.49        74.12265
929.89        73.24828
930.28          72.271
930.67        71.88232
931.07        72.22342
931.46         73.1459
931.85        74.20531
932.24        74.74188
932.64        74.57243
933.03        73.79015
933.42        72.73486
933.82        72.11046
934.21        72.09898
934.60        72.52062
934.99        72.76341
935.39        72.21667
935.78        70.82073
936.17        68.26138
936.56        64.98391
936.96        65.68726
937.35        65.48776
937.74        68.04348
938.13        70.70485
938.53        72.44901
938.92        73.13913
939.31        73.13606
939.70        72.70626
940.09        72.22815
940.49        71.92696
940.88        71.69655
941.27        71.61234
941.66        71.83719
942.05        72.35309
942.44        73.11211
942.84        73.97174
943.23        74.67071
943.62         75.0818
944.01         75.2924
944.40        75.19706
944.79        74.64951
945.18        73.67155
945.57        72.27522
945.97        70.93416
946.36        70.45877
946.75        71.08386
947.14        72.52401
947.53        74.08274
947.92        74.79145
948.31          74.475
948.70        73.42043
949.09         72.0798
949.48        71.25552
949.87        71.20776
950.26        71.68552
950.65         72.3838
951.04        72.80456
951.43         72.7796
951.82        72.48481
952.21        72.08012
952.60        71.79252
952.99        71.70138
953.38        71.72156
953.77        71.77194
954.16        71.74845
954.55        71.62453
954.94        71.44498
955.33        71.30139
955.72        71.32529
956.11        71.55135
956.50        71.94764
956.89        72.36797
957.28        72.55183
957.66        72.42864
958.05        72.00156
958.44        71.49757
958.83        71.20787
959.22        71.17842
959.61        71.36491
960.00        71.48573
960.39        71.05633
960.78        70.00967
961.16        68.50355
961.55        67.11485
961.94        66.58498
962.33        67.05718
962.72        68.32152
963.11        69.79397
963.49        70.48428
963.88        70.02557
964.27        68.72385
964.66        67.19144
965.04        66.44491
965.43        66.74969
965.82        67.82727
966.21         69.1236
966.60        69.73582
966.98        69.45939
967.37         68.5787
967.76        67.65817
968.15        67.56699
968.53        68.49986
968.92        70.03184
969.31        71.66051
969.69        72.57519
970.08        72.47201
970.47        71.67091
970.86         70.3985
971.24        68.98395
971.63        67.67748
972.02        66.42105
972.40        65.41182
972.79        65.00893
973.17        65.29934
973.56        66.12575
973.95        67.28755
974.33        68.36066
974.72        69.02765
975.11        69.35855
975.49        69.25814
975.88        68.61027
976.26        67.49293
976.65        66.02699
977.04        64.48877
977.42        63.38006
977.81        62.89132
978.19        62.88596
978.58        63.37865
978.96        64.36584
979.35        65.66813
979.74        67.35294
980.12        68.92662
980.51        69.27399
980.89        68.34058
981.28        66.43083
981.66        64.47214
982.05        63.78221
982.43         64.5414
982.82        66.31908
983.20        68.51184
983.59        69.70387
983.97        69.53808
984.35        68.37262
984.74        66.76107
985.12        65.47306
985.51        64.75961
985.89        64.31775
986.28        64.10232
986.66        64.15961
987.04        64.37462
987.43        64.87174
987.81        65.20309
988.20        64.74147
988.58        63.31818
988.96        60.82657
989.35        57.87311
989.73        56.46967
990.12        57.54084
990.50        60.45758
990.88        63.54108
991.27         64.9304
991.65        64.56548
992.03        62.94951
992.42         61.0291
992.80        60.62275
993.18         62.2869
993.56         65.1807
993.95        68.24072
994.33        70.44534
994.71        71.36817
995.10        71.36534
995.48        70.79882
995.86        70.10382
996.24        69.47063
996.63        68.82207
997.01        67.92563
997.39        66.52768
997.77        64.78273
998.15        62.98912
998.54        61.78035
998.92        61.74882
999.30        62.95129
999.68        65.52139
1000.06        68.64631
1000.45        69.41486
1000.83        66.80174
1001.21        62.25317
1001.59        58.09924
1001.97        56.16092
1002.35        56.30692
1002.73        57.93154
1003.12         60.3597
1003.50        62.03784
1003.88        62.03599
1004.26        60.90791
1004.64        59.15585
1005.02        57.43671
1005.40        56.01491
1005.78        54.60326
1006.16        53.59754
1006.54        53.86636
1006.92        55.33192
1007.30         57.4279
1007.69          59.343
1008.07         60.4539
1008.45         60.6273
1008.83        60.01578
1009.21        58.28385
1009.59        55.26459
1009.97        51.48268
1010.35        47.41756
1010.73        44.79768
1011.11        45.11345
1011.49        47.96806
1011.86        52.87507
1012.24        57.29027
1012.62        58.88374
1013.00        57.51394
1013.38        54.04813
1013.76        49.89926
1014.14         47.6002
1014.52        47.92891
1014.90        50.13267
1015.28        53.04274
1015.66        54.70485
1016.04        54.44122
1016.41        52.76015
1016.79        50.26231
1017.17        48.57016
1017.55        48.42649
1017.93        49.07343
1018.31        49.92864
1018.69        50.53242
1019.06        50.73265
1019.44        50.51995
1019.82        49.71971
1020.20        47.91926
1020.58        45.19421
1020.95        41.94999
1021.33        38.27219
1021.71        33.18306
1022.09        25.43618
1022.46        11.55244
1022.84       -7.864744
1023.22       -11.51364
1023.60        9.930356
1023.97        32.74582
1024.35        45.53633
1024.73        50.22831
