SpectraSmart Spectrum 2.9.0.0
--------- Device Information -----------
Spectrum Name :  反射率_0
Saving Time :  2024/04/20 00:50:51
Spectro-Module Model Name : SE2030-DUVN
Spectro-Module Serial Number : OS361AC55029948
Wavelength Start : 200
Wavelength End : 1025
Wavelength Unit : Wavelength(nm)
Spectrum Unit : Reflectance(%)
-----------Spectrum Setting ------------
Integration Time : 30ms
Average : 10
Boxcar : 0
Background removal :  enabled
linearity correction :  enabled
SC :  disabled
Intensity correction :  disabled
DWT denoise :  enabled
savitzky-golay :  disabled
FFT :  disabled
Running average :  disabled
Kalman :  disabled
High pass :  disabled
---------------BEGIN--------------------
Wavelength(nm)             Reflectance(%)
200.29               0
200.75        76.49894
201.21        74.23912
201.67        73.01483
202.13         76.7701
202.58        87.51315
203.04        105.2482
203.50        123.8868
203.96        128.3462
204.42        117.6195
204.88        101.2443
205.34        87.47881
205.80        80.38197
206.26        78.83064
206.72        81.34776
207.18        88.09188
207.64        95.73042
208.10        99.31069
208.55        99.63591
209.01        97.37182
209.47        94.51705
209.93        91.76921
210.39        88.50835
210.85        85.49701
211.31        83.73342
211.77        83.11607
212.23        83.52253
212.69        84.47887
213.14        84.39773
213.60        82.61789
214.06        80.91239
214.52        79.83591
214.98        79.59113
215.44        80.01086
215.90        80.62122
216.36        81.96922
216.81        84.95547
217.27        89.18072
217.73        94.28436
218.19        98.16531
218.65        98.09552
219.11        93.82961
219.57        85.71152
220.02        76.44988
220.48        73.14274
220.94        78.18304
221.40        89.96898
221.86        103.8097
222.32        112.5293
222.77          114.28
223.23        111.5103
223.69        107.1182
224.15        105.2618
224.61        106.6283
225.06        109.3293
225.52        112.2661
225.98        114.4277
226.44        115.8152
226.90        116.8725
227.36        118.0707
227.81        119.7754
228.27        122.0314
228.73        124.2482
229.19        125.5561
229.65        125.0407
230.10        122.8684
230.56        120.0365
231.02        117.3492
231.48        115.9457
231.93        115.7939
232.39         116.462
232.85        117.4192
233.31        117.9689
233.77        117.8784
234.22         117.474
234.68        116.5678
235.14        114.8034
235.60        112.3167
236.05         109.233
236.51        106.3975
236.97        105.0777
237.43        105.5444
237.88        108.0067
238.34        111.2941
238.80        112.7952
239.26        110.7064
239.71         105.645
240.17         99.0405
240.63        93.56738
241.08        90.03662
241.54        87.88766
242.00         86.4329
242.46        84.13408
242.91        80.18323
243.37         73.8421
243.83        65.98255
244.28        62.87322
244.74         69.5866
245.20         83.6446
245.66        96.16798
246.11        100.5543
246.57        96.23344
247.03        83.32758
247.48        63.35391
247.94        51.98372
248.40        55.25394
248.85        63.24635
249.31        70.06168
249.77        73.80931
250.22        75.23278
250.68        75.68534
251.14         75.5795
251.59         75.3393
252.05        75.44098
252.51         75.7796
252.96        76.14455
253.42        76.56536
253.88        77.24515
254.33        78.32213
254.79        80.90388
255.25        85.77627
255.70        92.38636
256.16        99.69272
256.62        106.4174
257.07        111.1975
257.53        114.1349
257.99        115.6182
258.44        115.1519
258.90        113.2808
259.35        110.3146
259.81        107.8777
260.27        106.0962
260.72        105.1077
261.18        105.1789
261.63        105.3566
262.09        106.0891
262.55        107.1783
263.00        108.1782
263.46        109.2876
263.91        109.4997
264.37        108.2918
264.83        105.7053
265.28         102.111
265.74        98.75491
266.19        96.64185
266.65        96.10928
267.11        96.54996
267.56        97.27923
268.02        97.41778
268.47        96.69706
268.93         95.4496
269.38        93.91938
269.84        92.71058
270.30        91.96439
270.75        91.45366
271.21         90.9887
271.66        90.24482
272.12        89.15965
272.57        87.82952
273.03        86.43388
273.48        85.09548
273.94        83.96809
274.39         82.9445
274.85        82.03635
275.31        81.11427
275.76        80.09416
276.22         79.0508
276.67        77.98305
277.13        77.11314
277.58        76.34663
278.04        75.71564
278.49        74.92523
278.95        73.76048
279.40        72.13582
279.86        70.32302
280.31        68.50941
280.77        67.22045
281.22        66.41306
281.68        65.99686
282.13         65.6864
282.59        65.19427
283.04        64.39458
283.50        63.45514
283.95        62.42879
284.41        61.51237
284.86        60.69294
285.32        59.96321
285.77        59.25977
286.22        58.61145
286.68         58.0365
287.13        57.50153
287.59        57.01888
288.04        56.48915
288.50        55.93524
288.95        55.31474
289.41        54.70646
289.86        54.13062
290.32        53.65612
290.77        53.24975
291.22        52.89931
291.68        52.55035
292.13        52.18379
292.59        51.85452
293.04        51.62302
293.50        51.62769
293.95        51.86457
294.40        52.28036
294.86        52.77831
295.31        53.20929
295.77        53.53498
296.22        53.79822
296.68         54.0318
297.13        54.27636
297.58        54.55911
298.04        54.86443
298.49        55.21473
298.95        55.70261
299.40        56.29769
299.85        56.96159
300.31        57.60166
300.76        58.04521
301.21        58.27208
301.67        58.38491
302.12        58.39832
302.58        58.43847
303.03        58.51094
303.48        58.61915
303.94        58.85305
304.39        59.28751
304.84        59.92717
305.30        60.72302
305.75        61.49041
306.20        61.99014
306.66        62.19283
307.11        62.13749
307.57         61.9762
308.02        61.83892
308.47        61.80597
308.93        61.83429
309.38        61.88597
309.83        61.97857
310.29        62.09743
310.74         62.2425
311.19        62.34298
311.65        62.27177
312.10        62.00282
312.55        61.57718
313.00        61.12302
313.46        60.83882
313.91        60.74934
314.36         60.8161
314.82        60.91575
315.27        60.87856
315.72        60.64687
316.18        60.29424
316.63        59.90578
317.08        59.63564
317.53        59.51468
317.99        59.47753
318.44        59.45415
318.89        59.31782
319.35        59.03379
319.80        58.65061
320.25         58.2203
320.70        57.82676
321.16         57.4922
321.61        57.20169
322.06        56.92885
322.51        56.63905
322.97        56.31047
323.42        55.96706
323.87        55.61469
324.32        55.26948
324.78         54.9257
325.23        54.59922
325.68        54.25523
326.13         53.8527
326.59        53.38693
327.04        52.90223
327.49        52.45173
327.94         52.1297
328.39        51.95245
328.85        51.86514
329.30        51.85238
329.75        51.79715
330.20        51.65882
330.66        51.44107
331.11        51.18897
331.56        50.90624
332.01        50.60523
332.46        50.28198
332.92        49.94149
333.37        49.63397
333.82         49.3696
334.27        49.16074
334.72        49.01255
335.17        48.92684
335.63        48.88163
336.08        48.88317
336.53        48.91475
336.98        48.97443
337.43        49.04885
337.88        49.13983
338.34        49.15326
338.79        48.99287
339.24        48.62994
339.69        48.09142
340.14        47.56012
340.59         47.3424
341.05        47.49015
341.50        47.92274
341.95        48.39451
342.40         48.5199
342.85        48.22486
343.30        47.64391
343.75        46.99707
344.20        46.64701
344.66        46.68463
345.11        46.95826
345.56        47.34202
346.01        47.63223
346.46        47.74756
346.91        47.76979
347.36        47.66106
347.81         47.3521
348.26        46.87205
348.72        46.26249
349.17        45.67727
349.62        45.45009
350.07        45.64105
350.52        46.13306
350.97        46.71784
351.42        47.07587
351.87        47.11502
352.32        46.92238
352.77        46.56528
353.22        46.15997
353.67        45.76791
354.13        45.37696
354.58        44.99776
355.03        44.69915
355.48        44.49723
355.93        44.39658
356.38        44.36988
356.83        44.35725
357.28         44.3306
357.73        44.28519
358.18        44.21619
358.63        44.12625
359.08        44.01056
359.53        43.86098
359.98        43.65953
360.43        43.38096
360.88         43.0307
361.33        42.63084
361.78        42.22789
362.23         41.8964
362.68        41.65829
363.13        41.49059
363.58        41.36248
364.03        41.22223
364.48        41.04255
364.93        40.82639
365.38        40.56209
365.83        40.23882
366.28        39.86246
366.73        39.44171
367.18        39.00038
367.63        38.57443
368.08        38.18427
368.53        37.83932
368.98        37.54101
369.43        37.28057
369.88        37.05404
370.33        36.86082
370.78        36.70736
371.23        36.60667
371.68         36.5525
372.13        36.52522
372.58        36.49472
373.03        36.41875
373.48        36.28074
373.93        36.08826
374.38        35.84972
374.83        35.57708
375.28        35.27981
375.72         34.9538
376.17         34.6359
376.62        34.34295
377.07        34.09153
377.52        33.88432
377.97        33.72981
378.42        33.63611
378.87        33.59287
379.32        33.58436
379.77        33.58268
380.22        33.54634
380.67        33.46262
381.11        33.34682
381.56        33.18603
382.01        32.98852
382.46        32.76549
382.91        32.51482
383.36        32.28026
383.81         32.1248
384.26        32.05587
384.71        32.06384
385.15        32.06929
385.60        31.96162
386.05        31.71791
386.50        31.37134
386.95        31.02751
387.40        30.85419
387.85        30.88166
388.29        31.04496
388.74        31.23046
389.19        31.24634
389.64        31.05445
390.09        30.70004
390.54        30.31085
390.98        30.08112
391.43        30.07628
391.88        30.21926
392.33        30.35572
392.78        30.26423
393.23        29.92822
393.67        29.42335
394.12        28.96139
394.57        28.73576
395.02        28.78204
395.47        29.02648
395.91        29.34379
396.36        29.48145
396.81        29.37957
397.26         29.1105
397.71        28.79983
398.15        28.61257
398.60         28.6185
399.05        28.73866
399.50        28.87439
399.95        28.88804
400.39         28.7507
400.84        28.50314
401.29        28.23754
401.74        28.11862
402.18        28.19514
402.63        28.40256
403.08        28.62058
403.53        28.65726
403.97        28.47263
404.42        28.14264
404.87        27.78992
405.32        27.61561
405.76         27.6651
406.21        27.87208
406.66         28.1252
407.11        28.25071
407.55        28.20499
408.00        28.04712
408.45        27.84709
408.90        27.65549
409.34        27.53544
409.79        27.59318
410.24        27.73671
410.68        27.70908
411.13        27.49393
411.58        27.22506
412.03        26.96657
412.47        26.79049
412.92        26.72697
413.37        26.74756
413.81        26.84262
414.26        27.01473
414.71        27.23702
415.15        27.51189
415.60        27.74438
416.05        27.81308
416.49        27.69042
416.94         27.4122
417.39        27.07623
417.83        26.84582
418.28        26.77403
418.73        26.81155
419.17        26.89657
419.62        26.92175
420.07         26.8609
420.51        26.75244
420.96        26.63495
421.41        26.53736
421.85        26.46572
422.30        26.42421
422.74        26.40639
423.19        26.44717
423.64         26.5349
424.08        26.67196
424.53        26.80532
424.98        26.88246
425.42        26.89009
425.87        26.84189
426.31        26.75532
426.76        26.66803
427.21        26.58243
427.65        26.48153
428.10        26.40004
428.54        26.37655
428.99        26.42599
429.44        26.61617
429.88        26.81707
430.33          26.733
430.77        26.40421
431.22        26.17048
431.66        26.11249
432.11        26.19827
432.56         26.3947
433.00        26.72206
433.45        26.93727
433.89         26.7348
434.34        26.30902
434.78        25.94919
435.23        25.61682
435.67        26.77563
436.12        26.04176
436.57        25.91413
437.01        25.53113
437.46        25.41186
437.90        25.58916
438.35        25.82185
438.79        26.00821
439.24        26.11239
439.68        26.10608
440.13        25.79388
440.57        25.37436
441.02        25.57492
441.46        26.17101
441.91        26.33077
442.35        25.40562
442.80        25.12002
443.24         25.2173
443.69        25.15602
444.13        24.92741
444.58        24.79495
445.02        24.78193
445.47        24.87786
445.91        25.02212
446.36        25.05792
446.80        24.95554
447.24        24.79767
447.69        24.63862
448.13        24.51072
448.58        24.44166
449.02        24.41188
449.47        24.40948
449.91        24.40623
450.36        24.39899
450.80        24.39419
451.25        24.39688
451.69        24.38894
452.13        24.37627
452.58        24.35338
453.02        24.33587
453.47        24.35772
453.91        24.42128
454.36        24.51292
454.80        24.59463
455.24          24.599
455.69        24.52225
456.13         24.3644
456.58        24.19381
457.02        24.09776
457.46        24.09023
457.91        24.08974
458.35        24.07172
458.79        24.06604
459.24        24.05777
459.68        24.04992
460.13        24.10105
460.57        24.07486
461.01        23.94585
461.46        24.37604
461.90        24.42564
462.34        24.14283
462.79        24.33693
463.23        24.18493
463.68        24.06694
464.12        23.96729
464.56        24.08562
465.01        24.24951
465.45        24.39853
465.89        24.46712
466.34        24.44772
466.78        24.29339
467.22        24.09111
467.67        24.11906
468.11        24.34317
468.55        24.35973
468.99         24.1761
469.44        24.12831
469.88        24.22401
470.32        24.26776
470.77        24.24289
471.21        24.22251
471.65        24.20862
472.10        24.17791
472.54        24.14673
472.98        24.18815
473.42        24.30322
473.87        24.40232
474.31        24.46001
474.75        24.59053
475.20        24.73644
475.64        24.63961
476.08        24.39234
476.52        24.34933
476.97        24.52946
477.41        24.78371
477.85        25.02276
478.29        25.12946
478.74        25.06836
479.18        25.00093
479.62        24.74435
480.06        24.73339
480.50        24.88383
480.95        25.03485
481.39        25.12153
481.83        25.16715
482.27        25.15986
482.72        25.08932
483.16        25.01614
483.60        25.00104
484.04        25.03058
484.48        25.27816
484.93        25.75992
485.37        25.71288
485.81        25.45828
486.25        26.44482
486.69        27.25088
487.14        26.73161
487.58        25.96007
488.02           26.87
488.46         26.5316
488.90        26.78341
489.34        26.53411
489.79        26.61378
490.23        26.96521
490.67        27.19069
491.11        27.27497
491.55        27.26064
491.99        27.19273
492.43        27.19416
492.88        27.28816
493.32         27.3784
493.76        27.47635
494.20         27.6383
494.64        27.86283
495.08        28.16778
495.52        28.48893
495.96        28.65502
496.41        28.69682
496.85        28.78694
497.29        28.95749
497.73        29.21575
498.17        29.52039
498.61        29.67515
499.05        29.68736
499.49        29.81202
499.93        30.06386
500.37        30.20655
500.82         30.2689
501.26        30.54072
501.70        30.95338
502.14        31.07797
502.58        30.94021
503.02         30.9354
503.46        31.08558
503.90        31.17638
504.34         31.1852
504.78        31.18078
505.22        31.16548
505.66        31.12574
506.10        31.10168
506.54          31.153
506.98        31.29064
507.42         31.5039
507.86        31.73551
508.30        31.88901
508.74        31.94085
509.18        31.91286
509.62        31.87159
510.06        31.92524
510.50        32.09722
510.94        32.35577
511.38        32.61869
511.82        32.75233
512.26        32.72639
512.70        32.58358
513.14         32.4172
513.58        32.36921
514.02        32.46618
514.46         32.6656
514.90        32.88702
515.34        32.92972
515.78        32.82502
516.22        32.65987
516.66        32.52771
517.10        32.26074
517.54        31.88574
517.98        32.35054
518.42        32.23104
518.86        32.46301
519.30        32.60133
519.74        32.78137
520.18        32.93803
520.62        32.94907
521.06         32.8145
521.50        32.55512
521.93        32.25775
522.37        32.07415
522.81        32.04216
523.25        32.12323
523.69        32.24541
524.13        32.29278
524.57        32.23509
525.01        32.10815
525.45        31.96491
525.89        31.88789
526.32        31.89527
526.76        31.95658
527.20        32.02057
527.64        32.01421
528.08        31.91823
528.52        31.75585
528.96        31.57345
529.40        31.43851
529.83        31.36697
530.27        31.34832
530.71        31.33456
531.15        31.25413
531.59        31.09809
532.03        30.89539
532.46        30.70536
532.90        30.63988
533.34        30.70646
533.78        30.85983
534.22        31.03069
534.66        31.11375
535.09        31.07796
535.53        30.97064
535.97        30.81972
536.41        30.66693
536.85        30.53517
537.28        30.42552
537.72        30.37253
538.16         30.3378
538.60        30.46945
539.04        30.62544
539.47        30.77944
539.91        30.90293
540.35        30.99972
540.79        30.81914
541.22        30.81739
541.66        30.86581
542.10        31.12525
542.54         31.0619
542.97        31.45055
543.41         31.6385
543.85        31.82868
544.29        31.96317
544.72          32.031
545.16        32.10719
545.60        32.19309
546.04        32.17284
546.47        32.13865
546.91         32.4375
547.35        32.98726
547.79        33.36905
548.22        33.52832
548.66        33.60786
549.10        33.66747
549.53        33.92825
549.97        34.39746
550.41        34.46504
550.84        34.76086
551.28         34.9411
551.72        35.20577
552.15        35.44731
552.59        35.66758
553.03        35.88398
553.46        36.06755
553.90        36.21334
554.34        36.31746
554.77        36.38434
555.21        36.45126
555.65        36.56108
556.08        36.71678
556.52        36.90039
556.96        37.08477
557.39         37.2728
557.83        37.44284
558.27        37.50829
558.70        37.49439
559.14        37.52076
559.57        37.58655
560.01        37.67833
560.45        37.76709
560.88        37.74956
561.32        37.69452
561.75        37.74599
562.19        38.02184
562.63        38.08764
563.06        38.01009
563.50        38.07965
563.93        38.27651
564.37        38.49418
564.80        38.54627
565.24        38.68068
565.68        38.83189
566.11        38.98992
566.55        39.17879
566.98        39.32604
567.42          39.394
567.85        39.82386
568.29        39.58776
568.72         39.9163
569.16        40.43252
569.60        40.76113
570.03        40.85282
570.47        41.02813
570.90        41.10224
571.34        41.38704
571.77        41.43782
572.21        41.72914
572.64        41.76571
573.08        42.45353
573.51        42.36752
573.95        42.83365
574.38        43.44082
574.82        43.66597
575.25        43.68011
575.69        43.41981
576.12        43.34197
576.56        43.22516
576.99        43.16936
577.42        43.55156
577.86        43.73265
578.29        43.30775
578.73         44.4029
579.16         43.9006
579.60        43.14098
580.03        43.06935
580.47        43.29345
580.90        42.91911
581.33        42.53296
581.77        42.83356
582.20        43.76038
582.64        43.05694
583.07        42.52027
583.51        42.43795
583.94        41.83572
584.37        41.85425
584.81        41.23149
585.24        41.32745
585.68        41.43698
586.11        41.27522
586.54        41.20946
586.98        40.71803
587.41        40.82027
587.85        40.83207
588.28        40.91212
588.71        40.82586
589.15        40.62455
589.58        39.98301
590.01        40.07199
590.45        40.35271
590.88         40.1742
591.31        40.50994
591.75        39.87566
592.18        40.08002
592.61        39.87797
593.05        40.36714
593.48        40.16322
593.91        41.18961
594.35        40.59809
594.78        40.74342
595.21        41.00437
595.65         41.5372
596.08        41.58453
596.51        41.59199
596.94        41.48891
597.38        41.51781
597.81        41.77039
598.24        42.09981
598.68        42.92628
599.11        43.00497
599.54        44.13363
599.97        44.13366
600.41        44.31466
600.84        44.75057
601.27        45.51025
601.70        46.01226
602.14        46.19868
602.57        46.55832
603.00        47.08598
603.43        47.79609
603.87        47.87664
604.30        48.55085
604.73        49.53885
605.16        49.58408
605.60        49.96878
606.03        50.44106
606.46        51.24146
606.89        51.89301
607.32        52.53992
607.76        52.39933
608.19        53.16419
608.62        53.62815
609.05        53.90307
609.48        54.01643
609.92        54.46233
610.35        54.45874
610.78        55.69063
611.21        56.36368
611.64        56.10165
612.07        56.64198
612.50        57.03756
612.94         56.8824
613.37        57.55383
613.80        57.82786
614.23        58.15054
614.66        58.61155
615.09        59.01471
615.52        59.52562
615.96        59.92346
616.39        60.28002
616.82         60.6888
617.25        60.06821
617.68        60.39967
618.11        60.98645
618.54        61.37666
618.97        61.53099
619.40         61.3126
619.84        60.86691
620.27        61.12324
620.70        61.53413
621.13        62.19974
621.56        62.43483
621.99         62.3657
622.42        62.46533
622.85        62.80748
623.28        62.95245
623.71        62.83582
624.14        63.16635
624.57        62.86775
625.00        62.58356
625.43        62.88282
625.86        62.38175
626.29        62.49105
626.72        62.22424
627.15        61.97864
627.58        61.83532
628.01          61.779
628.44        61.63655
628.87        61.37532
629.30        61.13042
629.73        60.89276
630.16        60.46729
630.59         60.0881
631.02        59.58275
631.45        59.05794
631.88        58.56779
632.31        58.12649
632.74        57.71431
633.17        57.29154
633.60         56.7984
634.03        56.22288
634.46        55.59209
634.89        54.94363
635.32        54.33509
635.75        53.78931
636.18        53.29564
636.61        52.83902
637.04         52.3917
637.47        51.93965
637.89        51.49199
638.32        51.04599
638.75        50.62961
639.18        50.25117
639.61        49.90948
640.04         49.5781
640.47        49.21256
640.90        48.81011
641.33         48.3906
641.76        48.00889
642.18        47.75702
642.61        47.64581
643.04         47.6486
643.47        47.71116
643.90        47.74196
644.33        47.71639
644.76        47.66685
645.18        47.62141
645.61        47.62596
646.04        47.69952
646.47        47.82285
646.90         48.0088
647.33         48.2811
647.75        48.63325
648.18        49.05153
648.61        49.49211
649.04        49.86942
649.47        50.17701
649.89          50.472
650.32        50.79672
650.75        51.19741
651.18        51.74329
651.61        52.39455
652.03        53.11987
652.46        54.18869
652.89        55.44363
653.32        55.82087
653.74        55.46752
654.17        56.53051
654.60        56.97543
655.03        58.34465
655.46        57.63528
655.88        60.06763
656.31        61.38918
656.74        71.14322
657.16         67.1495
657.59         61.9671
658.02        62.36525
658.45        62.70664
658.87        63.66851
659.30          64.106
659.73        65.05705
660.15        65.52427
660.58        65.57351
661.01        65.31666
661.44          64.964
661.86        65.21539
662.29        66.02102
662.72        66.93349
663.14        67.69111
663.57        67.76664
664.00        67.35867
664.42        67.40356
664.85        67.98895
665.27        68.48978
665.70        68.81651
666.13        69.16348
666.55        69.51244
666.98        69.80247
667.41        70.02739
667.83        70.16709
668.26        70.19975
668.69         70.1907
669.11        70.22298
669.54        70.24384
669.96          70.247
670.39        70.91908
670.82        71.10464
671.24        71.34043
671.67        71.37125
672.09        71.62378
672.52        72.05747
672.94        72.43993
673.37        72.66045
673.80        72.43567
674.22        71.93558
674.65        71.77302
675.07        72.03503
675.50        72.37171
675.92        72.67368
676.35        72.87221
676.77        72.92881
677.20        72.87003
677.62        72.77383
678.05        72.77604
678.47        72.90434
678.90        73.11787
679.32        73.37572
679.75        73.60609
680.17        73.77958
680.60        73.95897
681.02        74.14197
681.45        74.20178
681.87        74.20622
682.30        74.37991
682.72        74.67562
683.15        74.84623
683.57        74.89832
684.00        74.80988
684.42        74.70212
684.85        75.13011
685.27        75.13113
685.70        75.48829
686.12        75.81221
686.54        76.01102
686.97        76.04729
687.39        75.95798
687.82        75.82004
688.24        75.81374
688.66        75.95208
689.09        76.08159
689.51        76.18813
689.94        76.34045
690.36        76.53432
690.78        76.61495
691.21        76.59398
691.63        76.76087
692.06         77.1579
692.48        77.10139
692.90        77.29903
693.33        77.79566
693.75        77.48666
694.17        77.56823
694.60        77.63736
695.02        77.49563
695.44        77.17243
695.87        77.16311
696.29        77.43416
696.71        77.32295
697.14         77.0503
697.56        77.51723
697.98        78.44122
698.41        79.49017
698.83        78.98764
699.25        78.68909
699.68        78.56913
700.10        78.45802
700.52        78.50462
700.94        78.71041
701.37         78.9902
701.79         79.2215
702.21        79.33201
702.64        79.36362
703.06        79.37245
703.48        79.46054
703.90        79.65311
704.33        79.90569
704.75        80.14151
705.17        80.20265
705.59        80.06427
706.01        79.78346
706.44         79.5145
706.86        79.49892
707.28        79.77711
707.70        80.26189
708.12        80.80006
708.55        81.14626
708.97        81.23508
709.39        81.14684
709.81         80.9637
710.23        80.83383
710.66         80.8141
711.08        80.86388
711.50         80.9473
711.92        81.02981
712.34        81.10059
712.76        81.18887
713.19         81.2711
713.61        81.37195
714.03        81.46197
714.45        81.53292
714.87         81.6198
715.29        81.78504
715.71        82.03082
716.13        82.33142
716.56        82.59763
716.98        82.77449
717.40        82.80421
717.82        82.71828
718.24        82.57244
718.66        82.46001
719.08        82.41343
719.50         82.4081
719.92         82.4327
720.34        82.46284
720.76        82.48971
721.19        82.52695
721.61        82.57693
722.03        82.59438
722.45        82.60081
722.87        82.58487
723.29        82.59411
723.71        82.69506
724.13        82.89703
724.55        83.18957
724.97        83.54823
725.39        83.79031
725.81        83.85719
726.23          84.035
726.65        84.43268
727.07        83.84427
727.49        84.49284
727.91        84.58794
728.33        84.73465
728.75        84.79186
729.17        84.76048
729.59        84.65264
730.01        84.51751
730.43        84.50807
730.85        84.64985
731.27        84.86652
731.69        85.08327
732.10        85.36238
732.52        85.39716
732.94        85.40478
733.36        85.30507
733.78        85.26373
734.20        85.34776
734.62        85.25961
735.04        84.88703
735.46         85.6142
735.88        85.05072
736.30        84.87733
736.72        84.75092
737.13        85.04066
737.55         85.6226
737.97        86.00523
738.39        86.09188
738.81        85.81086
739.23         85.4399
739.65        85.70535
740.06        86.31838
740.48        86.90429
740.90        86.57572
741.32        85.37469
741.74         85.6273
742.16        85.38828
742.57        85.44829
742.99         85.7363
743.41        86.15837
743.83        86.44678
744.25        86.51219
744.67         86.4416
745.08        86.30038
745.50        86.16232
745.92        86.08002
746.34        86.00874
746.75         85.9623
747.17        85.95636
747.59        85.99516
748.01        86.16502
748.42        86.41227
748.84        86.48839
749.26        86.46863
749.68        86.54262
750.09        86.73847
750.51        87.20477
750.93        87.72029
751.35        87.51215
751.76        86.71629
752.18        86.32092
752.60        86.38856
753.01        86.36744
753.43        86.24885
753.85           86.34
754.27        86.63658
754.68        87.09136
755.10        87.54242
755.52        87.66819
755.93        87.46289
756.35        87.18764
756.77        86.98169
757.18        86.92506
757.60        87.08461
758.02        87.43593
758.43        87.83341
758.85        88.18082
759.26            88.2
759.68        88.12924
760.10        87.96529
760.51          87.621
760.93        87.22109
761.34        87.14964
761.76        87.38371
762.18        87.07917
762.59        86.49267
763.01        86.32763
763.42        87.11386
763.84        87.88616
764.26        88.51171
764.67        88.47052
765.09        88.00152
765.50        88.01122
765.92        88.51675
766.33        88.81497
766.75        88.68919
767.16        88.32368
767.58         87.7864
768.00          87.138
768.41        86.71246
768.83        87.22491
769.24        88.42764
769.66         89.1414
770.07        89.17789
770.49        88.99851
770.90        88.76989
771.32        88.78923
771.73        89.04237
772.15        89.00503
772.56            88.7
772.97        88.55878
773.39        88.53177
773.80        88.41693
774.22        88.13572
774.63        87.60306
775.05        87.03075
775.46        86.95869
775.88        87.42879
776.29        88.25584
776.70        89.09909
777.12         89.4819
777.53        89.28674
777.95        88.61641
778.36        87.81435
778.77        87.46291
779.19        87.70861
779.60        88.43348
780.02         89.2543
780.43         89.7569
780.84        89.81733
781.26        89.13586
781.67         88.1919
782.09        88.82232
782.50        90.61628
782.91        90.89005
783.33        89.70216
783.74        89.40079
784.15         90.0371
784.57        90.25357
784.98         89.9653
785.39        89.62949
785.81        89.29578
786.22        88.97063
786.63        88.73794
787.04        88.64932
787.46        88.72568
787.87        88.98392
788.28        89.37648
788.70        89.74248
789.11        90.01936
789.52         90.2903
789.93        90.51219
790.35         90.5202
790.76        90.34546
791.17        90.17173
791.58        90.05334
792.00        89.81529
792.41        89.48449
792.82        89.45405
793.23          89.577
793.65        89.01771
794.06        88.19247
794.47        88.40625
794.88        89.37875
795.29        90.93558
795.71        91.06471
796.12        90.33491
796.53        91.07487
796.94        90.53242
797.35        89.77312
797.76        89.49065
798.18        89.71878
798.59        89.82185
799.00        89.70815
799.41        89.73502
799.82        89.88551
800.23        90.01741
800.64        90.10448
801.06        90.09122
801.47        90.05419
801.88        90.09412
802.29        90.21302
802.70        90.33549
803.11        90.39611
803.52         90.3054
803.93        90.08068
804.34        89.80173
804.75        89.49375
805.17         89.3353
805.58        89.42283
805.99        89.20698
806.40        88.87956
806.81        89.97732
807.22        91.92887
807.63        91.87965
808.04          90.145
808.45        89.62031
808.86        90.57844
809.27        91.63803
809.68        92.44685
810.09        92.89687
810.50        92.82901
810.91        92.39645
811.32        91.80617
811.73        91.23804
812.14        90.78529
812.55        90.57432
812.96        90.53642
813.37        90.17501
813.78        89.63226
814.19        89.76628
814.60        90.42745
815.01        90.71103
815.42        90.55151
815.83        90.38465
816.24        90.33459
816.65        90.42036
817.05        90.68651
817.46        91.06686
817.87         91.4282
818.28        91.51254
818.69        91.29623
819.10        90.86862
819.51        90.42009
819.92        90.38636
820.33        90.88282
820.74        91.47776
821.14        92.06001
821.55        93.07845
821.96        94.14211
822.37        93.82968
822.78        92.39243
823.19        91.60046
823.60        91.65318
824.00        91.62682
824.41        91.37894
824.82        91.25452
825.23        91.23749
825.64          91.276
826.04        91.37611
826.45        91.47407
826.86        91.56406
827.27        91.65309
827.68        91.73661
828.08        91.84318
828.49        91.90485
828.90         91.9447
829.31        91.96882
829.72        91.99234
830.12        92.03484
830.53        92.05331
830.94        92.03899
831.35        91.94079
831.75        91.78204
832.16        91.54036
832.57        91.28925
832.97        91.13148
833.38        91.06853
833.79         91.0709
834.20        91.11246
834.60        91.13737
835.01         91.1472
835.42        91.18594
835.82        91.21436
836.23        91.09795
836.64        90.85789
837.04        90.51417
837.45        90.25563
837.86        90.45044
838.26        91.16638
838.67        92.24266
839.08        93.33448
839.48        93.79158
839.89         93.4454
840.29        92.54845
840.70        91.53066
841.11        90.92768
841.51        90.90744
841.92        91.23776
842.33         91.8588
842.73        92.67002
843.14        93.44928
843.54        94.29327
843.95        94.90698
844.35        94.90369
844.76        94.24799
845.17        93.08743
845.57        91.79606
845.98        90.98808
846.38        90.82004
846.79        91.14084
847.19        91.81515
847.60        92.39912
848.00        92.79815
848.41        93.05068
848.81        93.28059
849.22        93.59412
849.62        94.06036
850.03        94.52915
850.43        94.94759
850.84        95.10341
851.24        95.02828
851.65        94.73505
852.05        94.36963
852.46        94.09938
852.86         94.0044
853.27        93.87128
853.67        93.68352
854.07        94.03132
854.48         94.6452
854.88        94.48284
855.29        93.58461
855.69        93.18304
856.10        93.29291
856.50        93.35275
856.90        93.21467
857.31        93.01842
857.71         92.8373
858.12        92.57007
858.52        92.37476
858.92        92.37355
859.33        92.55984
859.73        92.96345
860.13        93.43232
860.54        93.68464
860.94        93.71038
861.34        93.51082
861.75        93.17926
862.15        92.99407
862.55        92.98135
862.96        93.09357
863.36        93.23213
863.76        93.18208
864.17         92.9037
864.57        92.50645
864.97        92.15414
865.38        92.06482
865.78        92.34088
866.18        92.83821
866.58        93.37894
866.99        93.65092
867.39        93.61214
867.79        93.31548
868.19        92.79078
868.60         92.0642
869.00        91.16519
869.40        90.12766
869.80        89.20734
870.21        88.82719
870.61        89.13616
871.01        89.96006
871.41        90.91169
871.81        91.35679
872.22        91.14808
872.62         90.5004
873.02        89.67851
873.42        89.19958
873.82        89.13982
874.22        89.15595
874.63        89.26237
875.03        89.59042
875.43        90.06465
875.83        90.97057
876.23        91.29193
876.63        91.37022
877.03        91.02469
877.44        90.23455
877.84        109.2517
878.24        89.96956
878.64        90.40349
879.04        91.69778
879.44        90.73534
879.84        89.88461
880.24        90.69366
880.64        90.05167
881.04        88.29031
881.44        87.18101
881.84        87.12799
882.24        87.82217
882.65        88.72462
883.05        89.03037
883.45        88.44096
883.85        87.35241
884.25        86.32004
884.65        86.05086
885.05        86.69554
885.45        87.99643
885.85        89.46457
886.25        90.28762
886.65        90.22311
887.05        89.53138
887.45        88.60947
887.85         88.0488
888.25        88.02233
888.65        88.35936
889.04        88.86758
889.44        89.12791
889.84        89.05342
890.24        88.76835
890.64         88.4485
891.04        88.33984
891.44        88.46847
891.84        88.70473
892.24        88.86273
892.64        88.64888
893.04        88.03413
893.44        87.21861
893.83        86.32755
894.23        85.57713
894.63        85.02049
895.03         84.5942
895.43         84.4389
895.83        84.79249
896.23         85.6368
896.63        86.86402
897.02        88.11092
897.42        88.68053
897.82        88.42445
898.22        87.55625
898.62        86.41121
899.01        85.51247
899.41          85.081
899.81        84.95474
900.21        85.12012
900.61        85.55254
901.00        86.17957
901.40         86.9847
901.80        87.79459
902.20        88.28725
902.59        88.39182
902.99        88.17171
903.39        87.73692
903.79        87.29586
904.18        86.93469
904.58        86.63339
904.98        86.50257
905.38         86.7188
905.77        87.26344
906.17        88.10576
906.57        88.93438
906.96        89.27702
907.36        89.00481
907.76        88.23801
908.15        87.33987
908.55        86.85045
908.95        86.92223
909.34         87.4376
909.74        88.01315
910.14        87.99888
910.53        87.24382
910.93        86.04704
911.33        84.89388
911.72        84.54304
912.12        85.12463
912.52        86.29598
912.91        87.62791
913.31        88.39505
913.70        88.45804
914.10        88.02376
914.49        87.23597
914.89        86.42504
915.29        85.79608
915.68        85.26496
916.08        85.00784
916.47        85.22639
916.87        85.87817
917.26        86.87325
917.66        87.89346
918.05        88.44791
918.45        88.37149
918.84         87.8464
919.24        86.99522
919.64        86.05722
920.03        85.18036
920.42        84.34447
920.82        83.79401
921.21        83.83733
921.61        84.45107
922.00        85.58896
922.40        86.80433
922.79        87.58644
923.19        87.71841
923.58        87.23048
923.98        86.33118
924.37        85.69077
924.77        85.63737
925.16        84.50175
925.55        85.01099
925.95        84.73619
926.34        84.52272
926.74        84.32486
927.13        84.35528
927.52        84.79227
927.92        85.61011
928.31        86.80085
928.70        87.97457
929.10        88.46432
929.49        88.11907
929.89        87.10559
930.28        85.97487
930.67        85.62198
931.07        86.21494
931.46        87.49794
931.85        88.91814
932.24        89.65237
932.64        89.47305
933.03        88.59456
933.42        87.32222
933.82        86.32692
934.21        85.85928
934.60        85.74922
934.99        85.69202
935.39        85.37236
935.78        84.72392
936.17        83.63046
936.56        82.21542
936.96        82.60034
937.35        82.26363
937.74        83.13438
938.13        84.08813
938.53        84.88387
938.92         85.4998
939.31        86.03678
939.70        86.44492
940.09        86.53932
940.49        86.31155
940.88         85.8514
941.27        85.40977
941.66        85.39114
942.05        85.86116
942.44        86.68293
942.84        87.65356
943.23         88.4581
943.62        88.94081
944.01        89.20882
944.40        89.23267
944.79        88.97797
945.18        88.47231
945.57        87.67941
945.97        86.86697
946.36        86.51375
946.75        86.76891
947.14        87.50605
947.53        88.28857
947.92        88.48881
948.31        88.00119
948.70        86.99948
949.09        85.86896
949.48        85.28928
949.87        85.45235
950.26        86.15456
950.65        86.99861
951.04        87.32955
951.43        86.96455
951.82         86.1097
952.21        85.12169
952.60        84.55805
952.99        84.56715
953.38        84.97141
953.77        85.49203
954.16        85.69978
954.55        85.49084
954.94        85.01739
955.33        84.52002
955.72        84.37503
956.11        84.69402
956.50        85.36422
956.89        86.16851
957.28        86.70223
957.66        86.81901
958.05         86.5817
958.44        86.21326
958.83        86.00279
959.22        86.01138
959.61        86.16689
960.00        86.26679
960.39        85.97773
960.78        85.23933
961.16        84.14928
961.55        83.10737
961.94        82.57568
962.33        82.65198
962.72         83.2227
963.11        83.89417
963.49        84.01396
963.88        83.33653
964.27        82.10893
964.66        80.84206
965.04        80.37731
965.43        80.89482
965.82        82.13203
966.21        83.57851
966.60        84.40334
966.98          84.393
967.37        83.78587
967.76        82.99041
968.15        82.63988
968.53        82.92771
968.92        83.54937
969.31        84.27564
969.69        84.74207
970.08        84.75103
970.47        84.46671
970.86        83.94167
971.24        83.20963
971.63        82.38902
972.02        81.52105
972.40        80.71239
972.79        80.15106
973.17        79.95352
973.56        79.97768
973.95        80.36346
974.33         81.2881
974.72        82.55081
975.11        84.02541
975.49        85.22583
975.88        85.41718
976.26        84.51608
976.65        82.83466
977.04        80.80219
977.42        79.19944
977.81         78.3277
978.19        77.94928
978.58        78.17277
978.96        79.19606
979.35        80.84515
979.74        83.21012
980.12        85.49978
980.51        86.00326
980.89        84.56354
981.28        81.69357
981.66        78.76604
982.05         77.7392
982.43         78.8852
982.82        81.61295
983.20        84.96508
983.59        86.84556
983.97        86.67377
984.35        84.93078
984.74        82.58335
985.12        81.07494
985.51        80.81086
985.89        81.38882
986.28        82.19013
986.66        82.22926
987.04        81.13427
987.43        79.54651
987.81         77.8872
988.20        76.56454
988.58        75.59114
988.96        74.72247
989.35        74.06779
989.73        74.17915
990.12        75.09742
990.50         76.7083
990.88        78.24412
991.27         78.9079
991.65        78.76611
992.03        78.00787
992.42        77.20146
992.80        77.49809
993.18        79.14745
993.56        81.56467
993.95        84.00262
994.33        85.80145
994.71        86.61947
995.10        86.65968
995.48        86.08025
995.86        85.02849
996.24        83.62961
996.63        81.89577
997.01        79.83885
997.39        77.70981
997.77         75.9455
998.15        74.67982
998.54        74.35504
998.92        75.39098
999.30        77.88596
999.68        82.13254
1000.06        87.15687
1000.45        89.08835
1000.83        86.33402
1001.21        80.64597
1001.59        75.02613
1001.97        71.82061
1002.35        70.90065
1002.73        71.48461
1003.12        72.96366
1003.50        74.18085
1003.88        74.36642
1004.26        74.02612
1004.64        73.35854
1005.02        72.57284
1005.40        71.79678
1005.78        70.77544
1006.16        69.90092
1006.54        70.09743
1006.92        71.36885
1007.30        73.21184
1007.69        74.86304
1008.07        75.64714
1008.45        75.45907
1008.83        74.43175
1009.21        72.47655
1009.59        70.19046
1009.97        68.48842
1010.35        67.41144
1010.73        67.53143
1011.11        69.18745
1011.49         71.9391
1011.86        75.67014
1012.24        78.44821
1012.62        78.53806
1013.00        76.02599
1013.38        71.70657
1013.76        67.01991
1014.14        64.60453
1014.52        65.23356
1014.90        68.04532
1015.28        71.93608
1015.66        75.06017
1016.04        76.70007
1016.41         77.4319
1016.79        76.80348
1017.17         74.5211
1017.55        71.17188
1017.93        67.26588
1018.31        64.09131
1018.69        62.77683
1019.06        63.17871
1019.44        64.89142
1019.82        67.17353
1020.20        68.06184
1020.58        66.70754
1020.95        63.62423
1021.33        59.74866
1021.71        55.74832
1022.09        51.33633
1022.46        44.64114
1022.84        35.82386
1023.22        33.75592
1023.60        42.59101
1023.97        52.44564
1024.35        58.15986
1024.73        60.64204
