SpectraSmart Spectrum 2.9.0.0
--------- Device Information -----------
Spectrum Name :  反射率_0
Saving Time :  2024/04/20 00:50:38
Spectro-Module Model Name : SE2030-DUVN
Spectro-Module Serial Number : OS361AC55029948
Wavelength Start : 200
Wavelength End : 1025
Wavelength Unit : Wavelength(nm)
Spectrum Unit : Reflectance(%)
-----------Spectrum Setting ------------
Integration Time : 30ms
Average : 10
Boxcar : 0
Background removal :  enabled
linearity correction :  enabled
SC :  disabled
Intensity correction :  disabled
DWT denoise :  enabled
savitzky-golay :  disabled
FFT :  disabled
Running average :  disabled
Kalman :  disabled
High pass :  disabled
---------------BEGIN--------------------
Wavelength(nm)             Reflectance(%)
200.29               0
200.75        70.95347
201.21        74.80521
201.67        82.22047
202.13        91.88769
202.58        102.5814
203.04        114.5891
203.50         124.011
203.96        122.8237
204.42        112.4822
204.88        99.11688
205.34        88.11973
205.80        81.74908
206.26        78.76065
206.72        77.92611
207.18        79.31481
207.64        82.18181
208.10        85.11533
208.55        88.29189
209.01        90.07611
209.47        90.25859
209.93        89.29652
210.39        87.18598
210.85        85.08633
211.31        84.51125
211.77        85.61688
212.23        88.38618
212.69        91.90408
213.14        92.64832
213.60        89.30203
214.06        84.99937
214.52        81.80558
214.98        80.67339
215.44        81.23824
215.90        82.83245
216.36        85.51292
216.81         88.9937
217.27        92.48537
217.73        96.09042
218.19        98.73908
218.65        99.10663
219.11        97.24268
219.57        93.20497
220.02        88.79491
220.48        88.92657
220.94        94.87432
221.40         105.343
221.86        116.7653
222.32        123.8198
222.77        125.2009
223.23        122.9427
223.69         119.074
224.15        116.5929
224.61        116.3428
225.06         117.127
225.52        118.7417
225.98        120.9481
226.44        123.6443
226.90        126.8803
227.36        130.3059
227.81        132.7822
228.27        134.0396
228.73        134.2095
229.19        133.3351
229.65        131.5334
230.10        129.0872
230.56        126.6105
231.02        124.5732
231.48        123.7499
231.93        124.0212
232.39         125.094
232.85        126.5064
233.31        127.6534
233.77         128.291
234.22        128.6484
234.68        128.4091
235.14        127.0282
235.60        124.5829
236.05        121.2683
236.51        118.0257
236.97        116.2524
237.43        116.2522
237.88        118.2082
238.34        120.9519
238.80        122.0989
239.26        120.0329
239.71        115.4463
240.17        109.5566
240.63        104.7113
241.08        101.6123
241.54        99.65426
242.00        98.34788
242.46         96.5489
242.91        93.71461
243.37        89.38119
243.83        84.15432
244.28        82.21185
244.74        86.63766
245.20        95.51151
245.66        103.4647
246.11        106.8217
246.57        105.1409
247.03         98.7273
247.48        86.93677
247.94        76.31214
248.40        72.76479
248.85        73.24368
249.31        75.00794
249.77        76.88176
250.22        78.79019
250.68        81.24158
251.14        84.34599
251.59        87.53814
252.05        90.41676
252.51        93.15302
252.96        95.01006
253.42        95.26514
253.88        94.32677
254.33        92.67549
254.79        92.70037
255.25        96.51514
255.70        103.3813
256.16        111.5996
256.62        119.1881
257.07        123.9455
257.53        126.0082
257.99        126.2646
258.44        124.3749
258.90        121.1929
259.35        117.2325
259.81        114.1109
260.27        112.0482
260.72        111.2989
261.18         112.012
261.63        113.0358
262.09        114.5586
262.55        115.9675
263.00        116.7817
263.46          117.45
263.91        117.1249
264.37        115.5143
264.83        112.6959
265.28        108.9658
265.74        105.5959
266.19        103.5999
266.65         103.296
267.11         104.033
267.56        105.0517
268.02        105.3883
268.47        104.7419
268.93        103.4716
269.38        101.8202
269.84        100.3999
270.30        99.38688
270.75        98.58045
271.21        97.85858
271.66        96.98032
272.12        95.90484
272.57         94.6973
273.03        93.51345
273.48        92.42253
273.94         91.5399
274.39        90.73648
274.85        89.98043
275.31        89.07264
275.76        87.92121
276.22         86.6355
276.67        85.25875
277.13        84.10161
277.58        83.09564
278.04        82.27419
278.49        81.33012
278.95        80.04636
279.40        78.31972
279.86        76.42706
280.31        74.54929
280.77        73.21703
281.22        72.37514
281.68        71.94363
282.13        71.59419
282.59        70.99348
283.04        70.01269
283.50         68.8419
283.95        67.60764
284.41        66.62881
284.86        65.89265
285.32        65.34455
285.77        64.81264
286.22        64.16784
286.68        63.40513
287.13        62.55193
287.59        61.70918
288.04        60.88922
288.50        60.15054
288.95        59.41266
289.41        58.73646
289.86        58.11148
290.32        57.59361
290.77        57.15852
291.22        56.78623
291.68        56.40528
292.13          55.991
292.59        55.60289
293.04        55.30363
293.50        55.24363
293.95        55.42387
294.40        55.78981
294.86        56.25548
295.31        56.68858
295.77        57.04886
296.22        57.36805
296.68        57.65997
297.13        57.93343
297.58        58.20813
298.04        58.48614
298.49        58.79226
298.95        59.22418
299.40         59.7636
299.85        60.37664
300.31        61.00836
300.76        61.53989
301.21        61.94905
301.67        62.30727
302.12        62.57039
302.58        62.78652
303.03        62.93694
303.48        63.05082
303.94        63.23818
304.39        63.60365
304.84        64.17047
305.30        64.88518
305.75         65.5797
306.20         66.0435
306.66        66.25379
307.11        66.24569
307.57        66.14967
308.02        66.05289
308.47        66.02647
308.93        66.03472
309.38        66.06007
309.83         66.1574
310.29        66.31809
310.74        66.52818
311.19        66.68328
311.65        66.60565
312.10        66.25855
312.55         65.6983
313.00        65.09911
313.46        64.72944
313.91        64.62714
314.36        64.73481
314.82        64.87346
315.27        64.78431
315.72        64.39214
316.18        63.80372
316.63         63.1698
317.08        62.74406
317.53        62.57761
317.99        62.57463
318.44        62.60788
318.89        62.45504
319.35        62.06069
319.80        61.51122
320.25        60.90973
320.70        60.42138
321.16        60.08778
321.61        59.85817
322.06        59.68092
322.51        59.48269
322.97        59.22048
323.42        58.93302
323.87        58.59924
324.32        58.19139
324.78        57.70288
325.23        57.16201
325.68        56.60065
326.13        56.09392
326.59        55.66647
327.04        55.33532
327.49        55.07861
327.94        54.86553
328.39        54.67319
328.85        54.47101
329.30         54.3029
329.75        54.15403
330.20        54.01659
330.66        53.86763
331.11        53.68846
331.56        53.38023
332.01        52.93533
332.46        52.38457
332.92        51.82268
333.37        51.45002
333.82        51.31565
334.27        51.39211
334.72        51.57888
335.17        51.69382
335.63        51.66007
336.08        51.53439
336.53        51.39583
336.98        51.41021
337.43          51.604
337.88        51.90963
338.34        52.15545
338.79        52.12579
339.24        51.75377
339.69        51.11812
340.14        50.41563
340.59        49.97261
341.05        49.87635
341.50        50.05185
341.95        50.32397
342.40        50.41535
342.85         50.2598
343.30        49.95074
343.75        49.62228
344.20        49.48854
344.66        49.59555
345.11        49.83704
345.56        50.11182
346.01         50.2653
346.46        50.24512
346.91        50.11222
347.36        49.88531
347.81        49.58415
348.26        49.24308
348.72         48.8853
349.17        48.55609
349.62         48.3988
350.07        48.43951
350.52        48.62955
350.97        48.89191
351.42        49.10661
351.87        49.22426
352.32        49.26161
352.77        49.20099
353.22        49.02301
353.67        48.74176
354.13        48.38737
354.58        47.99089
355.03        47.65279
355.48        47.40679
355.93        47.24367
356.38        47.14975
356.83        47.09388
357.28        47.05211
357.73        47.01437
358.18        46.96346
358.63        46.87527
359.08        46.73589
359.53        46.54682
359.98        46.28459
360.43        45.91542
360.88          45.449
361.33         44.9112
361.78         44.3776
362.23         43.9711
362.68        43.72309
363.13        43.59669
363.58        43.52763
364.03        43.40959
364.48        43.20276
364.93        42.92748
365.38        42.59468
365.83        42.23323
366.28        41.85996
366.73        41.46417
367.18         41.0598
367.63        40.67036
368.08        40.30539
368.53        39.97573
368.98        39.66833
369.43        39.34977
369.88        39.01714
370.33         38.6845
370.78        38.38012
371.23        38.15536
371.68          38.021
372.13        37.94915
372.58        37.91996
373.03         37.9024
373.48        37.87131
373.93        37.82488
374.38        37.72454
374.83        37.51438
375.28        37.18878
375.72        36.75524
376.17        36.29873
376.62         35.9183
377.07        35.65429
377.52        35.49474
377.97        35.39764
378.42        35.29028
378.87        35.15205
379.32        34.99778
379.77         34.8695
380.22        34.82877
380.67        34.87638
381.11        34.98645
381.56        35.06292
382.01        34.97866
382.46         34.7056
382.91        34.28227
383.36        33.82143
383.81        33.49118
384.26        33.33439
384.71         33.3222
385.15        33.33868
385.60        33.21529
386.05        32.92013
386.50        32.50937
386.95        32.13906
387.40        32.05217
387.85         32.2746
388.29        32.68757
388.74        33.10434
389.19        33.23368
389.64        33.01914
390.09         32.5458
390.54        31.97375
390.98        31.55191
391.43         31.3805
391.88        31.37443
392.33        31.41194
392.78         31.3157
393.23        31.06205
393.67        30.70458
394.12        30.39857
394.57        30.25371
395.02        30.28984
395.47        30.45383
395.91        30.65744
396.36        30.71786
396.81         30.6011
397.26        30.35957
397.71        30.09462
398.15        29.93526
398.60        29.94271
399.05        30.04903
399.50        30.17151
399.95         30.1927
400.39        30.08741
400.84        29.89028
401.29        29.66994
401.74        29.55196
402.18         29.5774
402.63        29.69428
403.08        29.82295
403.53        29.83193
403.97        29.69164
404.42        29.45973
404.87        29.21381
405.32         29.0826
405.76         29.0947
406.21          29.207
406.66        29.35163
407.11        29.42191
407.55         29.3915
408.00        29.30073
408.45        29.18502
408.90         29.0303
409.34        28.88472
409.79        28.88565
410.24        28.97202
410.68        28.92572
411.13        28.74105
411.58        28.53772
412.03         28.3603
412.47        28.24736
412.92        28.21474
413.37        28.24243
413.81         28.3284
414.26        28.48688
414.71        28.69613
415.15        28.95696
415.60        29.16909
416.05        29.20527
416.49        29.03923
416.94        28.71019
417.39        28.33429
417.83        28.10113
418.28        28.06681
418.73        28.17353
419.17        28.32919
419.62        28.37995
420.07        28.29128
420.51        28.11652
420.96        27.92705
421.41        27.80294
421.85        27.75975
422.30        27.78258
422.74        27.83794
423.19        27.92304
423.64        28.01602
424.08        28.13332
424.53        28.23178
424.98        28.27736
425.42        28.26688
425.87        28.20945
426.31        28.12176
426.76        28.04094
427.21        27.96419
427.65        27.87167
428.10        27.79932
428.54        27.77243
428.99        27.80197
429.44         28.0039
429.88        28.22589
430.33        28.04568
430.77        27.56034
431.22        27.32813
431.66        27.40712
432.11        27.57252
432.56         27.7757
433.00        28.12588
433.45        28.39286
433.89        28.27336
434.34        27.93593
434.78         27.6171
435.23        27.26214
435.67        28.39082
436.12        27.47024
436.57        27.34747
437.01        27.07979
437.46        26.96567
437.90        27.02808
438.35        27.16779
438.79        27.30769
439.24        27.38311
439.68        27.37238
440.13        27.07489
440.57        26.68932
441.02        26.96621
441.46        27.66112
441.91        27.89262
442.35        26.95434
442.80        26.65528
443.24        26.72517
443.69        26.59546
444.13         26.2782
444.58        26.08689
445.02        26.05688
445.47        26.16885
445.91        26.34867
446.36        26.41252
446.80        26.32152
447.24        26.16737
447.69        26.00814
448.13        25.87914
448.58        25.80993
449.02        25.77804
449.47        25.76892
449.91        25.75178
450.36        25.72378
450.80        25.69222
451.25        25.66925
451.69        25.64583
452.13         25.6295
452.58        25.61309
453.02        25.60157
453.47        25.61285
453.91          25.647
454.36         25.6963
454.80        25.73752
455.24        25.72746
455.69        25.66852
456.13         25.5511
456.58           25.43
457.02        25.37269
457.46        25.38759
457.91        25.39575
458.35        25.38024
458.79        25.38685
459.24        25.40321
459.68        25.42824
460.13        25.51588
460.57        25.51081
461.01         25.3829
461.46        25.83714
461.90        25.88657
462.34        25.59818
462.79        25.83084
463.23        25.70414
463.68        25.60555
464.12        25.49412
464.56        25.57866
465.01        25.68856
465.45        25.77329
465.89        25.78491
466.34        25.72195
466.78        25.51649
467.22        25.26454
467.67         25.2998
468.11        25.57132
468.55         25.5735
468.99        25.32653
469.44        25.27558
469.88        25.43132
470.32        25.53244
470.77        25.54911
471.21        25.56275
471.65        25.57132
472.10        25.55136
472.54        25.51529
472.98        25.53341
473.42        25.60895
473.87        25.64844
474.31        25.65175
474.75        25.77829
475.20        25.97176
475.64        25.95056
476.08        25.76629
476.52        25.72633
476.97        25.84523
477.41        25.97462
477.85        26.06915
478.29        26.13337
478.74        26.16104
479.18        26.10546
479.62        26.04579
480.06        26.11512
480.50        26.29852
480.95        26.43652
481.39        26.48577
481.83        26.50449
482.27        26.49137
482.72        26.42684
483.16        26.35091
483.60        26.33331
484.04        26.38762
484.48        26.56135
484.93        26.87222
485.37        27.01936
485.81        27.14162
486.25        27.67542
486.69        28.80872
487.14        28.27179
487.58        27.46163
488.02        28.30598
488.46        27.75178
488.90        27.98683
489.34        27.87567
489.79        28.00361
490.23        28.28171
490.67        28.43971
491.11        28.47177
491.55        28.37362
491.99        28.21142
492.43         28.1541
492.88        28.23734
493.32        28.36544
493.76        28.53047
494.20        28.73912
494.64        28.97575
495.08        29.28582
495.52        29.60652
495.96        29.73668
496.41        29.72622
496.85        29.81467
497.29        30.02169
497.73        30.28181
498.17        30.54828
498.61        30.65817
499.05        30.64221
499.49         30.7818
499.93        31.09603
500.37        31.33099
500.82        31.48499
501.26        31.81172
501.70        32.22947
502.14        32.30624
502.58        32.09245
503.02        32.03656
503.46        32.17169
503.90         32.2622
504.34        32.27964
504.78        32.28666
505.22        32.28057
505.66        32.25409
506.10        32.23693
506.54        32.26944
506.98        32.36276
507.42        32.51291
507.86        32.68726
508.30        32.83076
508.74        32.92682
509.18        32.98057
509.62         33.0334
510.06        33.15334
510.50        33.34988
510.94        33.60199
511.38        33.83176
511.82        33.91406
512.26        33.82669
512.70        33.61212
513.14        33.37729
513.58        33.28565
514.02        33.36905
514.46        33.58218
514.90        33.83258
515.34        33.89652
515.78        33.79963
516.22        33.62779
516.66        33.48118
517.10         33.2063
517.54        32.83343
517.98        33.29554
518.42        33.17783
518.86        33.38761
519.30         33.4853
519.74        33.60983
520.18        33.72208
520.62        33.73937
521.06        33.66755
521.50         33.5162
521.93        33.33367
522.37        33.20852
522.81        33.16397
523.25        33.18211
523.69        33.23915
524.13        33.26629
524.57         33.2407
525.01        33.23017
525.45          33.263
525.89        33.09495
526.32        33.18701
526.76        33.16528
527.20        33.13778
527.64        33.05653
528.08        32.91918
528.52        32.73185
528.96        32.53819
529.40        32.41411
529.83        32.37062
530.27        32.39752
530.71        32.42779
531.15        32.35723
531.59        32.17184
532.03        31.91046
532.46        31.65569
532.90        31.55851
533.34        31.63533
533.78        31.82712
534.22        32.04805
534.66        32.16764
535.09        32.14539
535.53        32.03559
535.97        31.87011
536.41        31.69544
536.85        31.53977
537.28        31.40787
537.72         31.3339
538.16        31.27736
538.60         31.3926
539.04         31.5306
539.47        31.68273
539.91        31.84755
540.35        32.02742
540.79        31.95109
541.22        32.04661
541.66        32.11211
542.10        32.30535
542.54        32.10042
542.97        32.35117
543.41        32.46518
543.85        32.67311
544.29        32.88781
544.72        33.06763
545.16        33.24292
545.60          33.397
546.04        33.42225
546.47        33.40987
546.91        33.71374
547.35        34.24969
547.79        34.58104
548.22        34.67002
548.66        34.69434
549.10        34.72302
549.53        34.98304
549.97        35.46751
550.41        35.51396
550.84        35.75245
551.28        35.87756
551.72        36.13388
552.15        36.33006
552.59        36.44421
553.03        37.04588
553.46        37.09719
553.90        37.28863
554.34        37.31953
554.77        37.29211
555.21        37.22673
555.65        37.24789
556.08        37.46806
556.52        37.75018
556.96        38.05592
557.39        38.32455
557.83        38.51501
558.27        38.55348
558.70        38.48541
559.14        38.46696
559.57        38.51081
560.01        38.59647
560.45        38.68206
560.88        38.65558
561.32        38.58898
561.75        38.60236
562.19        38.84317
562.63        38.98622
563.06        39.06127
563.50        39.17086
563.93        39.30183
564.37        39.50897
564.80        39.60451
565.24        39.74937
565.68        39.86535
566.11        39.97343
566.55        40.10318
566.98        40.16434
567.42        40.15281
567.85        40.58859
568.29        40.44402
568.72        40.84269
569.16        41.39697
569.60        41.76626
570.03        41.86116
570.47        42.04046
570.90        42.17285
571.34        42.38053
571.77        41.96807
572.21        42.88714
572.64        42.93366
573.08        42.94573
573.51        43.16317
573.95        43.84832
574.38        44.31003
574.82        44.57696
575.25         44.8844
575.69        44.59267
576.12        44.38881
576.56        44.21654
576.99         44.2958
577.42        44.55625
577.86        44.70758
578.29        44.64492
578.73        45.29538
579.16        44.78171
579.60        44.22174
580.03        44.10511
580.47        44.09904
580.90        43.79425
581.33        43.92499
581.77        43.98957
582.20        44.80877
582.64        44.21262
583.07        43.41825
583.51        43.60959
583.94        42.81618
584.37        42.87658
584.81        42.19041
585.24        42.25365
585.68        42.60254
586.11        42.47326
586.54        42.27247
586.98        41.84226
587.41        42.00597
587.85        42.01363
588.28        42.00261
588.71        41.85351
589.15        41.58892
589.58         41.3507
590.01        41.08437
590.45        41.66845
590.88        41.33249
591.31        41.59956
591.75         41.0201
592.18        41.14691
592.61        40.82577
593.05        41.45095
593.48        41.33493
593.91        42.41404
594.35        42.10902
594.78        42.02753
595.21         42.3849
595.65        42.71299
596.08        42.52802
596.51        42.55242
596.94        42.66144
597.38        42.72573
597.81        42.81416
598.24        43.12534
598.68        44.09128
599.11        43.98311
599.54        45.30387
599.97        45.10201
600.41        45.31686
600.84        45.56418
601.27        46.34321
601.70        46.83969
602.14        47.25656
602.57        47.67474
603.00        48.10945
603.43        49.00815
603.87        49.04448
604.30        49.60943
604.73        50.37231
605.16        50.21044
605.60        50.88612
606.03        51.40037
606.46        52.10125
606.89         52.9124
607.32        53.39256
607.76        53.57153
608.19        54.02002
608.62        54.73781
609.05         54.6586
609.48        54.99097
609.92        55.42435
610.35        55.49996
610.78        56.40223
611.21        57.27819
611.64          57.127
612.07        57.39451
612.50         58.0932
612.94        57.90978
613.37        58.43715
613.80        58.89047
614.23        59.13992
614.66        59.47686
615.09        59.78905
615.52        60.30936
615.96        60.88579
616.39        61.26595
616.82        61.51126
617.25        61.14323
617.68        61.55061
618.11        61.87952
618.54        62.40337
618.97        62.56227
619.40        62.38672
619.84        62.49421
620.27        62.40096
620.70        62.85133
621.13        63.53022
621.56        63.66249
621.99        63.41981
622.42        63.49124
622.85        64.01969
623.28        64.17047
623.71        63.95561
624.14        64.25145
624.57        64.05065
625.00         63.9232
625.43         64.2849
625.86        63.29173
626.29        63.53725
626.72        63.25992
627.15        63.22885
627.58        63.01666
628.01        63.00229
628.44        62.93907
628.87        62.70458
629.30        62.07296
629.73        61.51385
630.16        61.47585
630.59        61.19386
631.02        60.84122
631.45        60.19254
631.88        59.69106
632.31        59.33833
632.74        58.89389
633.17        58.34845
633.60        57.78722
634.03        57.21874
634.46         56.6251
634.89        56.01614
635.32        55.41927
635.75         54.8507
636.18        54.26662
636.61        53.77539
637.04        53.32119
637.47        52.92653
637.89        52.58336
638.32        52.25191
638.75        51.89804
639.18        51.51217
639.61        51.11095
640.04        50.70241
640.47        50.29814
640.90        49.90934
641.33        49.53775
641.76        49.20878
642.18        48.96768
642.61        48.81334
643.04        48.73671
643.47        48.70911
643.90         48.6784
644.33        48.63294
644.76        48.59488
645.18        48.57586
645.61        48.59525
646.04        48.66498
646.47        48.77388
646.90        48.94973
647.33        49.24074
647.75        49.64359
648.18        50.12946
648.61        50.63484
649.04         51.0533
649.47        51.37222
649.89        51.63689
650.32        51.90128
650.75         52.2827
651.18         52.8401
651.61        53.41281
652.03        54.01344
652.46        55.06773
652.89        56.37555
653.32        56.80819
653.74        56.55424
654.17        57.29921
654.60        57.88419
655.03           59.59
655.46        58.39805
655.88        61.15757
656.31        62.82512
656.74         73.0929
657.16        69.21949
657.59        63.77593
658.02        63.89412
658.45        63.62888
658.87        64.60873
659.30        65.41236
659.73        66.13464
660.15        67.34085
660.58        66.67986
661.01        66.50168
661.44        66.37236
661.86        66.71532
662.29        67.47757
662.72        68.48308
663.14         69.4457
663.57        69.50373
664.00        68.89977
664.42        68.87018
664.85        69.51869
665.27        70.07055
665.70        70.40587
666.13        70.73846
666.55        71.04324
666.98        71.25389
667.41        71.40379
667.83        71.54262
668.26        71.68116
668.69        71.82978
669.11        71.99287
669.54        72.16398
669.96        72.34827
670.39        72.56628
670.82        72.82401
671.24        73.09599
671.67        73.41099
672.09        73.82261
672.52        74.19484
672.94        74.67612
673.37         74.3776
673.80        74.21889
674.22        74.06009
674.65        74.00099
675.07        74.09953
675.50        74.35086
675.92        74.68467
676.35        74.90314
676.77        74.96947
677.20        74.94167
677.62        74.88898
678.05        74.91917
678.47        75.05633
678.90        75.29971
679.32        75.59092
679.75        75.77116
680.17        75.84673
680.60        76.01052
681.02        76.27325
681.45        76.44828
681.87        76.55081
682.30        76.75966
682.72        77.02718
683.15        77.04925
683.57        76.88734
684.00        76.82499
684.42        76.97841
684.85        77.17665
685.27        77.29677
685.70        77.59895
686.12        77.95014
686.54        78.19579
686.97        78.30696
687.39        78.24468
687.82        78.09165
688.24        78.24518
688.66        78.62724
689.09        78.66159
689.51        78.40277
689.94        78.38721
690.36        78.66587
690.78          78.881
691.21        78.97775
691.63        79.20473
692.06        79.58722
692.48        79.45248
692.90        79.56985
693.33         80.0741
693.75        79.83036
694.17        79.92955
694.60        79.96182
695.02        79.91597
695.44        79.77089
695.87        79.72554
696.29        79.77614
696.71        79.60103
697.14        79.42248
697.56        79.85688
697.98        80.61811
698.41         81.7399
698.83        81.21555
699.25        81.06141
699.68        80.82563
700.10        81.00621
700.52        80.89169
700.94        81.11452
701.37        81.37413
701.79        81.58607
702.21        81.68423
702.64        81.71106
703.06        81.73145
703.48        81.84016
703.90        82.06054
704.33        82.34689
704.75        82.61471
705.17        82.68996
705.59        82.54501
706.01        82.24535
706.44        81.94695
706.86        81.89555
707.28        82.13714
707.70        82.58122
708.12        83.09312
708.55        83.46748
708.97        83.64348
709.39        83.67002
709.81        83.58128
710.23        83.56842
710.66        83.47308
711.08         83.4389
711.50        83.42323
711.92        83.47839
712.34        83.61088
712.76        83.82954
713.19        84.07378
713.61        84.26707
714.03        84.40523
714.45        84.45684
714.87        84.48885
715.29        84.58523
715.71        84.76163
716.13        84.99112
716.56        85.18755
716.98        85.30626
717.40        85.29396
717.82        85.19299
718.24        85.07779
718.66         85.0398
719.08        85.09952
719.50        85.32381
719.92        85.46994
720.34        85.60168
720.76        85.63697
721.19        85.61106
721.61        85.55124
722.03        85.45885
722.45        85.37979
722.87        85.29507
723.29        85.25719
723.71        85.33836
724.13        85.55006
724.55        85.87552
724.97         86.2663
725.39        86.58795
725.81         86.7882
726.23        86.97684
726.65        87.20641
727.07        87.07677
727.49        87.34455
727.91        87.49586
728.33        87.54068
728.75        87.56245
729.17        87.51411
729.59         87.4287
730.01        87.34207
730.43        87.34903
730.85        87.47099
731.27         87.6096
731.69        87.75958
732.10          88.073
732.52        88.44753
732.94         88.5429
733.36         88.3666
733.78         88.2528
734.20        88.24387
734.62        88.12215
735.04        87.99288
735.46        87.90894
735.88        87.89959
736.30        87.88324
736.72        87.92889
737.13        88.16983
737.55        88.50433
737.97        88.99312
738.39        89.43275
738.81        89.19348
739.23        88.50257
739.65        88.30951
740.06        88.63181
740.48        89.04817
740.90        89.50446
741.32        88.62867
741.74        88.60061
742.16        88.87287
742.57        88.75919
742.99        88.96988
743.41        89.08378
743.83        89.21975
744.25         89.3298
744.67        89.41186
745.08        89.45205
745.50        89.35228
745.92        89.12521
746.34        88.79305
746.75        88.46537
747.17        88.27939
747.59        88.27878
748.01        88.56291
748.42        89.00074
748.84        89.13142
749.26        89.05333
749.68        89.15352
750.09        89.49115
750.51         90.2214
750.93        91.01332
751.35        90.83081
751.76        89.86951
752.18        89.36682
752.60        89.37971
753.01         89.7129
753.43        89.34352
753.85        89.41813
754.27        89.64487
754.68        89.96648
755.10        90.29245
755.52        90.47701
755.93        90.54982
756.35        90.49767
756.77        90.42751
757.18        90.46401
757.60        90.68719
758.02        90.98251
758.43        91.20654
758.85         91.2868
759.26        91.79987
759.68        90.59939
760.10        90.87984
760.51        90.50256
760.93        90.47442
761.34        90.42473
761.76        90.55386
762.18        90.73434
762.59        89.95798
763.01        89.32754
763.42        90.07162
763.84         90.8424
764.26        91.77508
764.67        91.66025
765.09        90.84312
765.50        91.08064
765.92        92.19212
766.33        92.40523
766.75         91.6263
767.16         90.9716
767.58        90.59001
768.00        90.39872
768.41        90.49456
768.83         90.6395
769.24        90.82565
769.66        91.53197
770.07        92.45471
770.49        92.47896
770.90        91.76476
771.32        91.66331
771.73        92.17875
772.15        92.24225
772.56        91.84903
772.97        91.60676
773.39        91.51551
773.80        91.37034
774.22        91.15075
774.63        90.91966
775.05        90.75854
775.46        90.83793
775.88        91.14865
776.29        91.67776
776.70        92.18999
777.12        92.33803
777.53        92.06533
777.95        91.43531
778.36        90.74016
778.77        90.48052
779.19        90.77909
779.60        91.55142
780.02        92.40906
780.43        92.96013
780.84        93.09481
781.26        92.39439
781.67        91.36753
782.09        92.21062
782.50        94.39557
782.91        94.55048
783.33        92.80742
783.74        92.58411
784.15        93.22301
784.57        93.72847
784.98        93.65557
785.39        93.13848
785.81        92.32294
786.22        91.87838
786.63        91.89484
787.04        91.87207
787.46        91.82944
787.87        92.11697
788.28        92.66128
788.70        93.08742
789.11        93.31572
789.52        93.51625
789.93        93.68095
790.35        93.63429
790.76         93.4453
791.17        93.42036
791.58        93.55171
792.00        93.38915
792.41        92.94547
792.82         92.8573
793.23         92.9735
793.65        92.30795
794.06        91.35115
794.47        91.61214
794.88        92.69611
795.29        94.87669
795.71        94.09167
796.12        93.89678
796.53        93.88688
796.94        93.21914
797.35        92.36415
797.76        92.26568
798.18         92.8738
798.59         93.1664
799.00         93.0587
799.41         93.1931
799.82        93.54711
800.23        93.75368
800.64        93.77721
801.06        93.66982
801.47         93.5399
801.88        93.49857
802.29        93.56526
802.70        93.66716
803.11        93.73531
803.52        93.66419
803.93        93.46322
804.34        93.22466
804.75        92.96384
805.17        92.80139
805.58        92.90386
805.99        92.65855
806.40        92.29242
806.81        93.40583
807.22        95.42589
807.63        95.38653
808.04        93.57868
808.45        93.10775
808.86        94.17774
809.27        95.04814
809.68        95.45006
810.09        95.76234
810.50        95.87982
810.91        95.70222
811.32        95.35056
811.73        94.93435
812.14        94.49945
812.55         94.2902
812.96        94.24947
813.37        93.65684
813.78        92.79405
814.19        93.05499
814.60        94.16175
815.01        94.62399
815.42        94.35003
815.83        93.96745
816.24        93.58388
816.65        93.96622
817.05         93.7231
817.46        94.00679
817.87        94.29848
818.28        94.46205
818.69        94.46657
819.10        94.37944
819.51        94.31564
819.92        94.51443
820.33        95.03213
820.74        95.51892
821.14        95.90932
821.55        96.66373
821.96        97.46829
822.37        97.03954
822.78        95.64606
823.19         94.9392
823.60        95.10282
824.00        95.30227
824.41        95.31631
824.82        95.29769
825.23        95.19215
825.64        95.00741
826.04        94.82294
826.45        94.69963
826.86        94.67333
827.27        94.70654
827.68        94.80299
828.08        95.00561
828.49         95.2284
828.90        95.50121
829.31        95.73647
829.72        95.77925
830.12        95.62189
830.53        95.27782
830.94        94.88246
831.35        94.61011
831.75        94.53786
832.16        94.57455
832.57        94.70423
832.97        94.86573
833.38        94.99098
833.79        95.09454
834.20        95.16094
834.60        95.15636
835.01        95.09686
835.42        95.00299
835.82        94.87306
836.23        94.64409
836.64        94.35635
837.04         94.0303
837.45        93.79601
837.86        93.91384
838.26        94.43802
838.67        95.24727
839.08        96.09196
839.48        96.48486
839.89        96.29309
840.29        95.69796
840.70        95.03899
841.11        94.72754
841.51        94.88888
841.92        95.31375
842.33        95.95016
842.73        96.71178
843.14        97.39416
843.54        98.11266
843.95        98.58253
844.35        98.44202
844.76        97.67789
845.17        96.43552
845.57        95.15626
845.98        94.55219
846.38        94.77721
846.79        95.64468
847.19        96.85911
847.60        97.67819
848.00        97.92667
848.41        97.71976
848.81        97.37833
849.22        97.31545
849.62        97.69509
850.03        98.31039
850.43        98.97892
850.84        99.23359
851.24        99.02821
851.65        98.44859
852.05        97.81848
852.46        97.51396
852.86        97.64143
853.27        98.08038
853.67        98.56272
854.07        98.86317
854.48        98.86848
854.88        98.69732
855.29        98.35513
855.69         98.0447
856.10        97.72498
856.50         97.4597
856.90        97.20426
857.31          96.946
857.71        96.78673
858.12        96.68951
858.52        96.70385
858.92        96.77052
859.33        96.84505
859.73        96.98673
860.13        97.17654
860.54         97.3973
860.94        97.70837
861.34        98.01149
861.75        98.20712
862.15        98.26977
862.55        98.14134
862.96        97.86911
863.36        97.49859
863.76         97.0528
864.17        96.58436
864.57        96.14138
864.97        95.83858
865.38        95.81718
865.78        96.14466
866.18        96.69986
866.58        97.31279
866.99        97.66664
867.39         97.7203
867.79        97.52287
868.19        97.05147
868.60        96.26383
869.00         95.1832
869.40        93.84496
869.80        92.64349
870.21        92.23559
870.61        92.81232
871.01        94.13603
871.41        95.57458
871.81        96.10558
872.22        95.51415
872.62         94.1492
873.02        92.57375
873.42        91.75671
873.82         91.8939
874.22        92.54888
874.63        93.48763
875.03        94.31583
875.43         94.7657
875.83         95.1597
876.23        95.09661
876.63        94.94347
877.03        94.66109
877.44        94.11716
877.84         105.592
878.24        94.03308
878.64        94.47167
879.04        95.45897
879.44        95.11871
879.84        94.47132
880.24        94.40868
880.64        93.33753
881.04        91.46736
881.44        90.28315
881.84        90.23069
882.24        91.02995
882.65        92.07246
883.05         92.4781
883.45        91.91473
883.85         90.7523
884.25        89.61409
884.65        89.34028
885.05        90.10352
885.45        91.61166
885.85        93.27321
886.25        94.10764
886.65        93.84229
887.05        92.79625
887.45        91.52409
887.85        90.85077
888.25        90.99452
888.65        91.72092
889.04         92.6722
889.44        93.13115
889.84        92.93995
890.24        92.32779
890.64        91.64542
891.04        91.40158
891.44        91.67702
891.84        92.23854
892.24        92.79659
892.64        92.87649
893.04        92.38331
893.44        91.59729
893.83         90.6422
894.23        89.73302
894.63        88.94756
895.03        88.21136
895.43        87.79559
895.83        88.16093
896.23         89.3259
896.63        91.12836
897.02        92.98799
897.42        93.81927
897.82        93.37513
898.22        91.97895
898.62        90.20595
899.01        88.95451
899.41        88.53582
899.81        88.66949
900.21        89.16612
900.61         89.7301
901.00        90.22953
901.40         90.7524
901.80        91.25025
902.20        91.60178
902.59        91.78574
902.99        91.76649
903.39        91.58082
903.79         91.3233
904.18        91.03022
904.58        90.73759
904.98        90.51337
905.38         90.4625
905.77        90.59172
906.17        90.90504
906.57        91.26071
906.96        91.46143
907.36         91.4167
907.76        91.14541
908.15         90.8152
908.55        90.65188
908.95        90.72089
909.34        90.99968
909.74        91.20185
910.14         90.8621
910.53        89.92021
910.93        88.63322
911.33        87.50206
911.72        87.30911
912.12         88.1653
912.52        89.70737
912.91        91.45004
913.31        92.58665
913.70        92.94846
914.10        92.74462
914.49        92.08624
914.89        91.24303
915.29        90.42686
915.68         89.5878
916.08        88.99554
916.47        88.96862
916.87        89.49412
917.26        90.45667
917.66        91.51261
918.05        92.11718
918.45        92.08424
918.84        91.61854
919.24        90.82411
919.64        89.91081
920.03        89.02264
920.42        88.13285
920.82        87.53406
921.21        87.61566
921.61         88.3613
922.00        89.69775
922.40        91.10472
922.79        91.94263
923.19        91.95726
923.58        91.26489
923.98        90.14831
924.37        89.31892
924.77        89.13039
925.16        88.24801
925.55        88.71673
925.95        88.64892
926.34        88.65508
926.74        88.71474
927.13        88.93563
927.52        89.36222
927.92        89.96244
928.31        90.75094
928.70        91.49834
929.10        91.83443
929.49        91.68813
929.89        91.13908
930.28        90.53717
930.67        90.44437
931.07        90.94862
931.46        91.90015
931.85        92.90717
932.24        93.39631
932.64        93.20152
933.03        92.45066
933.42        91.36588
933.82         90.4662
934.21        89.94393
934.60        89.70311
934.99        89.46083
935.39        88.87034
935.78         87.8645
936.17        86.36024
936.56        84.56971
936.96        84.64107
937.35        84.46822
937.74        85.64931
938.13        86.97054
938.53        87.94762
938.92         88.5274
939.31        88.86478
939.70        89.04934
940.09        89.17262
940.49        89.29396
940.88        89.39704
941.27        89.52504
941.66        89.80146
942.05        90.22831
942.44         90.7331
942.84        91.28604
943.23        91.86779
943.62        92.40752
944.01        92.95418
944.40        93.26367
944.79        92.94941
945.18         91.9645
945.57        90.36583
945.97        88.75171
946.36        88.21851
946.75        89.04597
947.14        90.84911
947.53        92.74113
947.92        93.49712
948.31        92.91724
948.70        91.39207
949.09        89.54327
949.48        88.46767
949.87        88.50661
950.26         89.2914
950.65        90.40099
951.04        91.14164
951.43        91.26089
951.82        91.00408
952.21        90.47597
952.60        89.82201
952.99        89.14682
953.38        88.38547
953.77        87.67967
954.16        87.28024
954.55        87.23297
954.94        87.51705
955.33        87.94439
955.72        88.16437
956.11        88.09385
956.50        87.82054
956.89        87.53762
957.28        87.61921
957.66        88.14524
958.05        88.86678
958.44        89.59837
958.83        90.10857
959.22        90.34222
959.61        90.40715
960.00        90.23069
960.39        89.69948
960.78        88.85265
961.16        87.69942
961.55        86.64226
961.94        86.16335
962.33        86.35017
962.72        87.11166
963.11        87.98848
963.49        88.19124
963.88        87.43779
964.27        86.00652
964.66        84.49638
965.04        83.90157
965.43        84.44542
965.82        85.82954
966.21        87.47035
966.60        88.41545
966.98        88.41736
967.37        87.74454
967.76        86.87232
968.15        86.54405
968.53        86.96506
968.92        87.77418
969.31        88.65804
969.69        89.11497
970.08        88.92664
970.47        88.34388
970.86        87.47562
971.24        86.43934
971.63        85.40366
972.02        84.38142
972.40        83.58318
972.79        83.36756
973.17        83.84863
973.56        84.80419
973.95        86.11008
974.33        87.48176
974.72        88.60091
975.11        89.50255
975.49        89.93041
975.88        89.51903
976.26        88.31866
976.65        86.53973
977.04        84.64564
977.42        83.46098
977.81         83.2469
978.19        83.76811
978.58        84.89797
978.96        86.44282
979.35        88.09728
979.74        89.98413
980.12        91.54658
980.51        91.54472
980.89        89.96664
981.28        87.20419
981.66        84.37636
982.05        83.08074
982.43        83.53349
982.82        85.29366
983.20        87.63947
983.59        88.90311
983.97        88.66624
984.35         87.2832
984.74        85.54026
985.12        84.59674
985.51        84.76484
985.89         85.7506
986.28        86.94756
986.66        87.38644
987.04         86.6637
987.43        85.33833
987.81        83.91718
988.20        83.01819
988.58        82.71764
988.96        82.80127
989.35        83.14595
989.73        83.66138
990.12        84.04782
990.50        84.46946
990.88        84.65225
991.27        84.29925
991.65        83.47064
992.03         82.1708
992.42        80.84375
992.80        80.47787
993.18         81.3326
993.56         83.0206
993.95        84.77903
994.33        85.84859
994.71        85.93922
995.10        85.31968
995.48         84.4137
995.86        83.80354
996.24        83.71773
996.63        84.08417
997.01        84.66016
997.39          84.798
997.77        84.29018
998.15        83.32984
998.54        82.69568
998.92        83.29151
999.30        85.37395
999.68        89.09179
1000.06        93.39003
1000.45        94.48939
1000.83         91.0822
1001.21        85.05819
1001.59        79.48143
1001.97        76.66307
1002.35        76.44466
1002.73        78.12135
1003.12        80.78775
1003.50         82.5692
1003.88        82.32281
1004.26        80.64762
1004.64        78.49127
1005.02        77.16647
1005.40        77.05608
1005.78        77.79354
1006.16        78.92309
1006.54        79.58582
1006.92        79.47762
1007.30        78.91435
1007.69         78.4792
1008.07        78.96191
1008.45        80.57635
1008.83        83.58248
1009.21         87.6363
1009.59        90.16362
1009.97        88.68091
1010.35        83.22861
1010.73        76.90968
1011.11        74.01973
1011.49        75.02953
1011.86         78.7684
1012.24        82.47828
1012.62        83.41477
1013.00        81.39017
1013.38          77.581
1013.76          73.581
1014.14        72.15235
1014.52        74.03306
1014.90        78.10204
1015.28        83.05258
1015.66        86.86273
1016.04        88.74164
1016.41        89.34158
1016.79         88.0629
1017.17        84.61094
1017.55        79.87805
1017.93        74.63376
1018.31        70.58221
1018.69        69.17017
1019.06        70.18186
1019.44        73.14532
1019.82        76.99407
1020.20         78.8473
1020.58        77.43921
1020.95        73.51962
1021.33        68.49575
1021.71        63.77838
1022.09        59.30773
1022.46        53.11745
1022.84        45.76877
1023.22        46.00665
1023.60        56.01518
1023.97        66.01645
1024.35        71.36787
1024.73        72.85059
