SpectraSmart Spectrum 2.9.0.0
--------- Device Information -----------
Spectrum Name :  反射率_0
Saving Time :  2024/04/20 00:18:05
Spectro-Module Model Name : SE2030-DUVN
Spectro-Module Serial Number : OS361AC55029948
Wavelength Start : 200
Wavelength End : 1025
Wavelength Unit : Wavelength(nm)
Spectrum Unit : Reflectance(%)
-----------Spectrum Setting ------------
Integration Time : 30ms
Average : 10
Boxcar : 0
Background removal :  enabled
linearity correction :  enabled
SC :  disabled
Intensity correction :  disabled
DWT denoise :  enabled
savitzky-golay :  disabled
FFT :  disabled
Running average :  disabled
Kalman :  disabled
High pass :  disabled
---------------BEGIN--------------------
Wavelength(nm)             Reflectance(%)
200.29               0
200.75        64.18399
201.21        67.31569
201.67        73.29514
202.13        81.12378
202.58        89.81864
203.04        99.44684
203.50        106.8622
203.96        105.6928
204.42        97.19353
204.88         86.4035
205.34        77.41565
205.80        71.74121
206.26        68.25636
206.72        65.67628
207.18        64.16144
207.64        65.02509
208.10        68.83216
208.55        74.89408
209.01        79.41542
209.47         80.2999
209.93        78.17246
210.39        73.96057
210.85        69.51052
211.31        66.85622
211.77        66.10214
212.23        66.71227
212.69        67.88957
213.14        67.42205
213.60         64.6623
214.06        62.01695
214.52         60.3577
214.98         59.9044
215.44        60.40989
215.90        61.34662
216.36        63.13516
216.81        66.38734
217.27        70.55802
217.73         75.2194
218.19         78.4931
218.65        77.96481
219.11        73.35297
219.57        64.87665
220.02         54.6647
220.48         48.8851
220.94        49.80747
221.40        56.46533
221.86        65.34058
222.32        70.77728
222.77        71.30155
223.23        68.77314
223.69        65.71503
224.15        65.63815
224.61         68.5703
225.06        72.53737
225.52        75.90807
225.98        77.40878
226.44        77.09089
226.90        75.58254
227.36        73.65714
227.81        72.50922
228.27          72.749
228.73         73.7698
229.19        74.79846
229.65        74.93629
230.10        74.14548
230.56        72.99696
231.02        71.98458
231.48        71.78071
231.93        72.32034
232.39        73.26553
232.85         74.1574
233.31        74.37305
233.77        73.74966
234.22        72.55623
234.68        70.88845
235.14        68.85882
235.60        66.71706
236.05        64.54865
236.51        62.78339
236.97        61.99391
237.43        62.33945
237.88        64.07674
238.34        66.82785
238.80        69.47652
239.26        70.94617
239.71        71.10872
240.17        70.27815
240.63        69.81524
241.08        70.20239
241.54        71.04599
242.00        71.71185
242.46        70.92609
242.91        68.02348
243.37          62.288
243.83        54.43867
244.28        50.36327
244.74        55.34518
245.20         67.8307
245.66        79.39277
246.11        83.11024
246.57         78.3151
247.03        65.21447
247.48        46.53315
247.94        39.46344
248.40        47.55044
248.85        59.02237
249.31        67.72642
249.77        72.15089
250.22        73.45969
250.68        73.06243
251.14        71.68227
251.59        70.56159
252.05        70.61341
252.51        71.67395
252.96        72.67941
253.42         72.1464
253.88        70.10719
254.33        67.43052
254.79        66.55363
255.25        69.54829
255.70        75.59833
256.16        82.87543
256.62        88.92557
257.07        91.04469
257.53        89.52148
257.99        85.72136
258.44        80.71011
258.90        76.77512
259.35        74.10622
259.81        72.77815
260.27        72.05314
260.72        71.35276
261.18         70.8402
261.63        70.13539
262.09        69.84009
262.55        70.14929
263.00         70.8113
263.46          71.766
263.91        72.15232
264.37        71.37638
264.83        69.47099
265.28        66.76453
265.74        64.26207
266.19        62.82475
266.65        62.67417
267.11        63.30952
267.56        64.13006
268.02        64.29714
268.47         63.6138
268.93        62.38071
269.38        60.87999
269.84        59.77542
270.30        59.21967
270.75        58.99792
271.21        58.85837
271.66        58.41271
272.12        57.56648
272.57        56.44273
273.03        55.26535
273.48        54.26297
273.94        53.56823
274.39        53.05899
274.85        52.62001
275.31        52.01197
275.76         51.1561
276.22        50.15171
276.67        49.13179
277.13        48.43814
277.58        48.03698
278.04        47.88109
278.49        47.62016
278.95        46.87842
279.40        45.57811
279.86        43.98532
280.31        42.40485
280.77        41.44419
281.22        41.10431
281.68        41.22827
282.13        41.44804
282.59        41.29057
283.04        40.64203
283.50         39.7243
283.95        38.75211
284.41        38.10175
284.86        37.81179
285.32        37.76952
285.77         37.8182
286.22        37.81071
286.68         37.6959
287.13        37.51015
287.59        37.27378
288.04        36.95138
288.50        36.58066
288.95        36.12037
289.41        35.67055
289.86        35.30676
290.32        35.09668
290.77        35.00776
291.22        34.99314
291.68        34.93933
292.13        34.82662
292.59        34.71598
293.04        34.69241
293.50        34.91413
293.95         35.3908
294.40        36.05443
294.86        36.80107
295.31        37.47827
295.77        38.04174
296.22         38.5333
296.68        38.98571
297.13        39.43459
297.58        39.90743
298.04        40.39239
298.49        40.90805
298.95        41.53256
299.40        42.25071
299.85        43.04041
300.31        43.83585
300.76        44.51672
301.21        45.06112
301.67        45.53482
302.12         45.9417
302.58        46.37111
303.03        46.81627
303.48        47.27369
303.94        47.79251
304.39        48.39779
304.84        49.08997
305.30         49.8421
305.75        50.53536
306.20        51.02245
306.66        51.29791
307.11        51.38665
307.57        51.39894
308.02        51.41319
308.47        51.48853
308.93        51.59254
309.38        51.71428
309.83        51.90012
310.29        52.13675
310.74        52.41422
311.19        52.62547
311.65        52.59118
312.10        52.28538
312.55        51.77425
313.00        51.23333
313.46        50.93425
313.91        50.91753
314.36        51.11319
314.82        51.36863
315.27        51.46152
315.72        51.30949
316.18        50.99551
316.63        50.59389
317.08        50.23516
317.53        49.95929
317.99        49.72004
318.44         49.4908
318.89        49.22028
319.35        48.89985
319.80        48.55956
320.25        48.23785
320.70        47.99063
321.16        47.81823
321.61        47.69967
322.06        47.58005
322.51        47.37793
322.97        47.06491
323.42         46.6805
323.87        46.25138
324.32        45.83158
324.78        45.43963
325.23        45.08041
325.68        44.75898
326.13        44.49225
326.59        44.27658
327.04        44.13118
327.49        44.02522
327.94        43.91431
328.39        43.77797
328.85        43.59302
329.30        43.40922
329.75        43.24871
330.20         43.1176
330.66        42.98715
331.11        42.84711
331.56        42.61507
332.01        42.27895
332.46        41.86595
332.92        41.43064
333.37        41.08903
333.82        40.87574
334.27         40.7821
334.72        40.76419
335.17          40.742
335.63        40.67509
336.08        40.59071
336.53        40.53219
336.98        40.59305
337.43        40.78022
337.88         41.0567
338.34          41.276
338.79        41.25542
339.24        40.94234
339.69        40.39736
340.14        39.81609
340.59         39.5275
341.05        39.60017
341.50        39.94128
341.95        40.34874
342.40        40.50537
342.85        40.33867
343.30         39.9638
343.75        39.51283
344.20        39.20126
344.66        39.09087
345.11        39.07701
345.56        39.13409
346.01        39.22268
346.46        39.30396
346.91        39.40878
347.36         39.4286
347.81        39.18338
348.26        38.67365
348.72        37.98538
349.17        37.30446
349.62        37.01628
350.07        37.20266
350.52        37.72406
350.97        38.36918
351.42        38.82255
351.87        38.97883
352.32        38.91086
352.77        38.66548
353.22        38.32322
353.67        37.93682
354.13        37.51429
354.58        37.05554
355.03        36.61059
355.48        36.21078
355.93         35.8728
356.38        35.65316
356.83        35.62156
357.28        35.76486
357.73        36.03383
358.18        36.30598
358.63        36.38457
359.08        36.21463
359.53        35.85276
359.98        35.37506
360.43        34.90334
360.88         34.4868
361.33        34.09969
361.78        33.76293
362.23        33.51096
362.68        33.34242
363.13        33.24913
363.58        33.18091
364.03        33.05036
364.48        32.82743
364.93        32.52389
365.38         32.1553
365.83         31.7615
366.28         31.3686
366.73        30.97703
367.18        30.60305
367.63        30.26837
368.08        29.97983
368.53        29.73885
368.98        29.54112
369.43        29.37042
369.88        29.21705
370.33        29.08245
370.78         28.9479
371.23        28.78734
371.68         28.5965
372.13        28.37469
372.58        28.15756
373.03        28.01087
373.48        27.94115
373.93         27.9189
374.38        27.88601
374.83        27.75187
375.28        27.49527
375.72        27.14008
376.17        26.74579
376.62        26.36774
377.07        26.04303
377.52        25.76708
377.97        25.55691
378.42        25.43525
378.87        25.39518
379.32        25.42079
379.77        25.48084
380.22        25.52533
380.67        25.53406
381.11        25.51664
381.56        25.44674
382.01        25.30897
382.46        25.10619
382.91        24.83989
383.36        24.56568
383.81        24.36638
384.26        24.26064
384.71        24.24281
385.15        24.23463
385.60        24.11962
386.05        23.87767
386.50        23.54195
386.95        23.23347
387.40        23.14189
387.85        23.29115
388.29        23.60393
388.74        23.92146
389.19        24.00492
389.64        23.81355
390.09        23.41708
390.54        22.97533
390.98         22.7373
391.43        22.77787
391.88        22.99721
392.33        23.23724
392.78        23.27132
393.23        23.06887
393.67        22.70795
394.12        22.35568
394.57        22.16235
395.02        22.16204
395.47        22.29795
395.91         22.4907
396.36        22.57871
396.81        22.52495
397.26        22.37507
397.71        22.21144
398.15        22.13718
398.60        22.19826
399.05        22.33916
399.50         22.4796
399.95        22.50908
400.39         22.4054
400.84         22.1988
401.29        21.97447
401.74         21.8861
402.18        21.97854
402.63        22.19627
403.08        22.42115
403.53        22.46347
403.97        22.28754
404.42        21.96812
404.87         21.6366
405.32        21.50777
405.76        21.62697
406.21        21.91841
406.66        22.25854
407.11        22.45569
407.55        22.46077
408.00         22.3382
408.45        22.15729
408.90        21.98266
409.34         21.8775
409.79        21.91896
410.24        22.04273
410.68        22.05963
411.13        21.95644
411.58        21.83716
412.03        21.73356
412.47        21.66587
412.92        21.64614
413.37        21.65955
413.81        21.71559
414.26        21.84604
414.71        22.03899
415.15        22.29219
415.60        22.51649
416.05        22.59647
416.49        22.50447
416.94        22.27524
417.39        22.00545
417.83        21.85451
418.28        21.86833
418.73        21.99454
419.17        22.15094
419.62        22.19859
420.07        22.11086
420.51        21.93976
420.96        21.75419
421.41        21.63466
421.85        21.59975
422.30        21.63373
422.74        21.70992
423.19         21.8271
423.64        21.96542
424.08        22.13738
424.53        22.29755
424.98        22.39806
425.42        22.42908
425.87         22.4027
426.31        22.33988
426.76        22.28734
427.21        22.24807
427.65        22.19991
428.10         22.1752
428.54        22.19675
428.99        22.26933
429.44        22.48454
429.88         22.7056
430.33        22.56955
430.77        22.15314
431.22        21.91187
431.66        21.91326
432.11        22.00714
432.56         22.1657
433.00        22.48883
433.45         22.7623
433.89        22.67742
434.34        22.38519
434.78         22.1016
435.23        21.79324
435.67        22.90591
436.12        22.23277
436.57        22.16181
437.01        21.85375
437.46        21.75289
437.90        21.88424
438.35        22.04978
438.79        22.17786
439.24        22.25144
439.68        22.25218
440.13        22.01161
440.57        21.68656
441.02        21.87925
441.46          22.393
441.91        22.51849
442.35        21.71838
442.80         21.4932
443.24         21.6257
443.69        21.64775
444.13        21.52082
444.58        21.42516
445.02        21.37326
445.47         21.3708
445.91         21.4085
446.36         21.4215
446.80        21.39557
447.24        21.37519
447.69         21.3586
448.13        21.29783
448.58        21.20134
449.02        21.08061
449.47        20.95991
449.91        20.87013
450.36         20.8276
450.80        20.81902
451.25        20.84245
451.69        20.87241
452.13        20.90561
452.58         20.9402
453.02        20.97433
453.47         21.0097
453.91        21.04531
454.36         21.0761
454.80        21.08971
455.24        21.06592
455.69         21.0121
456.13        20.91675
456.58        20.82456
457.02         20.7892
457.46        20.81634
457.91        20.84213
458.35        20.84812
458.79        20.86202
459.24        20.87316
459.68        20.88162
460.13        20.94119
460.57        20.93766
461.01        20.84927
461.46        21.24914
461.90        21.31701
462.34        21.08887
462.79        21.26996
463.23        21.14187
463.68        21.03438
464.12        20.92966
464.56        21.00492
465.01        21.11206
465.45        21.20638
465.89        21.24365
466.34        21.21958
466.78        21.07959
467.22        20.89551
467.67        20.93119
468.11        21.14276
468.55        21.11611
468.99        20.88069
469.44        20.82362
469.88        20.95903
470.32        21.06625
470.77        21.11194
471.21        21.15037
471.65        21.17416
472.10        21.16781
472.54        21.14331
472.98        21.16319
473.42         21.2331
473.87         21.2763
474.31        21.28989
474.75        21.40145
475.20        21.56392
475.64        21.54162
476.08        21.39104
476.52        21.38852
476.97        21.54631
477.41        21.73443
477.85        21.88241
478.29        21.94085
478.74         21.8962
479.18        21.72929
479.62        21.55085
480.06        21.53721
480.50        21.69133
480.95        21.86279
481.39        21.98125
481.83        22.04246
482.27        22.02855
482.72        21.93402
483.16        21.82184
483.60        21.78883
484.04        21.85906
484.48        22.07944
484.93        22.42451
485.37        22.51087
485.81        22.62629
486.25        22.90053
486.69        23.63208
487.14        23.28486
487.58        22.96062
488.02          23.549
488.46        23.31447
488.90         23.4636
489.34        23.34937
489.79        23.48042
490.23         23.7812
490.67        23.85467
491.11        23.73547
491.55        23.70296
491.99        23.77629
492.43        23.81215
492.88        23.81847
493.32        23.86351
493.76        23.97853
494.20        24.17133
494.64        24.43951
495.08        24.80128
495.52        25.17379
495.96        25.37127
496.41        25.41007
496.85        25.44226
497.29        25.51715
497.73          25.688
498.17        25.93054
498.61         26.0549
499.05        26.07121
499.49        26.21109
499.93        26.48439
500.37        26.68337
500.82        26.80922
501.26        27.08057
501.70         27.4312
502.14        27.49122
502.58        27.31554
503.02        27.30625
503.46        27.49146
503.90        27.66059
504.34        27.76625
504.78        27.82413
505.22        27.82347
505.66        27.77278
506.10        27.71033
506.54        27.69314
506.98        27.74108
507.42        27.84208
507.86        27.98271
508.30        28.13877
508.74        28.29414
509.18        28.44626
509.62        28.59079
510.06        28.72041
510.50        28.83303
510.94        28.93366
511.38        29.00117
511.82        29.00569
512.26        28.94918
512.70        28.84087
513.14        28.74742
513.58        28.76786
514.02        28.91098
514.46        29.15108
514.90        29.39702
515.34        29.43258
515.78        29.27864
516.22        29.03234
516.66        28.81876
517.10        28.51382
517.54        28.15642
517.98        28.73768
518.42         28.7085
518.86        28.97589
519.30        29.05729
519.74        29.11766
520.18        29.15434
520.62        29.14269
521.06        29.10229
521.50        29.02114
521.93         28.9132
522.37        28.81283
522.81        28.73187
523.25         28.6724
523.69        28.63251
524.13        28.60514
524.57        28.58496
525.01        28.56774
525.45        28.55883
525.89        28.56559
526.32         28.5841
526.76         28.6143
527.20        28.62067
527.64        28.55278
528.08        28.40528
528.52        28.19162
528.96        27.97731
529.40        27.86233
529.83        27.86251
530.27        27.95534
530.71        28.05497
531.15         28.0263
531.59        27.84625
532.03        27.56377
532.46        27.27032
532.90        27.12902
533.34        27.16487
533.78        27.31824
534.22        27.50895
534.66        27.61483
535.09        27.59712
535.53        27.50659
535.97        27.37131
536.41        27.23094
536.85        27.10834
537.28        27.00414
537.72        26.94563
538.16        26.89581
538.60        26.98731
539.04        27.09443
539.47        27.21039
539.91        27.33388
540.35        27.46929
540.79        27.38566
541.22        27.45613
541.66        27.51689
542.10        27.70266
542.54        27.55526
542.97        27.80032
543.41        27.91814
543.85        28.10392
544.29        28.29086
544.72        28.43783
545.16        28.56262
545.60        28.65466
546.04        28.62416
546.47        28.57912
546.91        28.87011
547.35        29.42976
547.79        29.86434
548.22         30.0921
548.66        30.19494
549.10        30.22082
549.53        30.38976
549.97        30.72986
550.41        30.73131
550.84        30.97187
551.28        31.13453
551.72        31.40264
552.15          31.688
552.59        31.98384
553.03        32.29807
553.46        32.57459
553.90        32.76301
554.34        32.85241
554.77        32.86057
555.21        32.84581
555.65        32.88861
556.08        33.00549
556.52        33.16946
556.96        33.35044
557.39        33.54111
557.83        33.71727
558.27        33.80694
558.70        33.82607
559.14          33.869
559.57        33.93467
560.01        34.01422
560.45        34.09363
560.88        34.10247
561.32        34.10626
561.75        34.21822
562.19         34.5344
562.63        34.66085
563.06        34.64182
563.50        34.70581
563.93        34.84627
564.37         35.0172
564.80        35.05559
565.24        35.16455
565.68        35.27624
566.11        35.37892
566.55        35.49738
566.98        35.56871
567.42        35.57958
567.85        35.97142
568.29        35.81396
568.72        36.17271
569.16        36.68748
569.60        37.05606
570.03         37.2198
570.47        37.39579
570.90        37.41247
571.34        37.84906
571.77        37.53791
572.21        38.02681
572.64          38.289
573.08        38.56343
573.51        38.40929
573.95        38.87794
574.38        39.41959
574.82        39.77898
575.25        39.75904
575.69        39.69484
576.12        39.43974
576.56        39.28405
576.99          39.229
577.42        39.50775
577.86        39.70988
578.29        39.57428
578.73         40.3712
579.16        39.99965
579.60        39.68465
580.03        39.26426
580.47        39.31016
580.90        39.33464
581.33        38.92612
581.77        38.94288
582.20        39.55552
582.64        38.99388
583.07        38.61906
583.51        38.66333
583.94        38.06305
584.37        37.92381
584.81        37.57101
585.24        37.51125
585.68        37.59385
586.11        37.40467
586.54         37.3515
586.98        37.18184
587.41        37.28815
587.85        37.35107
588.28        37.37236
588.71        37.23662
589.15        36.97938
589.58         36.6573
590.01        36.44594
590.45        36.82943
590.88        36.53015
591.31        36.64483
591.75        36.49014
592.18        36.72473
592.61        36.43614
593.05         36.8938
593.48        36.59202
593.91        37.53608
594.35        37.21037
594.78        37.29639
595.21        37.74949
595.65         38.0801
596.08        37.99161
596.51         37.9208
596.94        37.86187
597.38        38.00037
597.81         38.4082
598.24        38.51842
598.68        39.49402
599.11         39.4729
599.54        40.69587
599.97        40.56456
600.41        40.70356
600.84        41.23082
601.27        41.74582
601.70         42.2914
602.14        42.62177
602.57        42.96952
603.00        43.33152
603.43        44.05849
603.87        44.32395
604.30        44.91368
604.73        45.62814
605.16        45.73627
605.60        46.22655
606.03        46.81656
606.46        47.70617
606.89        47.85081
607.32          48.877
607.76        48.73031
608.19         49.2806
608.62        49.89883
609.05        49.97537
609.48        50.17141
609.92        50.61446
610.35        50.77148
610.78        51.53262
611.21        52.12212
611.64        52.06059
612.07         52.3854
612.50        52.85984
612.94        52.85044
613.37        53.50829
613.80        53.86716
614.23        54.24892
614.66         54.8036
615.09        55.10591
615.52        55.53374
615.96        55.88617
616.39        56.03323
616.82        56.24329
617.25        56.08745
617.68        56.22482
618.11         56.7205
618.54        57.28458
618.97        57.50692
619.40        57.33952
619.84        57.07046
620.27        56.92544
620.70        57.45316
621.13        58.45657
621.56        58.79668
621.99        58.54448
622.42        58.45641
622.85         58.6857
623.28        58.74952
623.71        58.59217
624.14        59.11073
624.57        58.69811
625.00        58.61499
625.43        58.76802
625.86        58.18028
626.29        58.13347
626.72        57.88607
627.15        57.83379
627.58        57.81254
628.01        57.73375
628.44        57.70798
628.87        57.48765
629.30        56.79543
629.73        56.54058
630.16        56.05656
630.59        55.93332
631.02        55.59422
631.45        55.09209
631.88        54.95218
632.31        54.39529
632.74        53.96317
633.17        53.43264
633.60        52.88147
634.03        52.31951
634.46        51.74632
634.89        51.18032
635.32        50.62825
635.75        50.10172
636.18        49.60992
636.61        49.15618
637.04        48.73689
637.47        48.34422
637.89        47.97603
638.32        47.61367
638.75        47.25851
639.18        46.91018
639.61         46.5739
640.04        46.23738
640.47        45.87884
640.90        45.50154
641.33        45.11907
641.76        44.77247
642.18         44.5313
642.61        44.40303
643.04        44.36983
643.47        44.39539
643.90        44.41583
644.33        44.41366
644.76        44.41275
645.18        44.42421
645.61        44.46811
646.04         44.5546
646.47        44.66982
646.90        44.83993
647.33        45.10995
647.75        45.48075
648.18          45.935
648.61        46.41047
649.04        46.79947
649.47        47.08944
649.89        47.32535
650.32        47.58564
650.75        47.99872
651.18        48.62075
651.61        49.35773
652.03        50.15845
652.46        51.15938
652.89        52.20137
653.32        52.56652
653.74        52.46454
654.17        53.03219
654.60        53.79673
655.03        55.13758
655.46        54.47896
655.88        56.43036
656.31        57.82985
656.74         65.2696
657.16        63.02496
657.59        59.56596
658.02        59.48487
658.45        59.25458
658.87         60.6052
659.30        60.87895
659.73        61.58183
660.15        62.51169
660.58        62.40634
661.01        62.35909
661.44        62.13823
661.86        62.35472
662.29        63.00586
662.72        63.95495
663.14        64.92592
663.57          65.023
664.00        64.45883
664.42        64.43378
664.85         65.0372
665.27        65.55025
665.70        65.88617
666.13        66.06927
666.55        66.45943
666.98        66.68217
667.41         66.8586
667.83        66.99077
668.26        67.07888
668.69        67.13342
669.11        67.18967
669.54        67.28474
669.96          67.432
670.39        67.69206
670.82        68.02254
671.24        68.17995
671.67         68.2222
672.09        68.51287
672.52        68.99453
672.94        69.30957
673.37         69.4063
673.80        69.32438
674.22        69.17319
674.65        69.17554
675.07        69.38284
675.50        69.66117
675.92        69.93082
676.35        70.07629
676.77         70.0741
677.20        69.96798
677.62        69.83441
678.05        69.80503
678.47        69.90696
678.90        70.09995
679.32        70.34812
679.75        70.58355
680.17        70.77403
680.60        70.98664
681.02        71.20117
681.45        71.24216
681.87        71.18182
682.30        71.30511
682.72        71.58351
683.15        71.71777
683.57        71.70988
684.00        71.63605
684.42        71.64004
684.85        71.85842
685.27        71.98972
685.70        72.29905
686.12        72.59385
686.54        72.77753
686.97        72.82362
687.39        72.71634
687.82        72.53775
688.24        72.60031
688.66        72.88049
689.09        72.93537
689.51        72.94315
689.94        73.01439
690.36        73.21709
690.78        73.35857
691.21        73.40968
691.63        73.53817
692.06        73.77028
692.48        73.65672
692.90        73.64686
693.33        74.10672
693.75        73.90591
694.17        74.05416
694.60        74.15804
695.02        74.17406
695.44        74.07084
695.87        74.07465
696.29        74.19241
696.71        73.96791
697.14        73.65145
697.56        74.10149
697.98         75.2892
698.41        75.83262
698.83        75.65825
699.25        75.06945
699.68        74.96061
700.10        74.74462
700.52         74.7189
700.94         74.8678
701.37        75.09937
701.79        75.30999
702.21        75.42083
702.64        75.47143
703.06        75.50826
703.48        75.61723
703.90        75.81673
704.33        76.06605
704.75        76.28701
705.17         76.3111
705.59        76.11282
706.01        75.77508
706.44        75.47016
706.86        75.34219
707.28        75.63401
707.70        76.10489
708.12         76.6442
708.55        76.96809
708.97        77.03253
709.39        76.88713
709.81        76.81136
710.23        76.68935
710.66        76.63825
711.08        76.65421
711.50        76.72049
711.92         76.8378
712.34        77.00299
712.76         77.1062
713.19        77.32975
713.61        77.46432
714.03        77.53754
714.45        77.54911
714.87        77.55289
715.29        77.63482
715.71        77.80736
716.13        78.04611
716.56         78.2666
716.98        78.41618
717.40        78.43737
717.82        78.36366
718.24        78.25586
718.66        78.19662
719.08        78.21944
719.50        78.35149
719.92         78.3799
720.34        78.45266
720.76          78.532
721.19        78.16675
721.61        78.24086
722.03        78.16115
722.45        78.21319
722.87        78.31979
723.29        78.45992
723.71        78.58923
724.13        78.68404
724.55        78.76006
724.97        78.85341
725.39         78.9949
725.81         79.1825
726.23        79.46174
726.65        79.79868
727.07        79.82504
727.49         79.9725
727.91        80.04283
728.33        80.15879
728.75        80.18607
729.17        80.13306
729.59        80.08208
730.01        80.04646
730.43        80.02779
730.85        80.03616
731.27        80.05263
731.69        80.09608
732.10        80.25006
732.52        80.47805
732.94        80.65513
733.36        80.71151
733.78        80.73921
734.20        80.76333
734.62         80.5526
735.04        80.09373
735.46        80.53511
735.88        80.10249
736.30        80.12719
736.72        80.14631
737.13        80.45098
737.55        80.85229
737.97        81.27105
738.39        81.55666
738.81        81.31609
739.23        80.76431
739.65        80.69915
740.06        81.02799
740.48        81.33674
740.90        81.56339
741.32        80.63651
741.74        80.60077
742.16        80.62949
742.57        80.66611
742.99        80.95129
743.41        81.20887
743.83        81.40867
744.25        81.48422
744.67         81.4589
745.08        81.36754
745.50         81.2255
745.92        81.07312
746.34        80.88399
746.75         80.7038
747.17        80.63551
747.59         80.7077
748.01        80.84969
748.42        81.11462
748.84        81.33067
749.26        81.51637
749.68        81.47566
750.09        81.35684
750.51        81.72844
750.93        82.32378
751.35         82.3644
751.76        82.03654
752.18        80.95861
752.60        81.25651
753.01        81.83306
753.43        81.17818
753.85        81.25591
754.27        81.43016
754.68         81.8459
755.10        82.33853
755.52        82.06142
755.93        81.87667
756.35        81.67316
756.77        81.77505
757.18        81.87619
757.60         82.0509
758.02        82.41006
758.43        82.73565
758.85         82.8974
759.26        83.51488
759.68        82.09974
760.10        81.92639
760.51        82.29036
760.93        81.84578
761.34        81.71819
761.76        81.92198
762.18        81.77737
762.59        81.61566
763.01        81.30152
763.42        82.00141
763.84        82.29498
764.26        82.41963
764.67        82.70254
765.09        82.44459
765.50        82.90345
765.92        83.67268
766.33        83.97701
766.75        83.65903
767.16        83.14415
767.58        82.58691
768.00        82.10345
768.41        81.91101
768.83        82.26801
769.24        82.99834
769.66        83.51031
770.07        83.64906
770.49        83.53991
770.90        83.30847
771.32        83.31084
771.73        83.54712
772.15        83.54981
772.56        83.33302
772.97        83.27422
773.39        83.30165
773.80        83.15178
774.22        82.79282
774.63        82.32267
775.05        81.91232
775.46          81.935
775.88        82.27594
776.29        82.99683
776.70        83.75765
777.12         84.0892
777.53        83.88887
777.95        83.26922
778.36        82.53152
778.77        82.18551
779.19        82.36676
779.60        82.97038
780.02          83.679
780.43        84.19334
780.84         84.4105
781.26        83.96516
781.67        83.23872
782.09        83.97674
782.50         85.7013
782.91        85.63473
783.33        83.97574
783.74        83.41608
784.15        84.07631
784.57        84.52891
784.98        84.55904
785.39        84.27184
785.81        83.74777
786.22         83.4507
786.63        83.46071
787.04        83.46789
787.46        83.48978
787.87        83.75448
788.28         84.1879
788.70        84.47984
789.11        84.56487
789.52        84.61487
789.93        84.65059
790.35        84.51775
790.76        84.33051
791.17        84.43805
791.58        84.76453
792.00        84.85966
792.41        84.64876
792.82        84.31603
793.23        83.92659
793.65        83.51245
794.06        83.36807
794.47        83.75613
794.88        84.37404
795.29        85.96573
795.71        85.83461
796.12        85.47573
796.53        85.84287
796.94        85.24371
797.35        84.41013
797.76        84.15017
798.18        84.48977
798.59         84.6404
799.00         84.5426
799.41        84.73583
799.82        85.14858
800.23        85.39332
800.64        85.41806
801.06        85.21227
801.47        85.04728
801.88        84.96114
802.29        85.02943
802.70        85.16409
803.11        85.28495
803.52        85.27086
803.93        85.11674
804.34         84.9063
804.75        84.66074
805.17        84.53278
805.58        84.61245
805.99        84.41649
806.40        84.11665
806.81          85.087
807.22        86.83585
807.63        86.80367
808.04        85.27522
808.45        84.93256
808.86        85.95117
809.27        86.80517
809.68        87.22421
810.09        87.48977
810.50        87.50255
810.91         87.1814
811.32        86.68579
811.73        86.23978
812.14        85.91602
812.55        85.79559
812.96        85.79243
813.37        85.47009
813.78         84.9298
814.19         84.8457
814.60        85.17265
815.01        85.32533
815.42        85.27389
815.83        85.32288
816.24        85.50376
816.65        85.70969
817.05        85.93343
817.46        86.14595
817.87         86.3129
818.28        86.33433
818.69        86.21557
819.10        85.99092
819.51        85.76127
819.92        85.77968
820.33        86.10879
820.74        86.45945
821.14        86.78083
821.55        87.43459
821.96        88.15308
822.37        87.88779
822.78        86.81878
823.19        86.23547
823.60        86.28117
824.00        86.28933
824.41        86.14721
824.82        86.11464
825.23        86.17519
825.64        86.28371
826.04        86.43346
826.45        86.55359
826.86        86.63857
827.27        86.69784
827.68        86.73898
828.08        86.81112
828.49        86.85554
828.90        86.88506
829.31        86.90198
829.72        86.91109
830.12        86.93294
830.53        86.94479
830.94        86.92558
831.35        86.80328
831.75        86.60409
832.16         86.3084
832.57        86.05064
832.97        86.03523
833.38        86.27225
833.79        86.68622
834.20         87.1313
834.60        87.37296
835.01        87.36958
835.42        87.20551
835.82        86.94291
836.23        86.62859
836.64        86.33562
837.04        86.03854
837.45        85.83942
837.86         85.9566
838.26        86.42792
838.67        87.16304
839.08        87.91412
839.48        88.19495
839.89        87.88724
840.29        87.17329
840.70        86.41505
841.11        86.06506
841.51        86.25162
841.92        86.76341
842.33        87.50449
842.73        88.30783
843.14        88.95388
843.54        89.56435
843.95        89.92126
844.35        89.76649
844.76         89.1069
845.17        88.05601
845.57        86.96686
845.98        86.41604
846.38        86.53097
846.79         87.1597
847.19        88.10461
847.60        88.81485
848.00        89.16196
848.41        89.21557
848.81        89.15694
849.22        89.18678
849.62        89.41373
850.03        89.68454
850.43        89.95826
850.84        90.04726
851.24        89.96793
851.65         89.7255
852.05         89.4463
852.46        89.20189
852.86        89.04169
853.27        88.95036
853.67        88.85182
854.07        88.83896
854.48        88.84785
854.88         88.7808
855.29        88.61352
855.69         88.6126
856.10        88.70338
856.50        88.84737
856.90        88.97496
857.31        89.06176
857.71        89.16517
858.12        89.22951
858.52        89.23754
858.92        89.04684
859.33        88.62881
859.73        88.07603
860.13        87.55151
860.54        87.37841
860.94        87.71574
861.34        88.39788
861.75        89.14547
862.15        89.60477
862.55        89.61476
862.96        89.31576
863.36        88.80772
863.76        88.22791
864.17        87.67695
864.57        87.14243
864.97        86.78695
865.38        86.84464
865.78        87.38569
866.18        88.28521
866.58        89.24329
866.99        89.69521
867.39        89.52826
867.79        88.86243
868.19        87.86364
868.60        86.79874
869.00        85.77283
869.40        84.75465
869.80        83.97554
870.21        83.80475
870.61        84.34695
871.01        85.45023
871.41        86.65022
871.81        87.18842
872.22        86.90028
872.62        86.01462
873.02        84.89977
873.42        84.28053
873.82        84.24534
874.22        84.32825
874.63         84.4853
875.03        84.73408
875.43        84.97355
875.83        85.72157
876.23        85.58711
876.63         85.3486
877.03        84.78613
877.44        83.89645
877.84        114.7091
878.24        84.33591
878.64        84.90064
879.04        86.60617
879.44        84.69843
879.84        83.38485
880.24        85.22683
880.64        84.94399
881.04         83.0221
881.44        81.79414
881.84        81.68484
882.24        82.34026
882.65        83.25509
883.05        83.59566
883.45        83.06211
883.85        82.08475
884.25        81.21532
884.65        81.11675
885.05        81.92787
885.45         83.4195
885.85        85.01495
886.25        85.75806
886.65        85.39835
887.05        84.23701
887.45        82.88213
887.85        82.24522
888.25         82.5527
888.65        83.55462
889.04        84.78754
889.44        85.35392
889.84        85.04768
890.24        84.14818
890.64        83.14306
891.04        82.74812
891.44        83.08713
891.84        83.87023
892.24        84.67902
892.64        84.81857
893.04        84.14501
893.44        83.02254
893.83        81.71999
894.23        80.63943
894.63        79.89892
895.03        79.35487
895.43        79.16727
895.83        79.62177
896.23        80.68163
896.63        82.22985
897.02        83.77547
897.42        84.39381
897.82        83.89095
898.22        82.56519
898.62        80.89612
899.01        79.63706
899.41        79.07422
899.81        78.97755
900.21        79.30287
900.61        79.97497
901.00        80.88374
901.40        82.02596
901.80        83.15234
902.20         83.8136
902.59         83.9013
902.99        83.48501
903.39        82.77312
903.79        82.15471
904.18        81.77133
904.58        81.57919
904.98        81.56497
905.38        81.70938
905.77        81.96841
906.17        82.36727
906.57        82.78995
906.96        83.06726
907.36        83.10696
907.76        82.91967
908.15         82.6022
908.55        82.27502
908.95        82.00782
909.34         81.8266
909.74        81.61128
910.14        81.17027
910.53        80.49244
910.93        79.70837
911.33        79.15816
911.72        79.37404
912.12        80.38641
912.52        81.93626
912.91         83.5229
913.31        84.30377
913.70         84.1432
914.10        83.25024
914.49        81.97476
914.89        81.07722
915.29        80.85802
915.68        81.09187
916.08        81.63046
916.47        82.22691
916.87        82.75455
917.26        83.26432
917.66        83.66026
918.05        83.81576
918.45        83.68657
918.84        83.36108
919.24         82.8088
919.64        82.01972
920.03        81.07635
920.42        80.03781
920.82        79.30666
921.21        79.42802
921.61        80.40617
922.00        82.09314
922.40        83.83247
922.79        84.77684
923.19        84.64017
923.58        83.54848
923.98        81.89615
924.37        80.79996
924.77        80.74955
925.16        79.43179
925.55        80.42957
925.95        80.43822
926.34        80.50951
926.74        80.63212
927.13        80.93347
927.52        81.44781
927.92        82.13332
928.31        82.97829
928.70        83.78878
929.10        84.27075
929.49        84.34314
929.89        84.07098
930.28        83.66482
930.67        83.46701
931.07        83.55255
931.46        83.87658
931.85        84.26237
932.24        84.45706
932.64        84.38761
933.03        84.09232
933.42        83.68293
933.82        83.41427
934.21        83.32722
934.60        83.36103
934.99        83.25628
935.39        82.78397
935.78        81.92667
936.17        80.46812
936.56        78.56636
936.96        78.87068
937.35        78.36496
937.74        79.42153
938.13        80.63234
938.53        81.62835
938.92        82.35989
939.31        82.96133
939.70        83.41554
940.09        83.57965
940.49        83.45351
940.88        83.10184
941.27        82.73188
941.66        82.69594
942.05        83.05453
942.44        83.68572
942.84         84.4623
943.23        85.18916
943.62        85.74063
944.01        86.19701
944.40        86.41638
944.79        86.18214
945.18        85.47153
945.57        84.27678
945.97        83.01223
946.36         82.4308
946.75        82.76568
947.14        83.81157
947.53        84.92364
947.92        85.18005
948.31        84.44241
948.70        82.99267
949.09        81.41724
949.48        80.74561
949.87        81.25312
950.26        82.58979
950.65        84.18378
951.04        85.08886
951.43        85.01254
951.82        84.26131
952.21         83.1739
952.60        82.29057
952.99        81.81251
953.38        81.56207
953.77        81.49358
954.16        81.55447
954.55        81.69341
954.94        81.96365
955.33        82.27771
955.72        82.44877
956.11        82.44269
956.50        82.29613
956.89        82.08791
957.28        82.00853
957.66        82.11743
958.05         82.2584
958.44        82.44177
958.83        82.67741
959.22        82.93642
959.61        83.25486
960.00        83.38894
960.39        82.90945
960.78        81.78776
961.16        80.17115
961.55        78.63655
961.94        77.93296
962.33        78.21146
962.72        79.25867
963.11        80.58164
963.49        81.33076
963.88         81.1477
964.27        80.31478
964.66        79.22475
965.04        78.54031
965.43        78.45805
965.82        78.79461
966.21        79.30963
966.60        79.62195
966.98        79.63673
967.37        79.46865
967.76        79.34593
968.15        79.58974
968.53        80.26445
968.92        81.13519
969.31        81.95965
969.69        82.35556
970.08        82.15812
970.47        81.54615
970.86        80.65336
971.24        79.66469
971.63        78.75327
972.02        77.92436
972.40        77.31181
972.79        77.13474
973.17        77.46336
973.56        78.12247
973.95        79.05148
974.33        80.08842
974.72        80.97379
975.11        81.71595
975.49        82.04478
975.88        81.56921
976.26        80.31096
976.65         78.4715
977.04        76.50246
977.42        75.20084
977.81        74.83179
978.19         75.1887
978.58        76.10499
978.96        77.29833
979.35        78.49355
979.74        79.85239
980.12        81.05519
980.51        81.26937
980.89        80.51993
981.28        78.99583
981.66        77.46107
982.05          77.064
982.43        77.94051
982.82        79.73705
983.20        81.90305
983.59        83.09326
983.97        82.98109
984.35        81.84798
984.74        80.27208
985.12        79.07102
985.51        78.50246
985.89        78.37051
986.28        78.42653
986.66        78.39887
987.04        78.09444
987.43        77.73473
987.81        77.38428
988.20        77.12482
988.58         76.9193
988.96        76.70574
989.35        76.33234
989.73        75.75895
990.12        75.00919
990.50        74.37152
990.88        73.93946
991.27        73.73989
991.65        73.83045
992.03        74.15454
992.42         74.8149
992.80         75.9304
993.18        77.38153
993.56        78.96785
993.95        80.26321
994.33        81.04469
994.71        81.15614
995.10        80.68922
995.48        79.93643
995.86        79.28872
996.24         78.9082
996.63         78.8017
997.01        78.78966
997.39        78.43472
997.77        77.65607
998.15        76.60007
998.54        75.89047
998.92        76.21527
999.30        77.73526
999.68        80.59769
1000.06        83.83801
1000.45        84.22179
1000.83         80.7931
1001.21        75.24143
1001.59        70.31846
1001.97         68.1106
1002.35        68.43337
1002.73        70.64827
1003.12        73.78118
1003.50        75.65559
1003.88        75.04262
1004.26        72.67271
1004.64        69.61346
1005.02        67.32632
1005.40        66.23983
1005.78        65.88384
1006.16        66.17192
1006.54         66.9557
1006.92        67.88873
1007.30        68.86364
1007.69        69.64863
1008.07        70.13445
1008.45        70.31564
1008.83        70.34246
1009.21        69.84262
1009.59        68.05524
1009.97        64.86163
1010.35        60.64275
1010.73        57.89346
1011.11        59.34189
1011.49        64.58591
1011.86         72.4322
1012.24        79.29246
1012.62        81.55177
1013.00        79.07565
1013.38           73.33
1013.76        66.60002
1014.14        62.92017
1014.52        63.49466
1014.90        67.06312
1015.28        71.74023
1015.66        74.35567
1016.04        73.79345
1016.41        70.97181
1016.79        66.50775
1017.17        62.58699
1017.55        60.62158
1017.93        59.84988
1018.31        60.10133
1018.69        61.31419
1019.06        63.26768
1019.44        66.02065
1019.82        68.79269
1020.20        69.38821
1020.58        66.95126
1020.95        62.01206
1021.33        56.00712
1021.71        50.18371
1022.09        44.22174
1022.46        35.92559
1022.84        25.75396
1023.22        24.04688
1023.60        35.03162
1023.97        46.98707
1024.35         53.8486
1024.73         56.7921
