SpectraSmart Spectrum 2.9.0.0
--------- Device Information -----------
Spectrum Name :  反射率_0
Saving Time :  2024/04/20 00:46:15
Spectro-Module Model Name : SE2030-DUVN
Spectro-Module Serial Number : OS361AC55029948
Wavelength Start : 200
Wavelength End : 1025
Wavelength Unit : Wavelength(nm)
Spectrum Unit : Reflectance(%)
-----------Spectrum Setting ------------
Integration Time : 30ms
Average : 10
Boxcar : 0
Background removal :  enabled
linearity correction :  enabled
SC :  disabled
Intensity correction :  disabled
DWT denoise :  enabled
savitzky-golay :  disabled
FFT :  disabled
Running average :  disabled
Kalman :  disabled
High pass :  disabled
---------------BEGIN--------------------
Wavelength(nm)             Reflectance(%)
200.29               0
200.75        55.50692
201.21         60.3799
201.67        68.56035
202.13        76.81973
202.58        82.95174
203.04        87.25479
203.50        88.58379
203.96        85.60391
204.42        80.19012
204.88        74.22212
205.34        69.41691
205.80        66.24689
206.26        64.02624
206.72        62.23905
207.18        61.07859
207.64        61.65978
208.10        64.49592
208.55        68.73958
209.01        71.88469
209.47        73.03268
209.93        72.49874
210.39        70.84052
210.85         68.5403
211.31        65.98641
211.77        63.04644
212.23        59.14333
212.69        54.83582
213.14        53.26043
213.60        55.18969
214.06        59.19746
214.52        62.77877
214.98        64.59985
215.44        64.97347
215.90        64.13548
216.36        63.15551
216.81        64.28012
217.27        67.90015
217.73        73.15459
218.19         77.4734
218.65        77.51874
219.11        72.75909
219.57        63.61625
220.02        52.75356
220.48        47.35766
220.94        49.89923
221.40        58.90587
221.86        69.47735
222.32        74.03712
222.77        70.96135
223.23        63.06904
223.69        54.63017
224.15        51.66804
224.61         54.4227
225.06        59.70955
225.52        64.59939
225.98         66.6953
226.44          65.948
226.90        63.42094
227.36        60.24467
227.81        58.27468
228.27        58.37315
228.73        59.64484
229.19        61.14058
229.65        61.80612
230.10        61.51206
230.56        60.78596
231.02        60.13292
231.48        60.17978
231.93        60.90371
232.39        62.05137
232.85        63.07779
233.31        63.21953
233.77        62.33335
234.22        60.67366
234.68        58.76682
235.14        57.45336
235.60        57.01901
236.05        57.23782
236.51        57.74981
236.97        57.96477
237.43        57.69658
237.88        57.21795
238.34        56.48203
238.80        56.05529
239.26        56.25581
239.71        56.86022
240.17        57.68446
240.63         58.9433
241.08        60.67437
241.54        62.83369
242.00        64.70296
242.46        64.83379
242.91        62.52527
243.37        56.90185
243.83        48.51633
244.28        43.44863
244.74        47.39462
245.20         59.0654
245.66        70.17438
246.11        73.48641
246.57        68.20351
247.03         54.7272
247.48        35.92834
247.94        29.31338
248.40        38.06157
248.85        49.94002
249.31        58.89545
249.77        63.69786
250.22        65.56467
250.68        66.02099
251.14        65.38594
251.59        63.90215
252.05        62.09417
252.51        59.85071
252.96        57.54834
253.42        56.30595
253.88        56.42732
254.33        57.60574
254.79        60.06283
255.25        63.60677
255.70        67.76428
256.16        72.08846
256.62        75.53139
257.07        76.94094
257.53        76.55407
257.99        74.78725
258.44        72.17925
258.90        70.26845
259.35        68.89329
259.81        68.27048
260.27        67.65084
260.72        66.40099
261.18        64.80241
261.63        62.64133
262.09        60.79888
262.55        59.93095
263.00        59.93629
263.46        60.62202
263.91        60.96215
264.37        60.07514
264.83        57.97598
265.28        55.05872
265.74        52.46326
266.19        51.29472
266.65        51.70964
267.11        53.07634
267.56        54.52213
268.02        54.82264
268.47        53.74627
268.93        51.71894
269.38        49.29008
269.84        47.58833
270.30        46.91649
270.75        46.94624
271.21        47.21224
271.66        47.00894
272.12        46.15718
272.57        44.88845
273.03        43.57218
273.48        42.66743
273.94        42.32521
274.39        42.31807
274.85        42.35488
275.31        41.98383
275.76        41.10836
276.22        39.92571
276.67        38.70419
277.13        37.95526
277.58        37.69504
278.04        37.77991
278.49        37.84201
278.95         37.4512
279.40         36.5082
279.86        35.28433
280.31        34.00643
280.77        33.14219
281.22        32.70443
281.68        32.56591
282.13        32.52835
282.59        32.35738
283.04        31.97655
283.50        31.51305
283.95        31.00327
284.41        30.53805
284.86         30.1276
285.32         29.7693
285.77        29.47698
286.22         29.3524
286.68        29.38934
287.13        29.51952
287.59        29.66481
288.04        29.67573
288.50        29.53988
288.95        29.26718
289.41        28.92067
289.86        28.51881
290.32        28.14084
290.77        27.78279
291.22        27.50925
291.68         27.3804
292.13        27.40716
292.59        27.58588
293.04        27.90288
293.50        28.34781
293.95        28.88932
294.40        29.51676
294.86        30.16792
295.31        30.75743
295.77        31.27356
296.22        31.73797
296.68        32.21339
297.13         32.7849
297.58        33.48239
298.04        34.27997
298.49        35.13611
298.95        36.02763
299.40        36.91302
299.85        37.78767
300.31        38.62774
300.76        39.38896
301.21        40.06563
301.67        40.69961
302.12        41.26398
302.58         41.7935
303.03         42.2816
303.48        42.75068
303.94        43.29079
304.39        43.98904
304.84        44.85463
305.30        45.83316
305.75        46.77225
306.20        47.47054
306.66          47.903
307.11        48.11022
307.57        48.20983
308.02        48.29683
308.47        48.43933
308.93        48.60361
309.38        48.78569
309.83        49.04069
310.29        49.35707
310.74        49.72155
311.19        50.02925
311.65        50.10438
312.10        49.91208
312.55        49.50628
313.00        49.03892
313.46        48.74657
313.91        48.66678
314.36        48.75097
314.82        48.86432
315.27        48.81232
315.72        48.53802
316.18        48.12891
316.63        47.68881
317.08        47.38877
317.53        47.26305
317.99        47.23558
318.44        47.23538
318.89         47.1383
319.35         46.9034
319.80        46.57594
320.25        46.17904
320.70        45.74959
321.16        45.30634
321.61         44.8485
322.06        44.39857
322.51         44.0012
322.97        43.65867
323.42        43.37238
323.87        43.11037
324.32        42.82169
324.78        42.48029
325.23        42.11057
325.68        41.70674
326.13        41.27212
326.59        40.81837
327.04        40.37651
327.49        39.96601
327.94        39.62578
328.39        39.36042
328.85        39.12972
329.30        38.97618
329.75        38.90418
330.20        38.89758
330.66        38.93026
331.11        38.92455
331.56        38.69583
332.01        38.21358
332.46        37.52214
332.92        36.77472
333.37        36.26089
333.82        36.06436
334.27        36.13236
334.72         36.3191
335.17        36.36061
335.63         36.1653
336.08        35.81916
336.53         35.4504
336.98        35.29067
337.43        35.39234
337.88        35.66987
338.34         35.9434
338.79        35.97741
339.24        35.69325
339.69        35.16975
340.14        34.58464
340.59        34.23267
341.05        34.18243
341.50        34.35119
341.95         34.5748
342.40        34.59919
342.85        34.36365
343.30        33.96215
343.75        33.50811
344.20        33.18186
344.66        33.03367
345.11        32.97885
345.56         32.9776
346.01        32.96657
346.46        32.91332
346.91        32.85481
347.36        32.73968
347.81        32.47874
348.26        32.07977
348.72         31.5935
349.17        31.12467
349.62        30.92419
350.07        31.04194
350.52        31.39073
350.97        31.82021
351.42        32.10369
351.87        32.17266
352.32        32.08178
352.77        31.88166
353.22        31.65989
353.67        31.45321
354.13        31.24893
354.58        31.02514
355.03        30.79182
355.48        30.56067
355.93        30.35771
356.38        30.19989
356.83         30.1015
357.28        30.05767
357.73        30.04362
358.18        30.04964
358.63        30.06399
359.08         30.0676
359.53        30.05712
359.98        29.97921
360.43        29.75455
360.88        29.38381
361.33         28.9024
361.78        28.40901
362.23        28.06726
362.68        27.91567
363.13        27.89993
363.58        27.93976
364.03        27.90537
364.48        27.75394
364.93        27.52361
365.38        27.22703
365.83        26.89175
366.28        26.54204
366.73        26.16862
367.18        25.81587
367.63        25.55505
368.08        25.39603
368.53        25.32631
368.98        25.28379
369.43        25.16217
369.88        24.94154
370.33        24.65662
370.78        24.36493
371.23        24.16899
371.68        24.09748
372.13        24.10702
372.58        24.16693
373.03        24.22883
373.48        24.25871
373.93        24.26128
374.38        24.20128
374.83        24.02417
375.28        23.72926
375.72        23.33081
376.17        22.90911
376.62        22.55563
377.07        22.31219
377.52        22.16567
377.97        22.10505
378.42        22.10518
378.87        22.14298
379.32         22.2098
379.77        22.28604
380.22        22.34252
380.67        22.36609
381.11        22.36167
381.56        22.29568
382.01        22.14047
382.46        21.90047
382.91        21.58677
383.36        21.27629
383.81        21.08144
384.26        21.02421
384.71         21.0865
385.15         21.1663
385.60        21.10828
386.05        20.88342
386.50         20.5368
386.95         20.2011
387.40        20.08642
387.85        20.22283
388.29        20.52454
388.74        20.83214
389.19         20.9131
389.64        20.72473
390.09        20.33911
390.54        19.89999
390.98        19.62923
391.43        19.60271
391.88        19.73851
392.33        19.90778
392.78        19.92667
393.23        19.76628
393.67          19.481
394.12        19.21587
394.57        19.10218
395.02        19.16546
395.47        19.35939
395.91        19.57974
396.36        19.62607
396.81        19.46031
397.26        19.14313
397.71        18.82059
398.15        18.69069
398.60        18.80596
399.05        19.08033
399.50        19.36488
399.95        19.44789
400.39        19.28709
400.84        18.94428
401.29        18.55616
401.74        18.37119
402.18        18.46429
402.63          18.747
403.08        19.06176
403.53        19.16047
403.97        18.98958
404.42         18.6447
404.87        18.26712
405.32        18.08469
405.76        18.15187
406.21        18.38612
406.66        18.67275
407.11        18.83733
407.55        18.83099
408.00        18.71172
408.45        18.53696
408.90        18.35773
409.34        18.22842
409.79        18.21667
410.24        18.26611
410.68         18.2151
411.13        18.05502
411.58        17.87574
412.03        17.72125
412.47        17.63895
412.92         17.6433
413.37        17.70775
413.81        17.81571
414.26        17.95698
414.71        18.10995
415.15        18.28327
415.60        18.40749
416.05         18.3996
416.49        18.24522
416.94        17.97351
417.39        17.67675
417.83        17.50628
418.28        17.50475
418.73        17.62444
419.17        17.78308
419.62        17.83791
420.07        17.75918
420.51        17.59314
420.96         17.4041
421.41        17.27209
421.85        17.21443
422.30        17.21223
422.74        17.23564
423.19        17.27134
423.64        17.30171
424.08        17.34503
424.53        17.37203
424.98        17.36026
425.42        17.31132
425.87        17.23251
426.31         17.1455
426.76         17.0945
427.21        17.07822
427.65        17.07618
428.10        17.09508
428.54        17.11878
428.99        17.14524
429.44        17.25755
429.88        17.37156
430.33         17.2387
430.77         16.9245
431.22        16.76367
431.66        16.80076
432.11        16.91122
432.56        17.06672
433.00        17.34671
433.45        17.57399
433.89        17.49132
434.34        17.21336
434.78        16.91548
435.23        16.59154
435.67        17.35919
436.12        16.79108
436.57        16.69475
437.01        16.42999
437.46        16.32219
437.90        16.38664
438.35        16.47732
438.79        16.54538
439.24        16.58629
439.68        16.58461
440.13        16.40804
440.57        16.16224
441.02        16.27774
441.46        16.60553
441.91         16.6309
442.35        15.97058
442.80        15.74701
443.24        15.79817
443.69        15.77509
444.13        15.65747
444.58        15.59138
445.02         15.5832
445.47        15.63405
445.91        15.70589
446.36        15.70201
446.80        15.60423
447.24        15.45975
447.69        15.31271
448.13        15.19646
448.58          15.132
449.02        15.10813
449.47        15.09796
449.91        15.05116
450.36        14.96449
450.80        14.85331
451.25        14.76142
451.69        14.73855
452.13        14.79681
452.58        14.90671
453.02        15.03119
453.47        15.11435
453.91        15.14176
454.36        15.12896
454.80        15.08576
455.24        15.03038
455.69         14.9792
456.13        14.90955
456.58        14.85118
457.02        14.83993
457.46        14.87734
457.91        14.92225
458.35        14.94829
458.79        14.95032
459.24        14.91971
459.68        14.85944
460.13        14.83928
460.57        14.82514
461.01        14.81004
461.46        15.18516
461.90        15.32487
462.34         15.1804
462.79         15.2473
463.23        15.03039
463.68         14.8199
464.12        14.69063
464.56        14.79003
465.01        14.98131
465.45        15.18276
465.89        15.29308
466.34        15.29562
466.78        15.17383
467.22        15.00893
467.67        15.03793
468.11        15.24065
468.55         15.2989
468.99        15.20727
469.44         15.2092
469.88        15.30677
470.32        15.35509
470.77        15.34157
471.21        15.32476
471.65        15.30705
472.10        15.27225
472.54        15.23749
472.98        15.26507
473.42        15.35892
473.87        15.45843
474.31        15.53697
474.75        15.64691
475.20        15.74794
475.64        15.67991
476.08        15.51378
476.52        15.49654
476.97        15.64605
477.41        15.85423
477.85        16.04504
478.29         16.1407
478.74        16.11996
479.18        15.98241
479.62        15.82591
480.06        15.80655
480.50        15.93153
480.95        16.07607
481.39        16.18507
481.83        16.25111
482.27        16.26297
482.72        16.22755
483.16        16.17345
483.60        16.16351
484.04        16.21246
484.48        16.31011
484.93        16.51045
485.37        16.68041
485.81        16.91015
486.25        17.31474
486.69        17.78524
487.14         17.2258
487.58        16.99721
488.02        17.96654
488.46        17.51943
488.90        17.72443
489.34        17.63468
489.79        17.74116
490.23         17.9922
490.67        18.16731
491.11        18.24709
491.55        18.19531
491.99         18.0635
492.43        18.02605
492.88         18.1137
493.32        18.20934
493.76        18.31964
494.20        18.51139
494.64        18.77921
495.08        19.09268
495.52         19.3985
495.96        19.63132
496.41        19.77647
496.85        19.81626
497.29        19.80371
497.73        19.91896
498.17        20.15447
498.61        20.28724
499.05        20.32349
499.49        20.47814
499.93        20.75707
500.37        20.98361
500.82        21.15189
501.26        21.42742
501.70        21.75353
502.14        21.83899
502.58        21.71801
503.02        21.69702
503.46        21.80042
503.90        21.86844
504.34        21.88561
504.78        21.89919
505.22        21.90956
505.66        21.91443
506.10        21.92736
506.54        21.96386
506.98        22.03045
507.42        22.12705
507.86        22.24718
508.30        22.37911
508.74        22.51337
509.18        22.64174
509.62         22.7677
510.06        22.89867
510.50        23.03308
510.94        23.17146
511.38        23.27861
511.82        23.29932
512.26         23.2297
512.70        23.08855
513.14        22.95057
513.58        22.92931
514.02        23.04025
514.46        23.25164
514.90         23.4808
515.34        23.53161
515.78        23.40878
516.22        23.22646
516.66        23.08449
517.10        22.80214
517.54        22.40913
517.98        22.98614
518.42        22.88834
518.86        23.14298
519.30        23.23956
519.74        23.34347
520.18        23.42369
520.62        23.40844
521.06        23.31172
521.50        23.13975
521.93        22.93979
522.37        22.79946
522.81        22.74211
523.25        22.74809
523.69        22.79085
524.13        22.82599
524.57        22.83488
525.01        22.82547
525.45        22.80292
525.89        22.77377
526.32        22.74067
526.76        22.70534
527.20        22.65224
527.64        22.56404
528.08        22.44123
528.52        22.28646
528.96        22.14657
529.40        22.09068
529.83        22.12534
530.27        22.23553
530.71        22.33757
531.15        22.29999
531.59        22.10353
532.03        21.79434
532.46        21.47669
532.90        21.33263
533.34        21.39052
533.78        21.58622
534.22        21.82124
534.66        21.94352
535.09        21.90964
535.53        21.77871
535.97        21.59818
536.41        21.43952
536.85        21.33293
537.28        21.26521
537.72        21.24752
538.16        21.23422
538.60         21.3238
539.04        21.42397
539.47        21.52969
539.91        21.63862
540.35         21.7553
540.79        21.69553
541.22        21.75996
541.66        21.82692
542.10        22.00598
542.54        21.93266
542.97        22.17647
543.41         22.3124
543.85        22.49187
544.29        22.66072
544.72        22.79742
545.16        22.93497
545.60        23.06606
546.04        23.11189
546.47        23.13413
546.91        23.37672
547.35        23.78074
547.79        24.04591
548.22        24.14319
548.66        24.18994
549.10        24.23565
549.53        24.43877
549.97        24.80349
550.41        24.88308
550.84        25.12869
551.28        25.29318
551.72         25.5246
552.15        25.75137
552.59        25.97194
553.03        26.19407
553.46        26.38335
553.90        26.51534
554.34        26.58654
554.77         26.6076
555.21        26.62344
555.65        26.69244
556.08        26.82251
556.52        26.99136
556.96        27.16704
557.39        27.33366
557.83        27.46936
558.27        27.51709
558.70        27.49696
559.14        27.49739
559.57        27.52322
560.01        27.56595
560.45        27.61251
560.88        27.60818
561.32        27.60775
561.75        27.68586
562.19        27.92393
562.63        28.05167
563.06        28.08468
563.50        28.10722
563.93        28.13701
564.37        28.26534
564.80        28.36304
565.24        28.50793
565.68        28.63314
566.11        28.75367
566.55        28.88428
566.98        28.96318
567.42        28.98513
567.85        29.31359
568.29        29.19888
568.72           29.53
569.16        30.00039
569.60        30.33095
570.03        30.47379
570.47        30.61004
570.90        30.61733
571.34        31.02826
571.77        30.83481
572.21        31.26611
572.64        31.39475
573.08        31.59164
573.51        31.56146
573.95        32.36982
574.38         32.3755
574.82        32.65213
575.25        32.77915
575.69        32.64311
576.12        32.61273
576.56        32.54778
576.99        32.63301
577.42        32.70799
577.86         32.8924
578.29        32.83706
578.73        33.51619
579.16        32.82634
579.60         32.4264
580.03        32.33978
580.47        32.52027
580.90        32.64227
581.33        32.22941
581.77        32.19502
582.20        32.58366
582.64        32.35852
583.07        31.89531
583.51        31.85199
583.94        31.37764
584.37        31.18285
584.81        30.86133
585.24        30.80436
585.68        30.84253
586.11        30.95207
586.54        30.72146
586.98        30.42447
587.41         30.4282
587.85        30.45234
588.28        30.53755
588.71        30.37248
589.15        30.06703
589.58        29.64807
590.01        29.84105
590.45        30.29839
590.88        30.26611
591.31        30.05762
591.75        29.50263
592.18        29.63379
592.61        29.77394
593.05        30.32659
593.48        29.93731
593.91        30.91283
594.35        30.33169
594.78        30.31871
595.21        30.86124
595.65        31.20162
596.08        31.00178
596.51        31.02452
596.94        31.13165
597.38        31.24562
597.81        31.42737
598.24        31.50657
598.68        32.28117
599.11        32.32399
599.54        33.49604
599.97        33.17555
600.41        33.49656
600.84        34.05236
601.27        34.51843
601.70        34.86885
602.14         35.1073
602.57        35.51665
603.00        36.15304
603.43        36.62315
603.87        36.91638
604.30        37.41541
604.73        38.10754
605.16        38.17334
605.60        38.77894
606.03        39.26407
606.46        39.76968
606.89        40.63567
607.32        40.99738
607.76        40.90664
608.19        41.47072
608.62         42.2358
609.05        42.21507
609.48        42.51546
609.92        42.83574
610.35        42.83155
610.78        44.09682
611.21        44.66558
611.64        44.39709
612.07        45.01342
612.50        45.30351
612.94        45.15034
613.37        45.74232
613.80        46.09111
614.23        46.54525
614.66        46.66351
615.09        47.04004
615.52        47.45865
615.96        47.99463
616.39        48.32797
616.82        48.48135
617.25        48.60131
617.68        48.76117
618.11        49.25383
618.54        49.79423
618.97        49.87274
619.40         49.5555
619.84        49.31771
620.27        49.48058
620.70         49.9375
621.13        50.59118
621.56        50.82445
621.99        50.73424
622.42        50.79736
622.85        51.09229
623.28        51.20479
623.71        51.10158
624.14        51.39423
624.57        51.14358
625.00        50.93508
625.43        51.25529
625.86        50.51562
626.29        50.53566
626.72         50.4724
627.15        50.34207
627.58        50.29224
628.01         50.0572
628.44        50.38298
628.87        49.83763
629.30        49.45655
629.73        48.98547
630.16         48.7665
630.59        48.60278
631.02         48.2082
631.45        47.74503
631.88         47.3102
632.31        46.96617
632.74        46.55105
633.17        46.05965
633.60        45.55296
634.03        45.03448
634.46        44.50068
634.89        43.96225
635.32        43.41784
635.75        42.88601
636.18        42.41474
636.61        41.99113
637.04        41.55081
637.47        41.08258
637.89        40.61512
638.32        40.15922
638.75        39.74646
639.18        39.38871
639.61        39.08631
640.04        38.80069
640.47        38.46639
640.90        38.07555
641.33        37.65138
641.76        37.26269
642.18        37.02429
642.61        36.95254
643.04        37.01088
643.47         37.1241
643.90        37.16821
644.33        37.11053
644.76        36.99223
645.18        36.86337
645.61        36.80814
646.04        36.85504
646.47        36.97704
646.90        37.16782
647.33        37.41753
647.75        37.71825
648.18        38.07478
648.61         38.4633
649.04        38.84361
649.47        39.21254
649.89        39.55905
650.32         39.9227
650.75        40.42684
651.18        41.06955
651.61         41.6677
652.03        42.22918
652.46         42.9799
652.89        43.83674
653.32           44.33
653.74        44.56799
654.17        45.00464
654.60        45.75201
655.03        46.95676
655.46        46.42482
655.88        48.71795
656.31        50.06584
656.74         57.6835
657.16        54.74539
657.59        50.35417
658.02        50.85418
658.45        51.28544
658.87        52.42897
659.30        52.72381
659.73        53.55169
660.15        54.13652
660.58        54.06488
661.01        54.10357
661.44        54.15306
661.86        54.51951
662.29        55.16124
662.72        55.92371
663.14        56.63992
663.57        56.85451
664.00        56.70353
664.42        56.82934
664.85        57.29564
665.27        57.74505
665.70          58.124
666.13        58.23961
666.55        58.62437
666.98        58.80357
667.41        58.96915
667.83        59.14614
668.26        59.33427
668.69        59.54801
669.11        59.77119
669.54         59.8917
669.96        59.89315
670.39        60.08408
670.82        60.20102
671.24        60.14018
671.67        60.55305
672.09        60.87563
672.52         61.2912
672.94        61.85077
673.37        61.75065
673.80        61.62874
674.22         61.3891
674.65        61.33982
675.07        61.54072
675.50        61.86122
675.92        62.20158
676.35        62.38221
676.77        62.36633
677.20        62.22101
677.62        62.03733
678.05        61.96478
678.47        62.04007
678.90        62.21813
679.32        62.45964
679.75        62.69177
680.17        62.87626
680.60        63.07917
681.02        63.28658
681.45         63.3116
681.87        63.22165
682.30        63.36552
682.72        63.68524
683.15        63.69278
683.57          63.449
684.00         63.3569
684.42        63.56168
684.85        63.78809
685.27        63.86073
685.70        64.10006
686.12        64.36629
686.54        64.56182
686.97        64.68188
687.39         64.4454
687.82        64.37852
688.24        64.38821
688.66        64.63985
689.09        64.48434
689.51        64.70782
689.94        64.71589
690.36        64.74751
690.78        64.71684
691.21        64.66064
691.63        64.74155
692.06        64.98023
692.48        65.11523
692.90         65.2151
693.33        65.69637
693.75         65.4557
694.17        65.42734
694.60         65.3202
695.02        65.19807
695.44        65.06331
695.87        65.08568
696.29        65.23685
696.71        65.06205
697.14        64.75433
697.56        65.16589
697.98        66.06678
698.41        66.65145
698.83        66.36127
699.25        66.06649
699.68        65.76022
700.10        65.92487
700.52        65.86115
700.94        66.17342
701.37        66.50553
701.79         66.7383
702.21        66.80369
702.64        66.64532
703.06        66.53361
703.48        66.55016
703.90        66.79886
704.33        66.94251
704.75        67.34021
705.17        67.41405
705.59        67.25926
706.01        66.94514
706.44        66.62296
706.86        66.50835
707.28        66.64957
707.70        66.99878
708.12        67.43228
708.55        67.71549
708.97        67.79976
709.39        67.80638
709.81        67.76863
710.23        67.70308
710.66        67.64076
711.08        67.58769
711.50        67.55965
711.92        67.59117
712.34        67.68784
712.76        67.85183
713.19        68.01904
713.61        68.13657
714.03        68.16368
714.45        68.10682
714.87        68.02683
715.29        68.06567
715.71        68.25316
716.13        68.37074
716.56        68.65861
716.98        68.79356
717.40        68.81915
717.82        68.75733
718.24        68.66972
718.66        68.64954
719.08        68.71617
719.50        68.83702
719.92        68.96502
720.34        69.02524
720.76        68.99995
721.19         68.9192
721.61         68.8204
722.03        68.72585
722.45        68.67444
722.87        68.64372
723.29         68.6599
723.71         68.7538
724.13        68.92585
724.55        69.17429
724.97        69.46804
725.39        69.68649
725.81        69.79034
726.23         69.9131
726.65         70.1256
727.07        69.90141
727.49        70.28731
727.91        70.43136
728.33        70.58614
728.75        70.63522
729.17        70.57278
729.59        70.42268
730.01         70.2258
730.43         70.1581
730.85        70.26311
731.27        70.33813
731.69        70.30383
732.10        70.88522
732.52        70.70576
732.94        70.84996
733.36        70.90858
733.78        70.91458
734.20        70.87711
734.62        70.80046
735.04        70.69429
735.46        70.72216
735.88        70.64332
736.30        70.57059
736.72        70.51166
737.13        70.77769
737.55        71.23712
737.97        71.56694
738.39         71.6726
738.81         71.5098
739.23        71.20966
739.65         71.2187
740.06        71.47765
740.48        71.62286
740.90        71.55017
741.32        71.27361
741.74        70.91724
742.16        70.82446
742.57        71.05577
742.99        71.37307
743.41        71.67575
743.83        71.87892
744.25        71.93311
744.67        71.84729
745.08        71.69389
745.50        71.56371
745.92          71.507
746.34        71.49739
746.75        71.49815
747.17        71.45493
747.59         71.3625
748.01        71.25587
748.42        71.19313
748.84        71.24672
749.26        71.44157
749.68        71.67507
750.09        71.90511
750.51        72.20021
750.93        72.46175
751.35        72.41938
751.76        72.14127
752.18        71.97065
752.60        71.92381
753.01        72.05064
753.43        71.94505
753.85        72.00858
754.27         72.1038
754.68        72.38038
755.10        72.78304
755.52        72.47485
755.93        72.65401
756.35        72.38821
756.77        72.15364
757.18        72.16074
757.60        72.50745
758.02        72.88931
758.43        73.07832
758.85        73.54362
759.26        73.93942
759.68        72.66494
760.10        72.88761
760.51        72.45206
760.93         72.4908
761.34        71.30759
761.76        72.46305
762.18        72.28069
762.59        71.90878
763.01        71.89152
763.42        72.30402
763.84        72.90249
764.26        73.15671
764.67        73.14729
765.09        72.93456
765.50        73.19045
765.92         73.8272
766.33        74.05776
766.75        73.75842
767.16        73.37566
767.58        72.98605
768.00        72.54823
768.41        72.26777
768.83        72.46449
769.24        73.02723
769.66        73.58739
770.07        73.93915
770.49        73.79142
770.90        73.33564
771.32        73.44688
771.73        74.05714
772.15        74.24335
772.56        73.97366
772.97        73.73257
773.39        73.55148
773.80        73.40356
774.22        73.24897
774.63        72.90301
775.05        72.49584
775.46        72.46547
775.88        72.83122
776.29        73.43922
776.70        74.02786
777.12        74.25208
777.53         74.0307
777.95         73.4272
778.36        72.73893
778.77        72.47231
779.19        72.74915
779.60        73.47179
780.02        74.26473
780.43        74.71535
780.84        74.71205
781.26        73.94548
781.67        72.90668
782.09        73.48222
782.50        75.25711
782.91        75.49113
783.33        74.26188
783.74        73.95668
784.15        74.62957
784.57        74.95829
784.98        74.81612
785.39        74.45303
785.81        73.97681
786.22        73.75311
786.63        73.81234
787.04        73.81312
787.46          73.763
787.87        73.90863
788.28        74.19816
788.70         74.3879
789.11        74.43385
789.52        74.40772
789.93        74.36075
790.35        74.35934
790.76        74.41978
791.17        74.51978
791.58        74.61857
792.00        74.54119
792.41        74.28472
792.82        74.24757
793.23        74.09774
793.65        73.80141
794.06         73.5342
794.47        73.78939
794.88        74.29172
795.29        75.60051
795.71        75.41576
796.12        74.68794
796.53        75.45636
796.94        74.89503
797.35        74.02327
797.76        73.68401
798.18        73.90955
798.59        74.09646
799.00        74.23526
799.41        73.91312
799.82        74.70208
800.23          74.893
800.64        74.92064
801.06        74.79845
801.47        74.67477
801.88        74.69722
802.29        74.88332
802.70        75.18114
803.11        75.44479
803.52         75.4452
803.93        75.15227
804.34        74.66782
804.75         74.1572
805.17        73.92702
805.58        74.07426
805.99        74.31389
806.40        74.59695
806.81        75.25355
807.22        75.97363
807.63        75.93796
808.04        75.08575
808.45        74.66486
808.86        74.84774
809.27        75.54822
809.68        76.51399
810.09        77.02389
810.50        76.91877
810.91        76.62434
811.32        76.27187
811.73        75.84804
812.14        75.41758
812.55        75.06336
812.96        74.80927
813.37        74.51428
813.78        74.27614
814.19        74.50165
814.60        75.02382
815.01        75.24245
815.42        75.09268
815.83           74.83
816.24        74.59418
816.65        74.54352
817.05        74.75327
817.46        75.12561
817.87        75.52795
818.28         75.7141
818.69        75.63825
819.10        75.37633
819.51        75.07372
819.92        75.02952
820.33        75.32574
820.74        75.73537
821.14        76.15234
821.55        76.66484
821.96        77.08527
822.37        76.83144
822.78        76.06571
823.19        75.64055
823.60         75.6685
824.00        75.73438
824.41        75.72003
824.82         75.7215
825.23         75.7132
825.64        75.69901
826.04        75.71214
826.45        75.75072
826.86        75.82571
827.27        75.91606
827.68        76.01793
828.08        76.15527
828.49        76.26671
828.90        76.38025
829.31        76.45261
829.72        76.41147
830.12        76.26956
830.53         76.0201
830.94        75.76332
831.35        75.61913
831.75        75.64043
832.16        75.75996
832.57        75.93491
832.97        76.06145
833.38         76.0796
833.79        76.00811
834.20        75.90563
834.60        75.85713
835.01        75.89837
835.42        76.01794
835.82         76.1198
836.23        75.99219
836.64         75.6298
837.04        75.09521
837.45        74.60703
837.86        74.55913
838.26        75.03918
838.67        75.90033
839.08        76.82815
839.48         77.2326
839.89        76.95694
840.29        76.21784
840.70        75.39495
841.11        74.97334
841.51        75.09049
841.92        75.52719
842.33         76.1778
842.73        76.86411
843.14        77.38267
843.54        77.86042
843.95        78.11509
844.35        77.92786
844.76        77.31113
845.17        76.36383
845.57        75.40265
845.98        74.94151
846.38        75.09489
846.79        75.72926
847.19        76.66125
847.60        77.39175
848.00        77.79408
848.41        77.91682
848.81        77.92579
849.22         78.0088
849.62        78.25926
850.03        78.53802
850.43        78.77625
850.84        78.76421
851.24        78.51769
851.65        78.07994
852.05        77.61524
852.46        77.27668
852.86        77.13294
853.27        77.09599
853.67        77.09947
854.07        77.30479
854.48        77.59676
854.88         77.7155
855.29        77.57515
855.69        77.45264
856.10        77.27827
856.50        76.96089
856.90        76.55712
857.31        76.31585
857.71        76.36542
858.12        76.57658
858.52        76.87045
858.92        77.00309
859.33        76.89765
859.73        76.66251
860.13        76.38036
860.54        76.22158
860.94        76.30434
861.34        76.51943
861.75        76.74481
862.15        76.88768
862.55        76.87361
862.96        76.78614
863.36        76.64908
863.76        76.46548
864.17        76.26161
864.57         76.0456
864.97        75.94676
865.38        76.15564
865.78        76.73427
866.18        77.55236
866.58        78.33887
866.99        78.60851
867.39        78.27209
867.79        77.44981
868.19        76.31973
868.60        75.15621
869.00         74.0587
869.40         73.0127
869.80        72.22146
870.21        71.99641
870.61        72.43345
871.01        73.41059
871.41        74.52119
871.81        75.09861
872.22        75.00535
872.62        74.42284
873.02         73.6514
873.42        73.38858
873.82         73.6175
874.22        73.70184
874.63        73.71092
875.03        73.88013
875.43        74.16553
875.83        75.36638
876.23        75.03374
876.63        74.43468
877.03        73.16359
877.44        71.29107
877.84        126.4674
878.24        71.66575
878.64        72.69333
879.04        75.87453
879.44        72.69185
879.84        70.83499
880.24        74.63831
880.64         74.8098
881.04        72.24434
881.44        70.65027
881.84        70.59612
882.24        71.50056
882.65         72.7816
883.05        73.32896
883.45        72.78381
883.85        71.77036
884.25        70.84334
884.65        70.57516
885.05        71.12127
885.45        72.27725
885.85        73.57056
886.25         74.2312
886.65        74.04326
887.05        73.23894
887.45        72.29223
887.85        71.91315
888.25        72.26851
888.65         73.1531
889.04        74.16083
889.44        74.51648
889.84         74.0611
890.24        73.05377
890.64        71.95621
891.04        71.44073
891.44         71.6306
891.84         72.2687
892.24        72.99645
892.64        73.20701
893.04        72.75879
893.44        71.95478
893.83        70.98741
894.23        70.14552
894.63        69.52135
895.03        68.99464
895.43        68.73949
895.83        69.06462
896.23        69.96223
896.63        71.33519
897.02        72.71418
897.42        73.22583
897.82        72.69047
898.22        71.38411
898.62          69.827
899.01        68.83208
899.41        68.64952
899.81        69.00913
900.21        69.69974
900.61        70.39595
901.00        70.95415
901.40        71.45693
901.80        71.85373
902.20        72.02851
902.59        71.97779
902.99        71.70325
903.39        71.28751
903.79        70.89648
904.18        70.59904
904.58        70.41701
904.98        70.40871
905.38         70.6574
905.77        71.14237
906.17        71.83232
906.57        72.54433
906.96        73.01752
907.36        73.13262
907.76        72.92511
908.15        72.56243
908.55        72.27801
908.95        72.15832
909.34        72.18389
909.74        72.14555
910.14        71.68147
910.53        70.75377
910.93        69.58004
911.33        68.59643
911.72        68.48249
912.12        69.30582
912.52        70.74837
912.91        72.32162
913.31        73.19428
913.70        73.20438
914.10        72.57526
914.49        71.49743
914.89        70.46839
915.29        69.74252
915.68        69.21461
916.08        68.99247
916.47        69.19382
916.87        69.74636
917.26        70.60627
917.66        71.50507
918.05        72.02204
918.45        72.01841
918.84        71.64954
919.24        70.99634
919.64        70.23083
920.03        69.47152
920.42        68.69424
920.82        68.17908
921.21        68.30672
921.61        69.05854
922.00        70.36951
922.40        71.70016
922.79        72.39008
923.19        72.25776
923.58        71.28374
923.98        69.80487
924.37        69.12641
924.77        69.73328
925.16        68.10961
925.55         69.8773
925.95        70.00558
926.34        70.12766
926.74        70.16586
927.13        70.27547
927.52        70.48261
927.92        70.75791
928.31        71.15378
928.70        71.48921
929.10        71.50517
929.49        71.15767
929.89        70.51007
930.28        69.91843
930.67        69.94541
931.07         70.6521
931.46        71.90191
931.85         73.1604
932.24        73.63215
932.64        73.13718
933.03        71.82182
933.42        70.17379
933.82        69.21521
934.21        69.23631
934.60        69.93011
934.99        70.61096
935.39         70.6088
935.78        69.81622
936.17        67.94591
936.56        65.24068
936.96        65.89177
937.35        64.97456
937.74        66.37093
938.13        67.88837
938.53        69.03341
938.92        69.73483
939.31        70.21246
939.70        70.54676
940.09        70.69819
940.49          70.711
940.88        70.59563
941.27         70.5061
941.66         70.7344
942.05        71.30649
942.44        72.09026
942.84        72.96277
943.23        73.72342
943.62         74.2454
944.01        74.62363
944.40        74.66138
944.79        74.04382
945.18        72.76363
945.57        70.87924
945.97        69.01402
946.36        68.26569
946.75        68.96026
947.14        70.71378
947.53        72.67394
947.92        73.66052
948.31        73.44612
948.70        72.37938
949.09        70.95627
949.48        70.05349
949.87        69.96198
950.26        70.39937
950.65        71.05637
951.04        71.43716
951.43        71.37383
951.82        71.05389
952.21        70.63403
952.60        70.32932
952.99        70.20824
953.38        70.17227
953.77        70.14433
954.16        70.02804
954.55        69.80061
954.94        69.52451
955.33        69.25543
955.72        69.05975
956.11        68.97797
956.50        69.00734
956.89        69.14308
957.28        69.37424
957.66         69.6739
958.05        69.92701
958.44        70.15577
958.83        70.39852
959.22        70.64436
959.61        70.90237
960.00          70.955
960.39        70.44187
960.78        69.34061
961.16        67.77411
961.55        66.28349
961.94         65.5519
962.33        65.72836
962.72        66.66671
963.11        67.85766
963.49        68.41615
963.88        68.02106
964.27        66.94561
964.66        65.77438
965.04        65.48426
965.43        66.28107
965.82        67.83179
966.21        69.51761
966.60        70.34673
966.98        70.08397
967.37        69.05408
967.76         67.7869
968.15        67.10104
968.53        67.24683
968.92        67.86707
969.31        68.69815
969.69         69.3112
970.08        69.47174
970.47        69.35886
970.86        68.95336
971.24        68.16889
971.63        67.11044
972.02        65.83065
972.40        64.54588
972.79        63.67291
973.17        63.37477
973.56        63.48087
973.95        64.00668
974.33        64.90844
974.72        65.94515
975.11         67.0788
975.49        67.93132
975.88        67.92784
976.26        67.01624
976.65        65.42663
977.04        63.56371
977.42        62.16652
977.81         61.5197
978.19        61.41608
978.58        61.84363
978.96        62.75623
979.35        63.96824
979.74        65.59824
980.12         67.1833
980.51        67.63116
980.89        66.87581
981.28        65.17616
981.66        63.42426
982.05        62.90703
982.43        63.79531
982.82        65.66262
983.20        67.87438
983.59        68.97104
983.97        68.58248
984.35        67.06774
984.74        65.05935
985.12        63.43343
985.51         62.4813
985.89        61.92723
986.28        61.62814
986.66        61.42893
987.04        61.20623
987.43        61.14211
987.81        61.06906
988.20         60.7082
988.58        59.94792
988.96        58.69306
989.35        57.18434
989.73        56.30192
990.12        56.49569
990.50        57.58595
990.88         58.8391
991.27         59.3825
991.65        59.26249
992.03        58.72476
992.42        58.25737
992.80         58.7139
993.18        60.29313
993.56        62.44691
993.95         64.6336
994.33        66.55435
994.71        67.90269
995.10        68.79226
995.48        69.11874
995.86        68.62267
996.24        67.32662
996.63        65.30717
997.01        62.83643
997.39        60.88798
997.77        60.03366
998.15         60.0379
998.54        60.68609
998.92        61.70441
999.30        63.01361
999.68        64.91782
1000.06        66.69337
1000.45        66.13342
1000.83        62.84392
1001.21        58.11827
1001.59        54.04172
1001.97        52.13117
1002.35        52.18749
1002.73        53.76401
1003.12        56.20018
1003.50        57.88424
1003.88        57.89523
1004.26        56.70657
1004.64        54.96385
1005.02        53.60328
1005.40        52.90569
1005.78        52.50849
1006.16        52.39875
1006.54        52.63341
1006.92        53.03944
1007.30        53.51716
1007.69        53.78828
1008.07        53.67443
1008.45        53.00879
1008.83        51.78217
1009.21        49.60098
1009.59        46.26155
1009.97        42.41261
1010.35        38.70832
1010.73        36.94784
1011.11        38.63667
1011.49        43.19687
1011.86        49.84666
1012.24        55.68001
1012.62        58.03197
1013.00        56.81036
1013.38        53.13998
1013.76        48.59251
1014.14        45.97075
1014.52        46.12158
1014.90        48.05989
1015.28        50.80647
1015.66        52.72727
1016.04        53.16526
1016.41        52.76108
1016.79        51.11583
1017.17        47.78927
1017.55        43.58797
1017.93        39.19616
1018.31        36.07187
1018.69        35.58197
1019.06        37.47391
1019.44        41.13379
1019.82        45.59778
1020.20        48.08189
1020.58        47.24789
1020.95        43.92509
1021.33        38.94709
1021.71        32.64251
1022.09        24.11473
1022.46        8.984888
1022.84       -12.66251
1023.22       -18.51155
1023.60        2.673958
1023.97        26.77565
1024.35        40.32875
1024.73        44.33675
