SpectraSmart Spectrum 2.9.0.0
--------- Device Information -----------
Spectrum Name :  反射率_0
Saving Time :  2024/04/19 23:51:10
Spectro-Module Model Name : SE2030-DUVN
Spectro-Module Serial Number : OS361AC55029948
Wavelength Start : 200
Wavelength End : 1025
Wavelength Unit : Wavelength(nm)
Spectrum Unit : Reflectance(%)
-----------Spectrum Setting ------------
Integration Time : 30ms
Average : 10
Boxcar : 0
Background removal :  enabled
linearity correction :  enabled
SC :  disabled
Intensity correction :  disabled
DWT denoise :  enabled
savitzky-golay :  disabled
FFT :  disabled
Running average :  disabled
Kalman :  disabled
High pass :  disabled
---------------BEGIN--------------------
Wavelength(nm)             Reflectance(%)
200.29               0
200.75        62.16468
201.21        67.72725
201.67        76.74507
202.13        86.67151
202.58        95.54644
203.04        103.4253
203.50        107.6354
203.96        103.8611
204.42        94.47669
204.88        83.81877
205.34         75.2504
205.80        69.74032
206.26        66.08118
206.72        63.10326
207.18        61.00306
207.64        61.49057
208.10        65.49104
208.55        72.00886
209.01        76.89085
209.47        77.78242
209.93         75.3793
210.39        70.88842
210.85        66.19199
211.31         63.2799
211.77        62.38253
212.23        63.11692
212.69        65.30212
213.14        67.59187
213.60        68.45157
214.06        68.81547
214.52        69.39108
214.98        71.01244
215.44        73.73978
215.90        77.11069
216.36        80.96415
216.81        84.30571
217.27         86.1411
217.73        87.04808
218.19        86.33485
218.65        82.90147
219.11        76.78528
219.57        67.90924
220.02        58.77621
220.48        56.01039
220.94        61.67147
221.40          74.396
221.86        89.02499
222.32        97.65498
222.77        98.41227
223.23        93.86554
223.69        87.71376
224.15         85.3835
224.61        87.42593
225.06        91.21186
225.52        94.89674
225.98        96.85078
226.44         97.0392
226.90        96.26437
227.36         95.0535
227.81        94.09312
228.27        93.89198
228.73        93.93936
229.19        93.97356
229.65        93.71761
230.10        93.10956
230.56        92.60087
231.02        92.13417
231.48         91.7151
231.93        91.29964
232.39        90.87203
232.85        90.59987
233.31        90.86487
233.77        91.64063
234.22        92.78414
234.68        93.70467
235.14        93.30873
235.60        91.43337
236.05        88.51579
236.51        85.34808
236.97        83.02947
237.43        81.83131
237.88        81.70043
238.34        82.20411
238.80        82.86808
239.26        83.17413
239.71        83.27457
240.17        82.88722
240.63        82.11496
241.08        81.05708
241.54        79.52738
242.00        77.32774
242.46         73.9043
242.91        68.75288
243.37        60.72963
243.83        50.00868
244.28        42.12038
244.74        43.26748
245.20        53.35835
245.66        64.65093
246.11        69.84553
246.57        68.20924
247.03        60.62063
247.48        48.87576
247.94        44.58339
248.40        50.03362
248.85        57.37345
249.31        62.96955
249.77        66.27702
250.22         68.0274
250.68        69.14532
251.14        69.84288
251.59        70.02421
252.05        69.82099
252.51        69.30149
252.96        68.25605
253.42        66.77193
253.88        65.33018
254.33        64.31603
254.79        65.05958
255.25        68.50559
255.70        74.04356
256.16        80.48172
256.62        86.37403
257.07        90.15751
257.53        91.87144
257.99        92.02113
258.44        90.48268
258.90        88.13821
259.35        85.29579
259.81         83.0722
260.27        81.40925
260.72        80.24233
261.18        79.78941
261.63        79.42793
262.09        79.64588
262.55        80.44421
263.00        81.48719
263.46        82.78409
263.91        83.50803
264.37        83.18734
264.83        81.80988
265.28         79.6228
265.74        77.51622
266.19        76.13496
266.65        75.73378
267.11        75.89796
267.56        76.19209
268.02        76.02424
268.47        75.23282
268.93        74.07026
269.38        72.69976
269.84        71.58293
270.30         70.8261
270.75        70.27518
271.21        69.82718
271.66        69.29501
272.12        68.61425
272.57        67.82028
273.03        66.95988
273.48        65.98218
273.94        64.98439
274.39        63.94439
274.85         62.9512
275.31        62.02611
275.76        61.13935
276.22        60.31371
276.67        59.53285
277.13        58.94799
277.58        58.46687
278.04        58.11398
278.49        57.63678
278.95        56.82487
279.40        55.60419
279.86        54.19409
280.31        52.75564
280.77        51.73243
281.22         51.0981
281.68          50.777
282.13        50.54118
282.59        50.14994
283.04        49.50851
283.50        48.75084
283.95        47.93416
284.41        47.22777
284.86        46.62132
285.32         46.0973
285.77        45.58567
286.22        45.08327
286.68        44.59635
287.13        44.11451
287.59        43.65396
288.04        43.15533
288.50        42.64287
288.95         42.0787
289.41         41.5374
289.86        41.04334
290.32         40.6573
290.77        40.35196
291.22        40.10479
291.68        39.84568
292.13        39.55668
292.59        39.28032
293.04        39.08498
293.50        39.10947
293.95        39.35449
294.40        39.76503
294.86        40.22701
295.31        40.56883
295.77        40.74982
296.22        40.81877
296.68        40.84935
297.13        40.94622
297.58        41.15092
298.04        41.43122
298.49        41.75742
298.95        42.12876
299.40        42.50916
299.85        42.90088
300.31        43.27013
300.76        43.54817
301.21        43.72865
301.67        43.85931
302.12        43.93225
302.58        44.01551
303.03        44.09876
303.48        44.19047
303.94         44.3423
304.39        44.58419
304.84        44.92116
305.30         45.3247
305.75        45.69276
306.20        45.90044
306.66        45.94343
307.11         45.8432
307.57        45.68442
308.02        45.51244
308.47        45.37789
308.93         45.2587
309.38        45.16631
309.83        45.17551
310.29        45.27755
310.74        45.45071
311.19        45.57536
311.65        45.45612
312.10        45.06126
312.55        44.45948
313.00        43.82125
313.46        43.40901
313.91        43.26529
314.36        43.32565
314.82        43.45068
315.27        43.43808
315.72         43.2171
316.18        42.86619
316.63         42.4624
317.08        42.13308
317.53        41.91082
317.99        41.74331
318.44        41.58986
318.89        41.37927
319.35        41.09384
319.80         40.7646
320.25        40.42705
320.70        40.13481
321.16        39.89429
321.61        39.68761
322.06        39.47957
322.51        39.21964
322.97        38.88813
323.42        38.51391
323.87        38.11011
324.32        37.70465
324.78        37.30674
325.23        36.92307
325.68        36.56001
326.13        36.23435
326.59        35.95113
327.04        35.73555
327.49        35.56791
327.94        35.41794
328.39        35.27314
328.85        35.11064
329.30        34.99197
329.75        34.96988
330.20        35.04537
330.66        35.17418
331.11        35.28609
331.56        35.21281
332.01        34.92117
332.46        34.45662
332.92        33.93171
333.37        33.55674
333.82        33.40065
334.27         33.4316
334.72        33.56006
335.17        33.62476
335.63         33.5605
336.08        33.41228
336.53        33.26668
336.98         33.2832
337.43        33.48664
337.88        33.82083
338.34        34.09521
338.79         34.0546
339.24        33.63511
339.69        32.92629
340.14        32.18419
340.59        31.83547
341.05        31.97208
341.50        32.46685
341.95         33.0628
342.40        33.36034
342.85        33.26106
343.30        32.90121
343.75        32.43577
344.20        32.11713
344.66        32.02122
345.11        32.03338
345.56        32.11458
346.01        32.20805
346.46        32.27118
346.91         32.3387
347.36        32.32921
347.81        32.10156
348.26        31.65996
348.72        31.08121
349.17        30.49659
349.62         30.2047
350.07        30.27602
350.52        30.60592
350.97        31.06434
351.42        31.45393
351.87        31.69671
352.32        31.83491
352.77        31.84451
353.22        31.69223
353.67        31.39623
354.13        30.98489
354.58        30.52521
355.03        30.17115
355.48        29.96792
355.93        29.89253
356.38         29.9047
356.83        29.92642
357.28        29.92351
357.73        29.90664
358.18         29.8727
358.63        29.81838
359.08        29.74011
359.53        29.63059
359.98        29.47506
360.43        29.25728
360.88        28.98297
361.33        28.66562
361.78        28.35144
362.23        28.11502
362.68        27.97003
363.13        27.88793
363.58        27.81972
364.03        27.68638
364.48        27.46231
364.93        27.17024
365.38        26.82363
365.83        26.45081
366.28        26.07808
366.73        25.70888
367.18        25.37472
367.63        25.12178
368.08        24.95511
368.53        24.86027
368.98        24.80614
369.43        24.73772
369.88        24.63761
370.33        24.52178
370.78        24.38501
371.23        24.22542
371.68        24.04873
372.13        23.84468
372.58        23.65996
373.03        23.57681
373.48        23.60099
373.93        23.70245
374.38        23.78797
374.83        23.71228
375.28        23.44904
375.72        23.03883
376.17        22.59399
376.62        22.25621
377.07        22.07714
377.52        22.01891
377.97        22.03831
378.42        22.06571
378.87        22.07108
379.32        22.06752
379.77        22.06356
380.22        22.06927
380.67        22.08223
381.11        22.09366
381.56        22.05962
382.01        21.93541
382.46        21.71518
382.91        21.41275
383.36         21.0996
383.81        20.87905
384.26         20.7743
384.71         20.7735
385.15        20.78295
385.60           20.66
386.05        20.38413
386.50        20.00162
386.95        19.65488
387.40        19.56731
387.85        19.76548
388.29         20.1521
388.74        20.55035
389.19        20.70527
389.64        20.56786
390.09        20.21568
390.54        19.78874
390.98         19.5062
391.43         19.4462
391.88        19.52659
392.33        19.64064
392.78        19.63474
393.23        19.48576
393.67        19.24619
394.12         19.0275
394.57        18.91387
395.02        18.92366
395.47        19.01612
395.91         19.1409
396.36        19.19288
396.81        19.14866
397.26         19.0354
397.71        18.90117
398.15        18.80167
398.60        18.77653
399.05        18.79839
399.50         18.8249
399.95        18.79596
400.39        18.69979
400.84        18.55081
401.29         18.4113
401.74        18.39404
402.18        18.52487
402.63        18.75437
403.08        18.97465
403.53        19.01428
403.97        18.84205
404.42        18.52601
404.87        18.18323
405.32        18.00724
405.76        18.04552
406.21        18.23583
406.66        18.48383
407.11        18.64097
407.55        18.66609
408.00        18.60745
408.45        18.51089
408.90        18.40695
409.34        18.33736
409.79        18.37058
410.24         18.4527
410.68        18.42669
411.13        18.28595
411.58        18.11967
412.03        17.96505
412.47         17.8598
412.92        17.81918
413.37        17.82209
413.81        17.87187
414.26        17.98655
414.71        18.15013
415.15        18.36643
415.60        18.54097
416.05        18.54737
416.49        18.36185
416.94        18.02586
417.39        17.66409
417.83        17.48081
418.28        17.52772
418.73        17.73553
419.17        17.98759
419.62        18.08848
420.07        17.99684
420.51        17.78098
420.96        17.52536
421.41        17.34013
421.85        17.25578
422.30        17.24426
422.74        17.27995
423.19          17.358
423.64        17.45698
424.08        17.59038
424.53        17.71033
424.98        17.75792
425.42        17.72218
425.87        17.62034
426.31          17.482
426.76        17.36637
427.21        17.28058
427.65        17.20009
428.10        17.15258
428.54        17.15648
428.99        17.21379
429.44        17.39788
429.88        17.58766
430.33        17.47661
430.77        17.12352
431.22        16.88557
431.66        16.83887
432.11        16.90922
432.56         17.0838
433.00         17.4308
433.45        17.74687
433.89        17.71942
434.34        17.44525
434.78        17.11811
435.23        16.76128
435.67        17.54088
436.12        17.01338
436.57        16.99969
437.01        16.81623
437.46        16.73033
437.90        16.74593
438.35        16.73878
438.79        16.70126
439.24        16.69059
439.68        16.70765
440.13        16.60068
440.57        16.44109
441.02        16.61496
441.46        16.95641
441.91        16.95215
442.35          16.239
442.80        15.99653
443.24        16.06405
443.69         16.0741
444.13        15.97942
444.58        15.88814
445.02        15.80199
445.47        15.74128
445.91        15.70164
446.36          15.638
446.80        15.54634
447.24        15.45788
447.69         15.3922
448.13        15.34482
448.58        15.32362
449.02        15.32481
449.47        15.33071
449.91        15.30627
450.36        15.25047
450.80        15.17036
451.25        15.09721
451.69        15.06357
452.13        15.08134
452.58        15.13173
453.02        15.19548
453.47         15.2423
453.91        15.26429
454.36        15.26951
454.80        15.25819
455.24        15.23104
455.69        15.19746
456.13         15.1395
456.58        15.08638
457.02        15.07395
457.46        15.10447
457.91        15.13384
458.35        15.14329
458.79        15.14025
459.24        15.11882
459.68        15.08225
460.13        15.08743
460.57        15.07742
461.01         15.0414
461.46        15.38029
461.90        15.48452
462.34        15.34566
462.79        15.47004
463.23        15.34532
463.68        15.22301
464.12        15.10758
464.56        15.13831
465.01         15.2034
465.45        15.27462
465.89        15.32332
466.34        15.34524
466.78        15.30066
467.22        15.23144
467.67         15.3139
468.11        15.50935
468.55        15.51204
468.99        15.34991
469.44        15.32103
469.88        15.43862
470.32         15.5375
470.77        15.57552
471.21        15.56738
471.65        15.50671
472.10        15.39685
472.54        15.27862
472.98        15.25085
473.42        15.32776
473.87        15.43301
474.31        15.53349
474.75        15.67239
475.20        15.80227
475.64        15.76635
476.08        15.61759
476.52         15.5762
476.97         15.6585
477.41        15.76364
477.85        15.84771
478.29        15.88854
478.74        15.87634
479.18        15.79165
479.62        15.69965
480.06         15.7053
480.50        15.80458
480.95         15.8933
481.39        15.92796
481.83        15.91955
482.27        15.86126
482.72        15.74657
483.16        15.62688
483.60        15.58506
484.04        15.63101
484.48        15.81665
484.93        16.12894
485.37        16.22757
485.81         16.2477
486.25        16.69993
486.69        16.85118
487.14        16.63768
487.58        16.63405
488.02        17.06377
488.46        16.59107
488.90        16.59912
489.34         16.6705
489.79        16.77035
490.23        16.85678
490.67        17.01205
491.11        17.17393
491.55        17.08591
491.99        16.80798
492.43        16.67807
492.88        16.74025
493.32        16.80637
493.76         16.8658
494.20        16.98202
494.64        17.14783
495.08        17.34133
495.52        17.54087
495.96        17.72492
496.41         17.8843
496.85        17.98789
497.29        18.04778
497.73        18.17179
498.17        18.33858
498.61         18.3619
499.05        18.27393
499.49         18.3126
499.93        18.49938
500.37        18.66594
500.82        18.80088
501.26        19.04074
501.70        19.32845
502.14        19.40854
502.58          19.308
503.02        19.29173
503.46        19.37901
503.90        19.42796
504.34        19.42247
504.78        19.40329
505.22        19.37288
505.66        19.33051
506.10         19.2995
506.54        19.31153
506.98        19.37471
507.42        19.48254
507.86        19.61474
508.30         19.7365
508.74        19.83297
509.18        19.90517
509.62        19.96463
510.06        20.03164
510.50        20.11151
510.94        20.20225
511.38        20.27576
511.82        20.28823
512.26         20.2352
512.70        20.13013
513.14        20.03333
513.58        20.03509
514.02        20.14428
514.46        20.33476
514.90        20.52953
515.34        20.54671
515.78        20.38871
516.22        20.17732
516.66        20.01745
517.10        19.72791
517.54        19.33839
517.98        19.97026
518.42        19.90275
518.86        20.18379
519.30        20.27944
519.74        20.36867
520.18        20.42734
520.62        20.39457
521.06        20.29018
521.50        20.11556
521.93        19.92315
522.37        19.80954
522.81        19.79543
523.25         19.8559
523.69        19.94897
524.13        20.00536
524.57        20.00305
525.01        19.96109
525.45        19.89531
525.89        19.83097
526.32        19.77742
526.76        19.72747
527.20        19.67522
527.64        19.61745
528.08        19.55243
528.52         19.4805
528.96         19.4136
529.40        19.36622
529.83        19.33907
530.27        19.33359
530.71        19.31861
531.15        19.24692
531.59        19.11621
532.03        18.94498
532.46        18.78386
532.90        18.72818
533.34        18.78562
533.78        18.92063
534.22         19.0742
534.66        19.15551
535.09        19.13741
535.53        19.05554
535.97        18.93667
536.41         18.8211
536.85        18.72936
537.28        18.66124
537.72        18.63208
538.16        18.60864
538.60        18.68032
539.04        18.76064
539.47        18.85072
539.91        18.95821
540.35        19.08563
540.79        19.06736
541.22        19.14945
541.66        19.19636
542.10         19.3003
542.54        19.15231
542.97        19.27309
543.41        19.32747
543.85        19.45779
544.29        19.60905
544.72        19.74701
545.16        19.87455
545.60        19.97894
546.04        19.99953
546.47        20.00113
546.91        20.21379
547.35        20.58734
547.79        20.84872
548.22        20.95868
548.66        20.99965
549.10        21.01085
549.53        21.13931
549.97        21.38984
550.41        21.37903
550.84        21.50376
551.28        21.55609
551.72        21.68441
552.15        21.86202
552.59         22.0903
553.03        22.36119
553.46        22.61623
553.90        22.78924
554.34        22.86459
554.77        22.86187
555.21        22.83082
555.65        22.84032
556.08        22.90707
556.52        23.01073
556.96        23.12594
557.39        23.24256
557.83        23.34307
558.27        23.37901
558.70        23.37295
559.14        23.40504
559.57        23.47624
560.01        23.57472
560.45        23.66911
560.88         23.6822
561.32        23.65754
561.75        23.66932
562.19        23.81126
562.63        23.88949
563.06        23.92659
563.50        23.98648
563.93        24.06634
564.37        24.20615
564.80         24.2911
565.24        24.41568
565.68        24.52693
566.11        24.62741
566.55        24.73166
566.98        24.79282
567.42        24.80468
567.85        25.07138
568.29        24.95148
568.72        25.20958
569.16        25.58539
569.60        25.84375
570.03         25.9479
570.47        26.05239
570.90        26.05435
571.34        26.40225
571.77         26.2576
572.21        26.60373
572.64        26.79654
573.08        26.89544
573.51         27.1856
573.95        27.49619
574.38        27.67705
574.82        27.87218
575.25        27.99413
575.69        27.90452
576.12        27.89514
576.56        27.84928
576.99        27.87856
577.42         27.9728
577.86         28.0205
578.29        28.03047
578.73          28.332
579.16        28.26055
579.60        27.80585
580.03         27.9215
580.47        27.90138
580.90        27.43435
581.33        27.41144
581.77        27.57292
582.20           27.62
582.64        27.55214
583.07        27.26603
583.51        27.39629
583.94         26.8703
584.37        26.61235
584.81        26.41241
585.24        26.32455
585.68        26.29426
586.11         26.2894
586.54        26.25242
586.98        26.07483
587.41        26.20967
587.85         26.1904
588.28        26.11894
588.71        25.90438
589.15        25.64768
589.58        25.36974
590.01        25.64796
590.45        25.94905
590.88        25.62584
591.31        25.52951
591.75        25.43107
592.18        25.56185
592.61        25.33152
593.05        25.67947
593.48        25.58375
593.91        26.19287
594.35        25.70279
594.78        25.92072
595.21        26.36934
595.65        26.58666
596.08        26.57609
596.51        26.48386
596.94        26.44816
597.38        26.50089
597.81         26.7037
598.24         27.0126
598.68        27.76785
599.11        27.70043
599.54        28.48559
599.97        28.36151
600.41        28.59817
600.84        29.11845
601.27        29.51376
601.70        29.90255
602.14        30.10633
602.57        30.52009
603.00        31.12477
603.43        31.68472
603.87        32.16479
604.30        32.57948
604.73        32.94031
605.16        33.40372
605.60        33.85862
606.03        34.31442
606.46        34.63682
606.89        35.52525
607.32        35.92924
607.76        36.35304
608.19        36.73868
608.62        37.05036
609.05         37.3899
609.48        37.49575
609.92        38.11119
610.35        38.25053
610.78        39.08813
611.21        39.69761
611.64        39.65639
612.07        40.16409
612.50        40.53288
612.94        40.53379
613.37        41.14126
613.80        41.46503
614.23        41.82422
614.66         42.2948
615.09        42.64249
615.52        43.10289
615.96        43.51101
616.39         43.9036
616.82        44.34974
617.25        44.09329
617.68        44.67027
618.11        45.02423
618.54        45.50151
618.97        45.56435
619.40        45.27318
619.84         45.5189
620.27        45.37768
620.70         45.9321
621.13        46.69733
621.56        46.89027
621.99        46.61356
622.42        46.62305
622.85        47.01678
623.28        47.13245
623.71        46.91344
624.14        47.45107
624.57        46.93213
625.00         47.0089
625.43         47.2249
625.86        46.51756
626.29        46.64679
626.72        46.45556
627.15        46.28982
627.58        46.19171
628.01        46.04989
628.44        45.88497
628.87         45.6872
629.30        44.96003
629.73        44.73634
630.16        44.20807
630.59        44.08637
631.02        43.68881
631.45        43.14977
631.88        42.66571
632.31        42.23031
632.74        41.71404
633.17        41.12273
633.60        40.55149
634.03        40.01311
634.46        39.48643
634.89        38.96431
635.32        38.43268
635.75        37.89286
636.18        37.36235
636.61         36.8513
637.04        36.36645
637.47        35.90665
637.89        35.47173
638.32         35.0612
638.75        34.68206
639.18        34.33435
639.61        34.07629
640.04        33.77903
640.47         33.4751
640.90        33.12759
641.33        32.75536
641.76        32.40253
642.18        32.14712
642.61        32.00281
643.04        31.94691
643.47        31.94037
643.90        31.91665
644.33        31.85899
644.76        31.79369
645.18        31.74178
645.61        31.74024
646.04        31.80174
646.47        31.91084
646.90        32.07882
647.33        32.32491
647.75        32.64887
648.18        33.04486
648.61        33.47106
649.04         33.8633
649.47        34.21378
649.89        34.51777
650.32        34.84077
650.75        35.34988
651.18        36.04879
651.61        36.74232
652.03        37.40857
652.46        38.23497
652.89        39.15674
653.32        39.73081
653.74        40.05309
654.17        40.77233
654.60        41.38898
655.03        42.65604
655.46        42.93868
655.88        44.28818
656.31        45.45536
656.74         50.2986
657.16        50.15297
657.59        48.66281
658.02        48.49302
658.45        48.39494
658.87        49.05232
659.30        49.61905
659.73        50.86096
660.15        51.42363
660.58        51.44024
661.01        51.55112
661.44        51.88629
661.86        52.38195
662.29        53.02365
662.72        53.81404
663.14        54.60266
663.57        54.91092
664.00        54.85205
664.42        55.05789
664.85         55.5981
665.27        56.08238
665.70        56.44765
666.13        56.80309
666.55        57.13997
666.98        57.43087
667.41        57.69076
667.83        57.93155
668.26        58.15176
668.69        58.36073
669.11        58.56678
669.54        58.76827
669.96        58.97002
670.39        59.20472
670.82        59.47396
671.24        59.67952
671.67        59.85742
672.09        60.20517
672.52        60.64257
672.94        60.87846
673.37        60.88274
673.80        60.72775
674.22        60.54338
674.65         60.5347
675.07        60.75732
675.50        61.13941
675.92        61.52357
676.35        61.76661
676.77          61.812
677.20        61.72359
677.62        61.58726
678.05        61.54929
678.47        61.64322
678.90        61.82344
679.32         62.0561
679.75        62.26165
680.17        62.42392
680.60         62.6254
681.02        62.84785
681.45        62.85904
681.87        62.75275
682.30        62.92827
682.72         63.3392
683.15        63.54262
683.57        63.52237
684.00        63.45004
684.42        63.50533
684.85        63.60422
685.27        63.78614
685.70        64.02321
686.12        64.21413
686.54        64.42912
686.97        64.68847
687.39        64.24051
687.82        64.35744
688.24        64.45115
688.66        64.80735
689.09        64.78288
689.51        64.81794
689.94        64.85857
690.36        65.02028
690.78        65.15927
691.21        65.28028
691.63        65.34459
692.06        65.31597
692.48        65.76727
692.90        65.50553
693.33        65.86378
693.75        65.82101
694.17        65.97028
694.60        66.05854
695.02        66.00423
695.44        65.82201
695.87        65.67793
696.29        65.62227
696.71        65.58343
697.14        65.70496
697.56        66.15762
697.98        66.68116
698.41        67.77066
698.83        67.31948
699.25         67.1264
699.68        67.00739
700.10        66.89471
700.52        66.94118
700.94        67.09048
701.37        67.26859
701.79         67.4799
702.21        67.69344
702.64        67.43645
703.06        67.64577
703.48        67.68703
703.90        67.84457
704.33        68.05934
704.75        68.27846
705.17         68.3709
705.59        68.30511
706.01        68.13267
706.44         67.9623
706.86        67.96733
707.28        68.17664
707.70        68.52735
708.12        68.91238
708.55        69.15805
708.97        69.22015
709.39        69.16158
709.81        69.03967
710.23        68.95755
710.66        68.95577
711.08         69.0038
711.50        69.08612
711.92        69.19713
712.34        69.32928
712.76        69.49686
713.19         69.6488
713.61        69.75555
714.03         69.7825
714.45        69.74068
714.87        69.69653
715.29        69.77174
715.71        69.98786
716.13        70.28224
716.56        70.54677
716.98        70.83115
717.40        70.83007
717.82        70.77422
718.24        70.66206
718.66        70.61802
719.08        70.67298
719.50        70.78712
719.92        70.91548
720.34        70.99162
720.76        70.99782
721.19        70.93755
721.61        70.85023
722.03        70.84219
722.45        70.83794
722.87        70.85735
723.29        70.87506
723.71        70.92789
724.13        71.01698
724.55        71.12722
724.97        71.26232
725.39        71.42312
725.81        71.59954
726.23        71.79415
726.65        72.00191
727.07        72.12131
727.49         72.3063
727.91        72.42573
728.33        72.51166
728.75        72.53687
729.17         72.5128
729.59        72.44762
730.01        72.34416
730.43         72.3571
730.85        72.52847
731.27        72.53536
731.69        72.31729
732.10        73.19337
732.52        73.01702
732.94        73.20798
733.36        73.14185
733.78        73.09367
734.20        73.09245
734.62         72.9815
735.04        72.78723
735.46        72.76677
735.88        72.97559
736.30        72.52102
736.72        72.91212
737.13         73.0119
737.55        73.20694
737.97        73.55818
738.39        73.89537
738.81        73.96404
739.23        73.25881
739.65        73.19534
740.06        73.47821
740.48        73.74067
740.90        73.96697
741.32        72.74831
741.74        73.05852
742.16        72.85274
742.57        73.03898
742.99        73.33788
743.41        73.66415
743.83        73.88943
744.25        73.93155
744.67        73.83581
745.08        73.65817
745.50        73.47071
745.92        73.32685
746.34        73.20389
746.75        73.10257
747.17        73.02705
747.59        72.98254
748.01        72.98938
748.42        73.05193
748.84        73.16016
749.26        73.31815
749.68        73.41883
750.09        73.49135
750.51        73.75675
750.93         74.1032
751.35        74.12492
751.76        73.88103
752.18        73.52793
752.60        73.68134
753.01        73.59936
753.43        73.47301
753.85        73.47028
754.27         73.6002
754.68        73.88847
755.10        74.20953
755.52        74.20416
755.93        73.92191
756.35        73.84428
756.77        73.96769
757.18        74.00473
757.60        74.06433
758.02        74.20662
758.43         74.2497
758.85        74.98118
759.26        75.03758
759.68         74.1043
760.10        74.45809
760.51        74.26529
760.93        74.35033
761.34        74.06233
761.76        74.24995
762.18        74.08297
762.59        73.93124
763.01        73.79244
763.42        74.15575
763.84        74.60658
764.26        75.12298
764.67        74.95048
765.09        74.37487
765.50         74.6396
765.92        75.73072
766.33        75.94859
766.75        75.25027
767.16        74.90625
767.58        74.93552
768.00        74.44272
768.41        73.73669
768.83        73.94303
769.24        75.04017
769.66        75.92086
770.07        76.20242
770.49        75.91577
770.90        75.26078
771.32        75.14394
771.73        75.56534
772.15        75.68047
772.56        75.45851
772.97        75.22432
773.39         75.0173
773.80        75.09457
774.22        75.31028
774.63        74.93604
775.05        74.20016
775.46        74.02108
775.88        74.46907
776.29        75.09269
776.70        75.62914
777.12        75.86775
777.53        75.72987
777.95        75.25481
778.36        74.68656
778.77        74.44357
779.19        74.63254
779.60        75.18104
780.02        75.80202
780.43        76.21428
780.84        76.32737
781.26        75.83417
781.67        75.11033
782.09        75.72082
782.50        77.27572
782.91        77.39852
783.33          76.179
783.74        75.78265
784.15        76.28822
784.57        76.47523
784.98        76.26866
785.39        76.05916
785.81        75.88264
786.22         75.7619
786.63        75.71606
787.04        75.70288
787.46        75.71803
787.87          75.785
788.28        75.94456
788.70        76.14735
789.11        76.35997
789.52        76.76842
789.93         77.2002
790.35        77.00117
790.76        76.32732
791.17        76.05087
791.58         76.2413
792.00        76.33916
792.41        76.24004
792.82        76.13917
793.23        76.02109
793.65        75.59993
794.06         75.1839
794.47        75.61143
794.88        76.60078
795.29        77.54057
795.71        77.42551
796.12        76.89827
796.53        77.33168
796.94        76.71568
797.35        75.79404
797.76        75.54054
798.18        75.98039
798.59        76.44324
799.00        76.73073
799.41        76.85718
799.82        76.83121
800.23        76.91885
800.64        77.12323
801.06        77.12384
801.47        77.00132
801.88        77.00783
802.29          77.152
802.70        77.35067
803.11        77.51802
803.52        77.44185
803.93        77.09908
804.34        76.91885
804.75        76.39557
805.17        76.19659
805.58        76.23566
805.99        76.13239
806.40        76.01249
806.81        76.87613
807.22        78.24219
807.63         78.5229
808.04        77.01863
808.45        76.66916
808.86        77.43013
809.27        78.40768
809.68          79.255
810.09        79.64076
810.50        79.41306
810.91        78.79491
811.32        78.05767
811.73        77.44371
812.14        77.05927
812.55        77.07211
812.96        77.31387
813.37        76.96428
813.78        76.19203
814.19        76.23643
814.60        76.98106
815.01        77.28316
815.42        77.09003
815.83        77.01389
816.24        77.12637
816.65          77.252
817.05        77.40159
817.46        77.56107
817.87        77.71378
818.28         77.7916
818.69        77.80563
819.10        77.78733
819.51        77.74387
819.92        77.82874
820.33        78.09076
820.74        78.07873
821.14        77.91456
821.55        78.72823
821.96        80.08231
822.37         79.7455
822.78        78.00089
823.19        77.31348
823.60        77.88938
824.00        78.37984
824.41        78.52932
824.82        78.66672
825.23        78.72231
825.64        78.62753
826.04         78.4749
826.45        78.36259
826.86        78.33789
827.27        78.38068
827.68        78.46637
828.08        78.57068
828.49           78.62
828.90        78.65847
829.31        78.69411
829.72        78.73162
830.12        78.78569
830.53        78.81108
830.94         78.7907
831.35        78.67051
831.75        78.47569
832.16        78.19482
832.57        77.91647
832.97        77.76772
833.38        77.76212
833.79        77.85608
834.20        78.01398
834.60        78.16795
835.01        78.30443
835.42        78.45616
835.82        78.56214
836.23         78.4637
836.64        78.17294
837.04        77.72394
837.45        77.31168
837.86        77.30627
838.26        77.78796
838.67        78.61604
839.08        79.50155
839.48        79.89205
839.89        79.64035
840.29        78.95832
840.70        78.18912
841.11        77.75845
841.51        77.80003
841.92         78.1156
842.33        78.66248
842.73         79.3712
843.14        80.06158
843.54        80.82369
843.95        81.39756
844.35        81.44024
844.76        80.92056
845.17        79.96181
845.57        78.92322
845.98        78.39117
846.38        78.49891
846.79        79.08937
847.19        79.95394
847.60        80.54804
848.00        80.74747
848.41        80.63742
848.81        80.42696
849.22        80.35268
849.62        80.52865
850.03        80.80962
850.43        81.11796
850.84        81.21902
851.24        81.10704
851.65        80.80538
852.05        80.48213
852.46        80.28269
852.86        80.26254
853.27        80.37897
853.67        80.49407
854.07        80.57027
854.48        80.54169
854.88        80.41082
855.29        80.17936
855.69        80.07735
856.10        80.05781
856.50        80.09228
856.90         80.1152
857.31        80.14683
857.71        80.21362
858.12        80.12252
858.52        79.92917
858.92        79.74284
859.33        79.55626
859.73        79.31902
860.13        79.11077
860.54         79.1452
860.94         79.5149
861.34        80.09874
861.75        80.65164
862.15        80.88028
862.55        80.66668
862.96        80.13503
863.36         79.4655
863.76         78.9341
864.17        78.64842
864.57        78.55302
864.97        78.64404
865.38        78.89299
865.78        79.30606
866.18        79.81761
866.58        80.27399
866.99        80.39569
867.39        80.15814
867.79         79.6134
868.19        78.80699
868.60        77.80698
869.00        76.66053
869.40         75.4118
869.80        74.37666
870.21        74.06316
870.61        74.60959
871.01        75.80256
871.41        77.13291
871.81        77.77702
872.22        77.55851
872.62        76.74454
873.02        75.65598
873.42        75.00341
873.82        74.81619
874.22        74.44817
874.63        74.08352
875.03        74.20683
875.43        74.82034
875.83        76.60368
876.23         76.9249
876.63        76.59404
877.03        75.11716
877.44        72.57353
877.84        126.1468
878.24        71.60443
878.64        72.89886
879.04        76.64833
879.44        74.31309
879.84        72.96624
880.24        76.42647
880.64        76.29007
881.04        73.43714
881.44         71.5055
881.84        71.15394
882.24        71.76879
882.65        72.84164
883.05         73.3847
883.45         73.0444
883.85        72.42641
884.25        71.90413
884.65        71.77229
885.05        72.13351
885.45         72.8493
885.85        73.62761
886.25        74.01828
886.65        73.89783
887.05        73.41103
887.45        72.85826
887.85        72.68506
888.25        72.99736
888.65        73.66693
889.04        74.44388
889.44        74.81618
889.84        74.67604
890.24         74.1675
890.64        73.56264
891.04        73.26575
891.44        73.34731
891.84        73.64938
892.24        73.94447
892.64        73.85371
893.04        73.31419
893.44        72.54691
893.83        71.70055
894.23        71.00274
894.63        70.51347
895.03        70.14546
895.43        70.01115
895.83        70.30952
896.23        71.01743
896.63        72.05314
897.02        73.07649
897.42        73.44556
897.82        73.03767
898.22        72.06795
898.62        70.89272
899.01         70.0668
899.41        69.78828
899.81        69.86884
900.21        70.24759
900.61        70.82883
901.00        71.51817
901.40        72.32073
901.80        73.05655
902.20        73.39862
902.59        73.28916
902.99        72.80331
903.39        72.13029
903.79        71.61237
904.18          71.362
904.58        71.32066
904.98        71.48435
905.38        71.84772
905.77        72.35783
906.17         73.0292
906.57        73.64859
906.96        73.90289
907.36        73.68851
907.76         73.0606
908.15        72.31096
908.55        71.86809
908.95        71.86012
909.34        72.22781
909.74        72.61112
910.14        72.37606
910.53         71.4024
910.93        69.96849
911.33         68.6707
911.72        68.44526
912.12         69.4056
912.52        71.14375
912.91         73.0055
913.31        73.91067
913.70        73.65424
914.10        72.55724
914.49        70.97606
914.89        69.72121
915.29         69.1564
915.68        69.05597
916.08        69.40239
916.47        70.15759
916.87        71.18161
917.26        72.45174
917.66        73.65677
918.05         74.3008
918.45        74.23785
918.84        73.65693
919.24         72.6841
919.64        71.57814
920.03        70.52006
920.42        69.49531
920.82        68.85922
921.21        69.09371
921.61        70.17029
922.00        71.96568
922.40        73.81793
922.79         74.8576
923.19        74.81954
923.58        73.75202
923.98         72.0114
924.37        70.90639
924.77        70.99703
925.16        68.90299
925.55        70.18964
925.95        70.13635
926.34        70.38237
926.74        70.80119
927.13        71.42144
927.52        72.08389
927.92        72.69759
928.31        73.32657
928.70        73.81465
929.10        73.95493
929.49        73.71033
929.89         73.1202
930.28        72.46802
930.67        72.21426
931.07         72.4343
931.46        73.06247
931.85        73.74069
932.24        73.92278
932.64        73.48473
933.03        72.51694
933.42        71.36427
933.82        70.74539
934.21        70.83923
934.60        71.42895
934.99        71.95167
935.39        71.89735
935.78          71.201
936.17        69.54362
936.56        67.15428
936.96        67.96846
937.35        67.30934
937.74        68.79987
938.13        70.35529
938.53        71.48289
938.92        72.11402
939.31        72.45696
939.70        72.56961
940.09        72.40639
940.49        72.04044
940.88        71.52094
941.27        71.06042
941.66        71.01215
942.05        71.41425
942.44        72.12878
942.84        73.01185
943.23        73.81669
943.62         74.4019
944.01        74.87452
944.40        75.03783
944.79        74.58605
945.18        73.50903
945.57        71.83637
945.97        70.19154
946.36        69.67685
946.75        70.58865
947.14        72.52749
947.53         74.5782
947.92        75.47822
948.31        75.00782
948.70        73.55621
949.09        71.72456
949.48        70.57362
949.87        70.45492
950.26        71.04324
950.65        71.94978
951.04        72.53403
951.43        72.57308
951.82        72.28825
952.21        71.86404
952.60        71.56158
952.99        71.46837
953.38        71.46965
953.77        71.47147
954.16        71.36184
954.55        71.11417
954.94        70.78969
955.33        70.48829
955.72        70.34501
956.11        70.40806
956.50        70.66142
956.89        70.99364
957.28        71.19689
957.66        71.21587
958.05        71.02876
958.44        70.82404
958.83        70.85993
959.22        71.15923
959.61         71.6509
960.00        72.03889
960.39        71.80815
960.78        70.86687
961.16         69.3925
961.55        67.89938
961.94         67.0335
962.33        66.95319
962.72        67.49325
963.11        68.28571
963.49        68.70388
963.88         68.4782
964.27        67.82664
964.66        67.09645
965.04        66.85744
965.43        67.24624
965.82        68.08615
966.21        69.03549
966.60        69.55586
966.98        69.52574
967.37          69.091
967.76        68.61555
968.15        68.66001
968.53        69.34745
968.92        70.38122
969.31        71.41759
969.69        71.89287
970.08         71.5971
970.47        70.78448
970.86         69.6356
971.24         68.4006
971.63        67.29285
972.02        66.28453
972.40        65.54582
972.79        65.38589
973.17        65.86165
973.56        66.77654
973.95        67.95563
974.33        69.04094
974.72        69.73199
975.11         70.1097
975.49        69.98446
975.88        69.08781
976.26        67.49457
976.65        65.37688
977.04        63.24416
977.42        61.98408
977.81        61.87735
978.19        62.69044
978.58        64.11243
978.96        65.58255
979.35        66.75581
979.74        67.82053
980.12        68.60977
980.51        68.61465
980.89        67.94074
981.28        66.67371
981.66         65.4076
982.05        65.02045
982.43        65.62595
982.82        66.96387
983.20        68.63834
983.59        69.60387
983.97        69.61397
984.35        68.85817
984.74        67.76266
985.12        66.91375
985.51        66.49091
985.89        66.30054
986.28         66.1496
986.66        65.82487
987.04        65.23207
987.43        64.61016
987.81        63.96238
988.20        63.21282
988.58        62.26115
988.96        60.96896
989.35        59.53158
989.73        58.69339
990.12         58.8356
990.50        59.87588
990.88        61.03078
991.27        61.35275
991.65        60.88176
992.03         59.8296
992.42        58.90747
992.80        59.42929
993.18        61.65998
993.56        64.86131
993.95        68.02685
994.33        70.21113
994.71         71.0397
995.10        70.85416
995.48        69.97266
995.86        68.78141
996.24        67.47668
996.63        65.97874
997.01        64.34242
997.39        62.96072
997.77        62.13722
998.15        61.87196
998.54        62.16393
998.92        62.95826
999.30        64.25252
999.68        66.27795
1000.06        68.41491
1000.45        68.60514
1000.83        66.27649
1001.21         62.4496
1001.59        59.03086
1001.97        57.51437
1002.35        57.75414
1002.73         59.3089
1003.12        61.43039
1003.50        62.42648
1003.88        61.44002
1004.26         59.1355
1004.64        56.36256
1005.02        54.22931
1005.40        53.07126
1005.78        52.51161
1006.16        52.73739
1006.54        54.04081
1006.92        56.01937
1007.30        58.22432
1007.69        59.97499
1008.07        60.78724
1008.45        60.55974
1008.83        59.34061
1009.21        56.72474
1009.59        52.74408
1009.97        48.28474
1010.35        43.96862
1010.73        41.70945
1011.11         42.9884
1011.49        47.18316
1011.86         53.6589
1012.24        59.26183
1012.62        60.92593
1013.00        58.54258
1013.38        53.26905
1013.76        47.12532
1014.14        43.76112
1014.52        44.26756
1014.90        47.55153
1015.28        51.90272
1015.66        54.43085
1016.04        54.12942
1016.41        51.77417
1016.79        48.08147
1017.17        45.11942
1017.55        44.06611
1017.93        44.08204
1018.31        44.75914
1018.69        45.84136
1019.06        47.12389
1019.44        48.62122
1019.82        49.84116
1020.20        49.38745
1020.58        46.79997
1020.95        42.56081
1021.33        37.35012
1021.71        31.10029
1022.09        22.71265
1022.46        8.411381
1022.84       -11.87645
1023.22       -18.53909
1023.60       -0.478575
1023.97        20.95906
1024.35        33.22083
1024.73        37.26325
