SpectraSmart Spectrum 2.9.0.0
--------- Device Information -----------
Spectrum Name :  反射率_0
Saving Time :  2024/04/19 23:52:13
Spectro-Module Model Name : SE2030-DUVN
Spectro-Module Serial Number : OS361AC55029948
Wavelength Start : 200
Wavelength End : 1025
Wavelength Unit : Wavelength(nm)
Spectrum Unit : Reflectance(%)
-----------Spectrum Setting ------------
Integration Time : 30ms
Average : 10
Boxcar : 0
Background removal :  enabled
linearity correction :  enabled
SC :  disabled
Intensity correction :  disabled
DWT denoise :  enabled
savitzky-golay :  disabled
FFT :  disabled
Running average :  disabled
Kalman :  disabled
High pass :  disabled
---------------BEGIN--------------------
Wavelength(nm)             Reflectance(%)
200.29               0
200.75        55.82138
201.21        56.12471
201.67        58.14383
202.13        61.79597
202.58        66.77928
203.04        73.47393
203.50        79.70795
203.96        80.10812
204.42        74.86703
204.88        67.61317
205.34        61.20932
205.80        56.68533
206.26        53.15038
206.72        49.30112
207.18        44.88721
207.64        41.82987
208.10        42.43083
208.55         46.6355
209.01          50.687
209.47        51.88797
209.93        50.43196
210.39        47.44393
210.85        44.13444
211.31        41.70644
211.77        40.24073
212.23        39.26345
212.69         38.7387
213.14        38.96402
213.60        39.56905
214.06        40.75933
214.52        42.18632
214.98        43.91412
215.44        46.01433
215.90        48.21609
216.36        50.68636
216.81        53.28836
217.27        55.40191
217.73         57.1196
218.19        57.06716
218.65        53.24925
219.11        45.39351
219.57         33.5117
220.02        20.25783
220.48        13.07302
220.94        14.64914
221.40        23.89386
221.86        35.63865
222.32        41.68471
222.77        40.14947
223.23        33.59444
223.69        26.57415
224.15        25.53367
224.61        30.36133
225.06        37.53884
225.52         43.5036
225.98        45.40795
226.44        43.35971
226.90        38.77631
227.36        33.40496
227.81        30.30661
228.27        30.66139
228.73        33.01818
229.19        35.98629
229.65        37.99235
230.10        38.74842
230.56        38.87173
231.02         38.6786
231.48        38.48409
231.93        38.36604
232.39        38.17662
232.85        37.88769
233.31        37.53485
233.77        37.12869
234.22         36.6905
234.68        36.28021
235.14        35.85952
235.60        35.45544
236.05        35.12016
236.51        34.88029
236.97        34.73138
237.43        34.71904
237.88        34.98999
238.34        35.57602
238.80        36.62809
239.26        38.02229
239.71        39.41686
240.17        40.72969
240.63        42.46637
241.08        44.73152
241.54        47.32393
242.00         49.2131
242.46        48.41064
242.91        43.81508
243.37        34.26467
243.83        19.98981
244.28        8.804332
244.74        9.883174
245.20        23.14384
245.66        38.22625
246.11        45.18533
246.57        43.21337
247.03        33.68091
247.48        20.27477
247.94        19.28269
248.40        31.04576
248.85        43.69551
249.31        52.29247
249.77        56.36562
250.22        57.23732
250.68        56.21414
251.14        53.75221
251.59        50.66107
252.05        47.92361
252.51        45.52099
252.96        43.38498
253.42        41.67514
253.88        40.55744
254.33         40.2128
254.79        41.55991
255.25        45.14051
255.70        50.38634
256.16        56.36269
256.62        61.27273
257.07        63.15786
257.53          62.252
257.99        59.38101
258.44        55.87084
258.90        54.05764
259.35        53.62768
259.81        54.11104
260.27        54.28734
260.72        53.13381
261.18        51.00478
261.63        48.04209
262.09        45.43214
262.55        44.31401
263.00        44.64528
263.46        45.93593
263.91        46.98243
264.37         46.6157
264.83        44.83759
265.28        42.14193
265.74        39.68973
266.19        38.67575
266.65        39.24122
267.11         40.7355
267.56        42.28235
268.02        42.62838
268.47        41.56166
268.93        39.53046
269.38        37.09724
269.84        35.40574
270.30        34.76568
270.75        34.84005
271.21        35.18993
271.66        35.16191
272.12         34.5687
272.57        33.63585
273.03        32.63626
273.48          31.891
273.94        31.52521
274.39        31.36864
274.85        31.25101
275.31        30.92165
275.76        30.31171
276.22        29.53141
276.67        28.72705
277.13        28.20144
277.58         27.9529
278.04        27.91729
278.49        27.83843
278.95        27.41238
279.40        26.58632
279.86        25.55896
280.31        24.54563
280.77        23.97308
281.22        23.84117
281.68        24.01774
282.13        24.27032
282.59        24.28622
283.04        23.99265
283.50        23.53675
283.95        23.01423
284.41        22.59081
284.86        22.29991
285.32        22.09785
285.77        21.98864
286.22        22.04493
286.68        22.23953
287.13        22.52542
287.59        22.78158
288.04        22.81078
288.50        22.60234
288.95        22.19361
289.41        21.72528
289.86        21.34646
290.32        21.15388
290.77        21.09961
291.22         21.1608
291.68        21.26562
292.13        21.39556
292.59        21.58021
293.04        21.85284
293.50        22.27247
293.95        22.82692
294.40        23.47079
294.86        24.11744
295.31        24.65102
295.77        25.04567
296.22        25.33481
296.68        25.58362
297.13        25.87713
297.58        26.25709
298.04        26.71017
298.49        27.21134
298.95        27.75487
299.40        28.31545
299.85        28.89182
300.31        29.47337
300.76        30.04138
301.21        30.58019
301.67         31.1049
302.12        31.56148
302.58        31.92836
303.03        32.18898
303.48        32.37222
303.94        32.56782
304.39        32.87618
304.84         33.3179
305.30        33.84432
305.75        34.34049
306.20        34.64976
306.66          34.758
307.11        34.70816
307.57        34.59048
308.02         34.4716
308.47        34.40336
308.93        34.35443
309.38        34.33681
309.83        34.41589
310.29        34.57763
310.74        34.80497
311.19        34.97793
311.65        34.90237
312.10        34.55006
312.55        33.98903
313.00        33.38406
313.46         32.9894
313.91        32.85081
314.36        32.90959
314.82        33.04328
315.27        33.07126
315.72        32.92907
316.18        32.68345
316.63        32.39815
317.08        32.17579
317.53         32.0379
317.99        31.93056
318.44        31.81757
318.89        31.63919
319.35        31.37949
319.80        31.06893
320.25        30.72176
320.70        30.35648
321.16        29.98363
321.61        29.60336
322.06        29.23722
322.51        28.92327
322.97        28.66222
323.42        28.45166
323.87        28.24974
324.32        27.99015
324.78        27.65226
325.23        27.26012
325.68        26.84366
326.13        26.46185
326.59        26.13698
327.04        25.87377
327.49        25.65441
327.94        25.45045
328.39        25.24986
328.85         25.0444
329.30        24.87887
329.75        24.79005
330.20        24.77862
330.66        24.80663
331.11        24.82591
331.56        24.71136
332.01        24.43343
332.46        24.02031
332.92        23.55171
333.37        23.16825
333.82        22.92369
334.27        22.80481
334.72        22.74726
335.17        22.63562
335.63        22.43025
336.08        22.16226
336.53        21.92902
336.98        21.89739
337.43        22.09133
337.88        22.45758
338.34        22.78712
338.79        22.78703
339.24        22.38283
339.69        21.66401
340.14         20.9035
340.59        20.56168
341.05        20.73232
341.50        21.27264
341.95        21.89745
342.40        22.16476
342.85        21.96949
343.30        21.46733
343.75        20.83905
344.20        20.37912
344.66        20.17817
345.11        20.10914
345.56         20.1346
346.01        20.19597
346.46        20.24969
346.91        20.34277
347.36        20.36621
347.81        20.13481
348.26        19.64858
348.72        18.98977
349.17         18.3511
349.62        18.13845
350.07        18.43294
350.52        19.08784
350.97        19.86329
351.42        20.40059
351.87        20.59484
352.32        20.54099
352.77        20.32124
353.22        20.07325
353.67        19.85633
354.13        19.64079
354.58         19.4139
355.03        19.19841
355.48        19.00568
355.93        18.85981
356.38        18.76805
356.83        18.72418
357.28        18.71552
357.73        18.72248
358.18        18.72815
358.63        18.71051
359.08        18.65679
359.53         18.5747
359.98        18.43833
360.43        18.20877
360.88        17.89664
361.33        17.52643
361.78        17.18049
362.23        16.99287
362.68        16.98496
363.13        17.10091
363.58        17.25806
364.03        17.32723
364.48        17.26701
364.93        17.11693
365.38        16.88302
365.83        16.58191
366.28        16.24422
366.73         15.8737
367.18        15.54315
367.63        15.36718
368.08        15.35765
368.53         15.4743
368.98        15.63284
369.43        15.69495
369.88        15.62599
370.33        15.47278
370.78        15.26344
371.23        15.05203
371.68        14.86887
372.13        14.68926
372.58        14.56393
373.03        14.58047
373.48        14.73545
373.93        14.99215
374.38        15.23114
374.83         15.2671
375.28        15.06471
375.72        14.67496
376.17         14.2203
376.62        13.86242
377.07         13.6641
377.52        13.58404
377.97        13.59346
378.42        13.64431
378.87        13.70659
379.32        13.78636
379.77         13.8694
380.22        13.92916
380.67        13.95756
381.11        13.95992
381.56        13.90966
382.01        13.78774
382.46        13.59876
382.91        13.34672
383.36        13.10698
383.81        12.99025
384.26        13.01308
384.71         13.1546
385.15        13.29739
385.60        13.25785
386.05        13.00842
386.50        12.60723
386.95        12.21272
387.40         12.0755
387.85        12.23568
388.29        12.59793
388.74         12.9817
389.19        13.14028
389.64        13.02473
390.09        12.71361
390.54        12.34163
390.98        12.11824
391.43        12.11175
391.88        12.24162
392.33        12.39877
392.78        12.42928
393.23         12.3083
393.67        12.08882
394.12         11.8777
394.57        11.77423
395.02        11.79855
395.47        11.91257
395.91        12.04819
396.36        12.07665
396.81        11.97049
397.26        11.76756
397.71        11.55395
398.15        11.44394
398.60        11.47315
399.05        11.59568
399.50        11.72331
399.95         11.7298
400.39        11.59053
400.84        11.34278
401.29        11.08471
401.74        10.99454
402.18        11.12138
402.63        11.39732
403.08        11.69108
403.53         11.7968
403.97        11.67122
404.42        11.39038
404.87          11.075
405.32        10.92305
405.76        10.98217
406.21        11.18063
406.66        11.42309
407.11        11.56241
407.55        11.55878
408.00        11.46552
408.45        11.32551
408.90        11.18282
409.34        11.07856
409.79        11.04479
410.24        11.06441
410.68        11.06711
411.13        11.04776
411.58        11.05729
412.03         11.0777
412.47        11.05938
412.92         10.9957
413.37        10.89239
413.81          10.806
414.26        10.83711
414.71        10.99263
415.15        11.24791
415.60        11.48795
416.05        11.54551
416.49        11.38064
416.94        11.05443
417.39        10.68537
417.83        10.46622
418.28        10.45247
418.73         10.5766
419.17        10.75428
419.62        10.83938
420.07         10.7977
420.51        10.68079
420.96        10.53104
421.41        10.39665
421.85        10.29649
422.30        10.22054
422.74        10.17458
423.19        10.19161
423.64        10.26403
424.08         10.3892
424.53        10.51766
424.98        10.57923
425.42        10.55446
425.87        10.46547
426.31        10.33745
426.76        10.22049
427.21        10.12557
427.65        10.03575
428.10        9.978257
428.54        9.979342
428.99        10.04039
429.44        10.19555
429.88        10.36559
430.33        10.35187
430.77        10.18372
431.22        10.07694
431.66        10.06907
432.11        10.10375
432.56        10.17155
433.00        10.31383
433.45        10.43078
433.89        10.38624
434.34         10.2472
434.78        10.11194
435.23        9.961021
435.67        10.44003
436.12        10.08663
436.57        9.994197
437.01         9.78778
437.46         9.68046
437.90        9.687243
438.35        9.717302
438.79        9.741204
439.24        9.757057
439.68         9.75318
440.13        9.650989
440.57         9.50668
441.02        9.560966
441.46        9.722943
441.91         9.69532
442.35        9.261203
442.80        9.085317
443.24         9.06999
443.69        9.013844
444.13        8.904091
444.58          8.8273
445.02        8.785911
445.47        8.782064
445.91        8.791892
446.36        8.757394
446.80        8.668036
447.24        8.552822
447.69        8.440737
448.13        8.352833
448.58        8.303649
449.02        8.285643
449.47        8.283317
449.91         8.26781
450.36        8.235338
450.80        8.190137
451.25        8.156642
451.69        8.161371
452.13        8.209721
452.58        8.281956
453.02        8.352056
453.47        8.374775
453.91        8.344273
454.36        8.276404
454.80        8.190474
455.24        8.122145
455.69        8.088344
456.13        8.067626
456.58        8.070435
457.02         8.10657
457.46        8.171342
457.91        8.242447
458.35        8.296758
458.79         8.31296
459.24         8.28704
459.68         8.22342
460.13        8.181152
460.57        8.169218
461.01        8.191498
461.46        8.451326
461.90        8.587411
462.34        8.538254
462.79        8.577454
463.23         8.43716
463.68        8.292566
464.12        8.201201
464.56        8.254051
465.01        8.364367
465.45        8.490287
465.89        8.578111
466.34        8.616529
466.78        8.597908
467.22        8.549457
467.67        8.576303
468.11        8.660645
468.55        8.627702
468.99        8.507727
469.44        8.488477
469.88         8.58182
470.32        8.693534
470.77        8.775157
471.21        8.797376
471.65        8.747416
472.10        8.638647
472.54          8.5219
472.98        8.504107
473.42        8.602466
473.87        8.754819
474.31        8.906824
474.75        9.026646
475.20        9.077574
475.64        8.989957
476.08        8.829926
476.52        8.775804
476.97        8.848372
477.41        8.974445
477.85        9.104891
478.29        9.186617
478.74        9.201644
479.18        9.151727
479.62        9.087687
480.06        9.090586
480.50        9.163681
480.95        9.237119
481.39        9.281957
481.83        9.300753
482.27        9.288716
482.72        9.247492
483.16         9.20338
483.60        9.204127
484.04         9.25124
484.48        9.382803
484.93        9.617232
485.37        9.726919
485.81         9.71226
486.25        10.18856
486.69        10.16237
487.14        9.858914
487.58        10.03674
488.02        10.67312
488.46        10.29376
488.90        10.29557
489.34        10.22902
489.79        10.39842
490.23        10.72825
490.67        10.92073
491.11        10.93464
491.55         10.8316
491.99        10.66771
492.43        10.57064
492.88        10.57668
493.32        10.59379
493.76        10.63838
494.20        10.77996
494.64        11.01406
495.08        11.30915
495.52        11.60592
495.96        11.82244
496.41        11.93833
496.85        11.95527
497.29        11.91944
497.73        11.96592
498.17        12.10076
498.61        12.18303
499.05         12.2211
499.49        12.35051
499.93        12.57425
500.37        12.78615
500.82        12.96547
501.26        13.18929
501.70         13.4169
502.14        13.47204
502.58        13.39312
503.02        13.39946
503.46        13.51108
503.90        13.61829
504.34        13.68955
504.78        13.71902
505.22        13.70008
505.66        13.64672
506.10        13.58723
506.54        13.56194
506.98        13.58674
507.42         13.6538
507.86        13.75669
508.30        13.88359
508.74        14.02205
509.18        14.16497
509.62          14.305
510.06        14.43101
510.50         14.5387
510.94        14.63392
511.38        14.69521
511.82        14.69147
512.26        14.62448
512.70        14.50351
513.14        14.39364
513.58        14.39446
514.02        14.51505
514.46        14.72561
514.90        14.93983
515.34          14.966
515.78        14.78705
516.22        14.54891
516.66        14.35967
517.10        14.02768
517.54        13.58706
517.98        14.24149
518.42        14.15089
518.86         14.4429
519.30        14.54694
519.74        14.65337
520.18        14.73702
520.62        14.73326
521.06        14.66102
521.50        14.51962
521.93        14.35696
522.37        14.26349
522.81        14.25837
523.25        14.31809
523.69        14.40565
524.13        14.46051
524.57        14.46233
525.01        14.42685
525.45        14.36727
525.89        14.30402
526.32        14.24563
526.76        14.18877
527.20         14.1258
527.64        14.05016
528.08        13.96147
528.52        13.86076
528.96        13.77116
529.40        13.72457
529.83         13.7234
530.27        13.76165
530.71        13.79041
531.15        13.73317
531.59        13.58129
532.03        13.36243
532.46        13.14625
532.90        13.05605
533.34        13.10805
533.78        13.25851
534.22        13.43529
534.66        13.52701
535.09        13.50202
535.53        13.40102
535.97        13.26088
536.41        13.13844
536.85        13.05623
537.28        13.00239
537.72        12.98133
538.16        12.95988
538.60        12.99796
539.04        13.04396
539.47        13.09678
539.91        13.15597
540.35        13.22496
540.79         13.1891
541.22        13.23489
541.66        13.29338
542.10        13.43069
542.54        13.42156
542.97        13.60199
543.41        13.69406
543.85        13.78872
544.29        13.86189
544.72        13.91612
545.16        13.99506
545.60        14.10061
546.04        14.17618
546.47        14.25209
546.91        14.46827
547.35        14.78071
547.79        15.00244
548.22        15.10889
548.66         15.1632
549.10        15.19827
549.53        15.31816
549.97        15.53268
550.41        15.57118
550.84        15.72209
551.28        15.83202
551.72         16.0026
552.15        16.20325
552.59        16.42956
553.03        16.67731
553.46        16.90546
553.90        17.06715
554.34         17.1546
554.77        17.18284
555.21        17.19025
555.65        17.22904
556.08        17.31067
556.52        17.41801
556.96        17.53593
557.39        17.66329
557.83        17.78632
558.27         17.8669
558.70        17.90549
559.14        17.93624
559.57        17.95819
560.01        17.97198
560.45        17.98289
560.88        17.97709
561.32        17.99638
561.75        18.08192
562.19        18.27525
562.63        18.37965
563.06        18.40132
563.50        18.40539
563.93         18.4158
564.37        18.50341
564.80        18.59136
565.24        18.73827
565.68        18.88461
566.11        19.00419
566.55         19.1011
566.98         19.1473
567.42        19.15291
567.85        19.37476
568.29        19.31982
568.72        19.56916
569.16        19.90576
569.60        20.12892
570.03        20.21479
570.47        20.28042
570.90        20.25233
571.34        20.54506
571.77        20.50801
572.21        20.69002
572.64        20.93417
573.08        21.05228
573.51        21.38689
573.95        21.83125
574.38         21.9074
574.82        21.99811
575.25        21.94575
575.69        21.99693
576.12        21.92789
576.56        21.95415
576.99        21.99171
577.42        22.19298
577.86        22.08164
578.29         22.1276
578.73        22.38445
579.16        22.29906
579.60        22.02027
580.03         21.6542
580.47        21.90153
580.90        21.76381
581.33         21.6216
581.77        21.62676
582.20        21.76934
582.64        21.44738
583.07        21.21024
583.51        21.35892
583.94        20.96324
584.37        20.93943
584.81        20.60021
585.24        20.45393
585.68        20.37503
586.11        20.34549
586.54        20.21588
586.98        20.18048
587.41        20.20282
587.85        20.18397
588.28        20.10435
588.71        19.97075
589.15        19.85866
589.58        19.60809
590.01        19.90704
590.45        20.06099
590.88        19.82285
591.31         19.6984
591.75         19.5895
592.18        19.74225
592.61        19.64011
593.05        19.86185
593.48        19.71687
593.91        19.93326
594.35        19.86427
594.78        20.19513
595.21        20.43287
595.65        20.68023
596.08        20.49559
596.51        20.50843
596.94        20.65606
597.38        20.77771
597.81        20.90264
598.24        21.05269
598.68        21.44343
599.11        21.63686
599.54        22.21142
599.97        22.20684
600.41        22.66229
600.84        23.08628
601.27         23.5443
601.70        23.86362
602.14        24.02207
602.57        24.42228
603.00        25.02225
603.43        25.48112
603.87        25.66078
604.30        26.03006
604.73        26.57277
605.16        26.97638
605.60        27.39211
606.03        27.93949
606.46        28.57468
606.89        28.93228
607.32        29.51077
607.76        29.65137
608.19         30.1205
608.62        30.45843
609.05        30.76122
609.48         30.9026
609.92        31.57207
610.35        31.52593
610.78        32.23952
611.21        32.86956
611.64        32.72959
612.07        33.45101
612.50        33.68559
612.94        33.89699
613.37        34.39324
613.80        34.69955
614.23        35.00493
614.66        35.41488
615.09        35.75059
615.52        36.12225
615.96        36.43055
616.39          36.745
616.82        37.11795
617.25        37.12701
617.68        37.63445
618.11        37.96189
618.54        38.32484
618.97         38.4226
619.40        38.26691
619.84        38.72239
620.27        38.53893
620.70        38.89085
621.13        39.31982
621.56        39.49811
621.99        39.52076
622.42        39.64896
622.85        39.91166
623.28        40.09235
623.71        40.18393
624.14         40.1849
624.57        40.00861
625.00        39.99042
625.43        40.13137
625.86        39.54761
626.29        39.72075
626.72        39.51495
627.15        39.38068
627.58        39.24616
628.01        39.09931
628.44        38.98594
628.87         38.7341
629.30        38.46394
629.73        38.19765
630.16        37.86172
630.59        37.56033
631.02        37.22435
631.45        36.86466
631.88        36.43589
632.31        35.94209
632.74        35.43029
633.17        34.91492
633.60        34.38927
634.03         33.8642
634.46        33.35892
634.89        32.87303
635.32        32.39151
635.75        31.91528
636.18        31.45608
636.61         31.0111
637.04        30.57122
637.47        30.13165
637.89        29.68946
638.32        29.25465
638.75        28.86321
639.18        28.52479
639.61        28.23717
640.04        27.96546
640.47        27.64956
640.90        27.28113
641.33        26.88137
641.76        26.50839
642.18        26.25883
642.61        26.14928
643.04        26.15017
643.47        26.20219
643.90        26.20712
644.33        26.13938
644.76        26.03232
645.18        25.92563
645.61        25.88861
646.04         25.9422
646.47        26.06305
646.90        26.24293
647.33        26.47021
647.75        26.73704
648.18        27.04651
648.61        27.38273
649.04        27.72074
649.47        28.06228
649.89        28.39594
650.32        28.75088
650.75        29.23744
651.18         29.8519
651.61        30.40551
652.03        30.92242
652.46        31.68344
652.89        32.58774
653.32        33.12157
653.74        33.38658
654.17          33.783
654.60        34.33363
655.03         35.5828
655.46        35.80258
655.88        36.96681
656.31        37.89091
656.74        41.55125
657.16        41.26485
657.59        40.15032
658.02        40.22619
658.45         40.3591
658.87        41.13712
659.30        41.57297
659.73        42.17095
660.15        43.21878
660.58        43.38126
661.01         43.5655
661.44        43.54332
661.86        43.90371
662.29        44.64645
662.72        45.43528
663.14        46.12071
663.57        46.39779
664.00        46.36467
664.42        46.52809
664.85        46.97008
665.27        47.41634
665.70        47.80605
666.13        48.16856
666.55        48.49205
666.98        48.79671
667.41        49.08863
667.83        49.34132
668.26        49.55053
668.69        49.73677
669.11        49.91464
669.54        50.09297
669.96        50.28029
670.39        50.50087
670.82        50.76022
671.24        50.97601
671.67        51.17662
672.09        51.54466
672.52          51.996
672.94        52.21936
673.37        52.20554
673.80        52.11349
674.22        52.04921
674.65        52.09654
675.07        52.29317
675.50        52.63308
675.92        53.03852
676.35        53.24419
676.77        53.22169
677.20        53.31921
677.62        53.15798
678.05        53.09089
678.47        53.28942
678.90        53.49765
679.32        53.75339
679.75        53.97486
680.17        54.13769
680.60        54.29317
681.02        54.45757
681.45         54.4457
681.87        54.59174
682.30        54.63575
682.72         54.6902
683.15        54.74974
683.57        54.84901
684.00        54.95681
684.42        55.20195
684.85        55.39159
685.27        55.55039
685.70        55.70844
686.12        55.85542
686.54        55.99311
686.97        56.12836
687.39        56.20919
687.82        56.19624
688.24        56.28936
688.66        56.35607
689.09        55.97176
689.51          56.141
689.94         56.0785
690.36        56.10475
690.78        56.35719
691.21        56.43818
691.63        56.68017
692.06        56.96842
692.48        56.86958
692.90        56.94898
693.33        57.30654
693.75        57.14244
694.17        57.30676
694.60        57.44833
695.02        57.32842
695.44        56.99016
695.87        56.87867
696.29        57.01375
696.71         57.0415
697.14         57.0712
697.56         57.4219
697.98        57.88028
698.41          58.754
698.83        58.39954
699.25        58.13331
699.68        58.00323
700.10        57.93026
700.52         57.8759
700.94        57.98793
701.37        58.15287
701.79        58.33536
702.21        58.48765
702.64        58.49087
703.06        58.62879
703.48        58.75748
703.90        58.96082
704.33        59.20414
704.75        59.41214
705.17        59.43178
705.59        59.24211
706.01        58.89948
706.44        58.56261
706.86        58.48457
707.28        58.70962
707.70        59.15004
708.12        59.64809
708.55        59.95059
708.97        59.99205
709.39        59.85775
709.81        59.63224
710.23        59.46643
710.66        59.41996
711.08        59.44719
711.50        59.52616
711.92        59.64047
712.34        59.77666
712.76         59.9515
713.19        60.11339
713.61        60.23177
714.03        60.29171
714.45        60.23722
714.87        60.10966
715.29        60.19204
715.71        60.54729
716.13        60.27253
716.56        60.82646
716.98        60.87958
717.40        60.82689
717.82        60.78699
718.24        60.85352
718.66        60.50559
719.08          60.764
719.50        60.80111
719.92        60.88544
720.34        60.95177
720.76        60.99496
721.19        61.00205
721.61        60.96908
722.03        60.99407
722.45        60.92529
722.87        60.89077
723.29          60.877
723.71          60.943
724.13        61.09473
724.55        61.32007
724.97        61.58558
725.39        61.77562
725.81        61.85418
726.23        61.93906
726.65         62.0824
727.07        61.85961
727.49        62.10308
727.91        62.13865
728.33        62.19695
728.75        62.23635
729.17         62.2574
729.59         62.2678
730.01         62.2634
730.43        62.25654
730.85        62.25041
731.27         62.2396
731.69        62.24144
732.10        62.29314
732.52        62.38821
732.94        62.51337
733.36        62.62466
733.78        62.66699
734.20        62.63935
734.62        62.52032
735.04        62.40644
735.46        62.41938
735.88        62.38342
736.30        62.41785
736.72        62.49899
737.13        62.66228
737.55        62.85084
737.97        63.20326
738.39        63.67548
738.81        63.43977
739.23        62.70679
739.65        62.55819
740.06        62.97061
740.48         63.2135
740.90        63.17604
741.32        62.90693
741.74         62.7229
742.16        62.66271
742.57        62.84716
742.99         63.0056
743.41         63.0786
743.83         63.1995
744.25        63.37185
744.67        63.02321
745.08        63.13797
745.50        62.97514
745.92        62.85043
746.34         62.7368
746.75         62.6451
747.17        62.56726
747.59         62.5028
748.01        62.48856
748.42        62.53694
748.84        62.63504
749.26        62.80188
749.68        62.98545
750.09        63.17211
750.51        63.47463
750.93        63.76483
751.35        63.65691
751.76         63.2396
752.18        62.85786
752.60        62.85802
753.01        62.80127
753.43        62.62943
753.85        62.65381
754.27        62.83437
754.68        63.14824
755.10        63.47084
755.52        63.58862
755.93        63.48237
756.35         63.2816
756.77        63.11665
757.18        63.11116
757.60        63.32158
758.02        63.71426
758.43        64.14129
758.85        64.26989
759.26        64.48859
759.68        63.94938
760.10        63.89551
760.51        63.53208
760.93        63.27132
761.34        63.37976
761.76        63.63188
762.18        63.50452
762.59        63.08036
763.01        62.92249
763.42        63.30954
763.84        63.71685
764.26        64.09104
764.67        64.13056
765.09        63.98573
765.50        64.22507
765.92         64.7807
766.33        65.06187
766.75        64.90811
767.16        64.48309
767.58        63.89375
768.00        63.36869
768.41        63.15244
768.83        63.35718
769.24         64.1634
769.66        64.61896
770.07        64.69373
770.49        64.51751
770.90        64.25815
771.32        64.39637
771.73        64.84898
772.15        64.92802
772.56        64.62975
772.97        64.39671
773.39        64.23753
773.80        64.19943
774.22        63.87267
774.63        63.67175
775.05        63.53988
775.46        63.59233
775.88        63.81882
776.29        64.22143
776.70        64.62894
777.12        64.77112
777.53        64.60159
777.95        64.16958
778.36        63.68041
778.77        63.49427
779.19        63.70201
779.60        64.23996
780.02        64.84176
780.43        65.25953
780.84        65.41363
781.26        64.96751
781.67        64.27512
782.09        64.91255
782.50         66.4696
782.91        66.49216
783.33        65.12014
783.74        64.68796
784.15        65.29417
784.57        65.58997
784.98        65.44768
785.39        65.29575
785.81        65.11567
786.22        64.77393
786.63        64.39131
787.04        64.21027
787.46        64.26421
787.87        64.46178
788.28        64.75495
788.70        65.04011
789.11        65.27111
789.52        65.51538
789.93        65.74034
790.35        65.76184
790.76        65.63126
791.17        65.44074
791.58        65.29181
792.00        65.38207
792.41        65.60764
792.82        65.61024
793.23        65.34072
793.65          64.866
794.06        64.46967
794.47        64.71251
794.88        65.34675
795.29        66.39418
795.71        65.72281
796.12        65.74611
796.53        65.87476
796.94        65.49033
797.35        64.78365
797.76        64.77447
798.18        65.39906
798.59        65.71224
799.00        65.65148
799.41        65.61887
799.82        65.91041
800.23        65.97446
800.64        65.88807
801.06         65.6859
801.47        65.50691
801.88        65.51802
802.29        65.74226
802.70        66.10672
803.11        66.45338
803.52        66.52546
803.93        66.27847
804.34         65.8178
804.75        65.28426
805.17        64.96764
805.58        64.96645
805.99        64.98913
806.40        65.07542
806.81        65.75063
807.22        66.62656
807.63        66.97645
808.04        65.71826
808.45        65.54818
808.86        66.23076
809.27        66.97646
809.68        67.53702
810.09        67.82927
810.50        67.76279
810.91        67.41063
811.32        66.91422
811.73        66.44659
812.14        66.08372
812.55        65.81464
812.96         65.6357
813.37        65.48639
813.78        65.38189
814.19         65.4433
814.60        65.59441
815.01        65.67231
815.42        65.57218
815.83         65.4121
816.24        65.26638
816.65        65.30503
817.05         65.5728
817.46        65.97077
817.87        66.36916
818.28        66.52792
818.69         66.4075
819.10        66.08805
819.51        65.71284
819.92        65.57713
820.33        65.77203
820.74        66.09055
821.14        66.46497
821.55        67.00681
821.96        67.54615
822.37        67.55484
822.78        67.10603
823.19        66.83657
823.60        66.81922
824.00        66.71526
824.41        66.49789
824.82        66.39101
825.23        66.41361
825.64        66.52356
826.04        66.70035
826.45        66.85726
826.86        66.97826
827.27        67.08177
827.68        67.16162
828.08        67.22961
828.49        67.24252
828.90        67.21703
829.31        67.17722
829.72         67.1725
830.12        67.23072
830.53        67.30334
830.94        67.37012
831.35        67.36935
831.75         67.3096
832.16        67.17426
832.57        67.01236
832.97         66.8835
833.38        66.79534
833.79        66.73412
834.20         66.6988
834.60        66.67744
835.01        66.67975
835.42        66.72038
835.82        66.77205
836.23        66.73636
836.64        66.61853
837.04        66.43286
837.45        66.27122
837.86        66.32908
838.26        66.64703
838.67        67.13633
839.08        67.62407
839.48        67.77911
839.89        67.52357
840.29        66.99619
840.70        66.43914
841.11        66.14014
841.51        66.19179
841.92        66.45365
842.33        66.89317
842.73        67.45588
843.14         67.9912
843.54        68.55847
843.95        68.96694
844.35        68.98029
844.76        68.57993
845.17        67.86846
845.57        67.07967
845.98        66.59633
846.38        66.51723
846.79        66.73746
847.19        67.19948
847.60        67.65878
848.00        68.06316
848.41        68.41462
848.81        68.72131
849.22        68.92406
849.62        69.04462
850.03        68.99775
850.43        68.87564
850.84        68.78411
851.24        68.82146
851.65        68.94871
852.05        69.06094
852.46        68.98453
852.86        68.72893
853.27        68.04836
853.67        67.22762
854.07        67.59958
854.48        68.83034
854.88          68.995
855.29        68.06583
855.69        67.81351
856.10        68.25462
856.50        68.38415
856.90        68.13873
857.31        68.02496
857.71         68.1384
858.12        68.27234
858.52        68.41679
858.92        68.45245
859.33        68.33791
859.73        68.14893
860.13        67.95904
860.54         67.8978
860.94        68.04938
861.34        68.34189
861.75        68.59774
862.15        68.62196
862.55        68.33333
862.96        67.83557
863.36        67.27979
863.76        66.89931
864.17        66.76275
864.57        66.80748
864.97         66.9938
865.38        67.24199
865.78         67.5507
866.18        67.87814
866.58        68.09058
866.99        67.96296
867.39        67.49538
867.79        66.73704
868.19        65.80739
868.60        64.88785
869.00        64.02044
869.40        63.21668
869.80         62.6255
870.21        62.46238
870.61        62.79977
871.01        63.53529
871.41        64.34359
871.81        64.69765
872.22        64.51398
872.62        63.94617
873.02        63.22791
873.42          63.016
873.82        63.19735
874.22        62.96402
874.63        62.54913
875.03        62.51525
875.43        62.91091
875.83        64.80962
876.23        64.52989
876.63        63.63458
877.03        61.47461
877.44        58.18221
877.84         139.065
878.24        58.18024
878.64        60.31027
879.04         65.8258
879.44        62.35223
879.84         60.4067
880.24        65.61845
880.64        65.58395
881.04        61.68559
881.44        59.32837
881.84        59.43904
882.24        61.09335
882.65        63.34779
883.05         64.3502
883.45        63.56014
883.85        61.93456
884.25        60.30163
884.65        59.54202
885.05        59.90445
885.45        61.05383
885.85        62.43711
886.25        63.16386
886.65        62.97708
887.05        62.19994
887.45        61.25598
887.85        60.76176
888.25         60.8839
888.65         61.3995
889.04        62.11403
889.44        62.63918
889.84        62.85633
890.24        62.89382
890.64        62.80128
891.04        62.64299
891.44        62.43978
891.84        62.11156
892.24        61.72649
892.64          61.429
893.04        61.25642
893.44        61.22925
893.83        61.14732
894.23        60.72086
894.63        59.92088
895.03        58.84496
895.43        57.84369
895.83        57.49866
896.23        57.93037
896.63        58.96327
897.02         60.1682
897.42        60.76424
897.82        60.55291
898.22        59.78197
898.62        58.84055
899.01        58.32592
899.41        58.41682
899.81        58.88753
900.21        59.55685
900.61        60.16645
901.00        60.60932
901.40        60.94737
901.80        61.19061
902.20        61.32557
902.59        61.36399
902.99        61.29452
903.39        61.10349
903.79        60.78902
904.18        60.37712
904.58        59.93463
904.98         59.6091
905.38        59.61894
905.77        59.98609
906.17        60.64516
906.57        61.36066
906.96         61.7869
907.36        61.78695
907.76        61.43085
908.15        60.96042
908.55         60.7205
908.95        60.81765
909.34        61.18964
909.74         61.5299
910.14         61.2942
910.53        60.38696
910.93        59.06525
911.33        57.87239
911.72        57.66122
912.12        58.53544
912.52        60.13749
912.91        61.88081
913.31        62.77622
913.70        62.63294
914.10        61.73236
914.49        60.38432
914.89        59.33915
915.29        58.89873
915.68        58.85739
916.08        59.14259
916.47        59.64963
916.87        60.25705
917.26        61.00435
917.66        61.71009
918.05          62.095
918.45        62.07389
918.84        61.75131
919.24        61.19787
919.64        60.56599
920.03        59.95441
920.42        59.34863
920.82         58.9775
921.21        59.14946
921.61        59.82526
922.00        60.93564
922.40         62.0047
922.79        62.48852
923.19        62.27095
923.58        61.25363
923.98        59.65668
924.37        58.83143
924.77        59.32133
925.16        56.51206
925.55         58.3217
925.95        58.36995
926.34        58.97959
926.74        59.86716
927.13        60.89912
927.52        61.64658
927.92        61.97046
928.31        62.04298
928.70        61.88391
929.10        61.61122
929.49        61.29662
929.89        60.89985
930.28        60.59681
930.67        60.66868
931.07        61.11702
931.46        61.92876
931.85        62.73036
932.24        62.95563
932.64        62.48354
933.03        61.35398
933.42        59.97363
933.82        59.19581
934.21         59.2435
934.60        59.90229
934.99        60.44992
935.39        60.24696
935.78        59.22495
936.17        56.86879
936.56         53.5511
936.96        54.91354
937.35        54.32565
937.74        56.86153
938.13        59.37938
938.53        60.92958
938.92        61.39389
939.31        61.12399
939.70        60.49715
940.09        60.03933
940.49        60.00416
940.88        60.23548
941.27        60.61087
941.66        61.00162
942.05        61.33693
942.44        61.63834
942.84        61.97058
943.23        62.42032
943.62        62.96135
944.01        63.58872
944.40        63.97465
944.79        63.61272
945.18        62.42752
945.57        60.51926
945.97         58.6017
946.36        57.90285
946.75        58.78529
947.14        60.79866
947.53        62.95136
947.92        63.88364
948.31        63.35315
948.70        61.77736
949.09        59.81582
949.48        58.62656
949.87        58.58351
950.26        59.32773
950.65        60.39357
951.04        61.01417
951.43        60.94148
951.82        60.44814
952.21        59.80048
952.60        59.38934
952.99        59.33422
953.38        59.46736
953.77        59.65916
954.16        59.74117
954.55        59.66061
954.94        59.50443
955.33        59.32995
955.72        59.20205
956.11        59.15971
956.50        59.18523
956.89        59.27381
957.28        59.42704
957.66        59.63533
958.05        59.79659
958.44        59.92714
958.83        60.04725
959.22        60.14415
959.61        60.22871
960.00        60.13316
960.39        59.58094
960.78        58.57302
961.16        57.21962
961.55        55.95596
961.94        55.31574
962.33        55.40545
962.72        56.07722
963.11        56.96507
963.49        57.43525
963.88        57.22368
964.27        56.54273
964.66        55.69349
965.04        55.18584
965.43        55.16735
965.82         55.4841
966.21        55.94651
966.60        56.25242
966.98        56.32407
967.37        56.25239
967.76        56.18872
968.15        56.34175
968.53        56.76144
968.92        57.26408
969.31         57.7316
969.69        57.98349
970.08        57.90339
970.47        57.59054
970.86        57.03798
971.24        56.19782
971.63        55.17865
972.02         54.0379
972.40        52.97311
972.79        52.35268
973.17        52.29322
973.56        52.63691
973.95        53.29887
974.33        54.09443
974.72        54.77259
975.11        55.32976
975.49        55.57661
975.88        55.22809
976.26        54.28988
976.65        52.93059
977.04        51.36405
977.42         49.9858
977.81        49.01347
978.19        48.35355
978.58        48.20578
978.96        48.85033
979.35        50.21935
979.74        52.30141
980.12         54.5159
980.51        55.57397
980.89        55.27299
981.28        53.89905
981.66        52.30515
982.05        51.69682
982.43        52.28736
982.82        53.68928
983.20        55.39301
983.59        56.20148
983.97        55.84338
984.35        54.64921
984.74        53.18962
985.12        52.23776
985.51        52.02819
985.89        52.22556
986.28        52.63967
986.66        52.92355
987.04        52.87073
987.43        52.72162
987.81        52.24023
988.20          50.998
988.58        48.82664
988.96        45.48238
989.35        41.70312
989.73        39.76555
990.12        40.84584
990.50        44.28623
990.88        48.00147
991.27        49.59138
991.65        48.98323
992.03        46.76063
992.42        44.27052
992.80        44.06386
993.18        46.83251
993.56        51.32653
993.95        55.90841
994.33        58.83995
994.71        59.57152
995.10         58.7611
995.48        57.03436
995.86        55.17942
996.24        53.51268
996.63        51.82124
997.01        50.04413
997.39        48.49333
997.77        47.46263
998.15        47.07962
998.54        47.26825
998.92        47.87169
999.30        48.80827
999.68         50.1996
1000.06        51.61677
1000.45        51.68834
1000.83        49.99551
1001.21        47.24942
1001.59        44.65302
1001.97        43.07114
1002.35        42.35129
1002.73        42.16317
1003.12        42.18258
1003.50        41.77225
1003.88        40.73487
1004.26        39.49839
1004.64        38.24959
1005.02        37.11334
1005.40        36.16241
1005.78        35.23079
1006.16         34.8923
1006.54         36.2038
1006.92        38.86821
1007.30        41.98573
1007.69         44.3783
1008.07        45.10249
1008.45        43.85858
1008.83        40.58282
1009.21        34.70535
1009.59        27.05106
1009.97        19.94755
1010.35        14.66495
1010.73        13.01948
1011.11        15.50877
1011.49        21.03484
1011.86         29.1082
1012.24        36.38937
1012.62        39.78081
1013.00        39.09724
1013.38        35.37446
1013.76        30.46723
1014.14         27.7253
1014.52        28.15155
1014.90        30.77746
1015.28        34.04057
1015.66        35.28699
1016.04        33.60245
1016.41        29.63655
1016.79        24.55025
1017.17        21.13666
1017.55        20.78393
1017.93        22.36299
1018.31        24.56751
1018.69        26.29512
1019.06        27.25684
1019.44        27.47431
1019.82        27.05213
1020.20        26.02167
1020.58        24.47628
1020.95        22.68612
1021.33        19.80103
1021.71        13.34419
1022.09       0.9932907
1022.46       -23.44386
1022.84       -60.71816
1023.22       -74.03188
1023.60       -41.52901
1023.97       -2.988553
1024.35        19.35432
1024.73        27.08188
