SpectraSmart Spectrum 2.9.0.0
--------- Device Information -----------
Spectrum Name :  反射率_0
Saving Time :  2024/04/20 00:27:42
Spectro-Module Model Name : SE2030-DUVN
Spectro-Module Serial Number : OS361AC55029948
Wavelength Start : 200
Wavelength End : 1025
Wavelength Unit : Wavelength(nm)
Spectrum Unit : Reflectance(%)
-----------Spectrum Setting ------------
Integration Time : 30ms
Average : 10
Boxcar : 0
Background removal :  enabled
linearity correction :  enabled
SC :  disabled
Intensity correction :  disabled
DWT denoise :  enabled
savitzky-golay :  disabled
FFT :  disabled
Running average :  disabled
Kalman :  disabled
High pass :  disabled
---------------BEGIN--------------------
Wavelength(nm)             Reflectance(%)
200.29               0
200.75        58.23925
201.21        56.83286
201.67        57.56511
202.13        62.28713
202.58        71.69924
203.04        86.35548
203.50        101.1576
203.96        103.5973
204.42        93.40665
204.88          78.686
205.34        66.29741
205.80        59.44554
206.26        56.99423
206.72        57.46899
207.18        61.26434
207.64        67.47269
208.10        73.23299
208.55        77.99966
209.01        79.91529
209.47        79.13581
209.93        76.52931
210.39        72.27654
210.85         67.7568
211.31        64.46467
211.77        62.37383
212.23        61.12614
212.69        60.37526
213.14        59.55149
213.60        58.49799
214.06        58.25003
214.52        58.81632
214.98        60.30533
215.44        62.67784
215.90        65.60578
216.36         69.2495
216.81        73.30408
217.27        76.81277
217.73        79.73863
218.19        80.80198
218.65        78.28189
219.11        72.07854
219.57        62.31065
220.02        51.23092
220.48        45.25085
220.94        46.70959
221.40        54.54843
221.86        64.97749
222.32        71.91578
222.77        73.61803
223.23        71.88985
223.69        68.93626
224.15        67.95002
224.61        69.30545
225.06        71.51779
225.52        73.39957
225.98         74.0236
226.44        73.40974
226.90        72.02809
227.36        70.62525
227.81         70.2945
228.27        71.46516
228.73        73.43439
229.19        75.19788
229.65        75.63257
230.10        74.72163
230.56         73.1366
231.02        71.57734
231.48        70.96058
231.93        71.28963
232.39        72.23096
232.85        73.20976
233.31        73.41005
233.77        72.67496
234.22        71.34651
234.68        69.82789
235.14         68.7268
235.60        68.30992
236.05        68.38742
236.51        68.93022
236.97        69.94601
237.43        71.47055
237.88        73.88445
238.34        76.76687
238.80        79.14502
239.26        80.02804
239.71        79.23308
240.17        77.19476
240.63        75.40802
241.08        74.39357
241.54        73.89479
242.00         73.2885
242.46        71.13157
242.91        66.62581
243.37          58.835
243.83        48.43435
244.28         42.3575
244.74        47.28601
245.20        61.66206
245.66        75.77017
246.11        81.59107
246.57        78.51463
247.03         67.1073
247.48        49.71239
247.94        42.24522
248.40        48.67711
248.85        58.45183
249.31        65.96091
249.77        69.75791
250.22        70.83172
250.68        70.51208
251.14        69.47232
251.59        68.81395
252.05        69.36755
252.51        70.92965
252.96        72.58983
253.42        73.11146
253.88        72.40552
254.33         71.1025
254.79        71.21114
255.25        74.39055
255.70        80.08775
256.16        86.95244
256.62        93.02673
257.07        96.16311
257.53        96.57056
257.99        95.11472
258.44         92.4147
258.90        90.21447
259.35        88.43658
259.81        87.48771
260.27        86.72665
260.72         85.6469
261.18        84.57417
261.63        83.11763
262.09        82.02322
262.55        81.63522
263.00        81.75894
263.46        82.35258
263.91        82.47708
264.37        81.51511
264.83        79.44151
265.28        76.55023
265.74        73.88601
266.19        72.30984
266.65        72.04816
267.11         72.5832
267.56        73.20238
268.02        72.92904
268.47        71.55453
268.93        69.43683
269.38        67.05494
269.84        65.42127
270.30        64.78021
270.75        64.81057
271.21        65.04311
271.66        64.74699
272.12        63.74706
272.57        62.26446
273.03        60.65814
273.48        59.36724
273.94        58.58224
274.39        58.09024
274.85        57.70293
275.31        57.07243
275.76        56.09865
276.22        54.94495
276.67        53.77176
277.13        52.96691
277.58        52.50093
278.04        52.29541
278.49        52.01466
278.95        51.32055
279.40        50.11937
279.86        48.67831
280.31        47.20272
280.77        46.17347
281.22        45.58202
281.68        45.32081
282.13        45.16543
282.59        44.87106
283.04        44.34542
283.50         43.7284
283.95         43.0601
284.41        42.46852
284.86        41.95272
285.32        41.50789
285.77        41.11783
286.22        40.85449
286.68        40.72108
287.13        40.66503
287.59        40.63971
288.04         40.5107
288.50        40.28149
288.95        39.94146
289.41        39.57355
289.86        39.21795
290.32        38.94677
290.77        38.73098
291.22        38.58128
291.68        38.47642
292.13        38.41477
292.59        38.44216
293.04        38.58807
293.50        38.92378
293.95        39.43873
294.40        40.09089
294.86        40.83669
295.31        41.61622
295.77        42.40281
296.22        43.20718
296.68        43.98443
297.13         44.6474
297.58        45.19344
298.04        45.64622
298.49        46.10667
298.95        46.78675
299.40        47.69428
299.85        48.75714
300.31        49.82859
300.76         50.6604
301.21        51.20771
301.67        51.59195
302.12        51.87427
302.58         52.2361
303.03        52.69356
303.48         53.2187
303.94        53.84276
304.39        54.56012
304.84        55.35835
305.30        56.21718
305.75        57.01479
306.20        57.60095
306.66        57.97088
307.11        58.14757
307.57        58.22977
308.02        58.27322
308.47        58.34082
308.93        58.40556
309.38        58.49723
309.83        58.73174
310.29        59.10268
310.74        59.57494
311.19        59.97047
311.65        59.99662
312.10         59.6046
312.55        58.89847
313.00        58.13474
313.46        57.71116
313.91        57.69647
314.36        57.98318
314.82        58.35394
315.27        58.47904
315.72        58.25189
316.18        57.80596
316.63        57.26118
317.08        56.81948
317.53        56.53863
317.99        56.33414
318.44        56.17705
318.89         56.0141
319.35        55.81878
319.80        55.62222
320.25        55.39927
320.70        55.10326
321.16        54.72373
321.61         54.2763
322.06        53.80487
322.51        53.39568
322.97        53.06224
323.42        52.79439
323.87         52.5421
324.32        52.22911
324.78        51.82636
325.23        51.38052
325.68         50.9109
326.13        50.46186
326.59        50.05206
327.04        49.69488
327.49        49.39081
327.94        49.15215
328.39        48.96942
328.85        48.80808
329.30        48.69306
329.75        48.58205
330.20        48.45993
330.66         48.3159
331.11        48.14318
331.56         47.8668
332.01        47.47874
332.46        46.98803
332.92        46.47849
333.37        46.12822
333.82        45.97643
334.27        46.00427
334.72        46.08376
335.17         45.9891
335.63        45.64917
336.08        45.13848
336.53        44.62626
336.98         44.4171
337.43        44.57719
337.88        45.01797
338.34        45.47298
338.79        45.56176
339.24         45.1736
339.69        44.41824
340.14        43.59225
340.59        43.19653
341.05        43.33908
341.50        43.86145
341.95        44.44753
342.40        44.61186
342.85         44.2513
343.30        43.54914
343.75        42.74287
344.20        42.21442
344.66        42.07481
345.11        42.16447
345.56        42.39558
346.01        42.62969
346.46        42.78843
346.91        42.92838
347.36        42.94912
347.81        42.68195
348.26         42.1338
348.72        41.38035
349.17        40.61293
349.62        40.23268
350.07        40.33244
350.52        40.78122
350.97        41.37514
351.42        41.80229
351.87        41.95817
352.32        41.91454
352.77        41.71471
353.22        41.43328
353.67        41.11452
354.13        40.75796
354.58        40.35383
355.03         39.9423
355.48        39.55011
355.93        39.19638
356.38        38.93372
356.83        38.82656
357.28        38.86763
357.73        39.01613
358.18        39.17313
358.63        39.17953
359.08         38.9901
359.53        38.65039
359.98        38.21871
360.43        37.78709
360.88        37.39397
361.33        37.02158
361.78        36.68784
362.23        36.42317
362.68        36.22956
363.13        36.09948
363.58        35.99802
364.03        35.86367
364.48          35.669
364.93        35.41431
365.38        35.09848
365.83         34.7334
366.28        34.33319
366.73         33.9052
367.18        33.46712
367.63        33.04219
368.08        32.64858
368.53        32.30059
368.98        32.00684
369.43        31.76946
369.88        31.58452
370.33        31.44365
370.78        31.34362
371.23        31.28198
371.68        31.24749
372.13        31.22735
372.58        31.19213
373.03        31.10067
373.48        30.94279
373.93        30.72866
374.38        30.48251
374.83        30.24161
375.28        30.01452
375.72        29.78119
376.17        29.55883
376.62        29.33083
377.07        29.10241
377.52        28.89098
377.97        28.69809
378.42        28.52228
378.87        28.36434
379.32        28.21749
379.77        28.10159
380.22         28.0462
380.67        28.04736
381.11        28.09692
381.56        28.12512
382.01        28.03937
382.46        27.82074
382.91        27.49418
383.36         27.1481
383.81        26.91645
384.26        26.82893
384.71        26.85778
385.15        26.90136
385.60        26.81203
386.05         26.5604
386.50        26.19348
386.95        25.84221
387.40        25.71032
387.85        25.82845
388.29        26.11299
388.74        26.40917
389.19        26.47981
389.64        26.28097
390.09        25.87838
390.54        25.42462
390.98        25.15686
391.43        25.14866
391.88        25.30446
392.33        25.46865
392.78        25.41761
393.23        25.12768
393.67         24.6823
394.12        24.25726
394.57        24.00648
395.02        23.96465
395.47        24.07108
395.91         24.2521
396.36        24.35443
396.81        24.33735
397.26        24.23667
397.71         24.1134
398.15        24.03974
398.60        24.06046
399.05        24.13297
399.50         24.1917
399.95        24.14612
400.39        23.98174
400.84        23.72293
401.29        23.46204
401.74         23.3665
402.18        23.47965
402.63        23.73739
403.08         24.0021
403.53        24.05308
403.97        23.84703
404.42        23.46989
404.87        23.05742
405.32        22.83402
405.76        22.85453
406.21        23.04317
406.66        23.29642
407.11        23.45254
407.55        23.46559
408.00        23.39223
408.45        23.27204
408.90        23.11275
409.34         22.9627
409.79         22.9194
410.24        22.94241
410.68        22.87473
411.13        22.71324
411.58        22.55421
412.03        22.41577
412.47        22.29648
412.92        22.20482
413.37        22.13585
413.81        22.11631
414.26        22.20171
414.71         22.3828
415.15        22.64768
415.60        22.88577
416.05        22.94733
416.49        22.79649
416.94        22.47964
417.39        22.11344
417.83        21.88915
418.28        21.86254
418.73        21.97205
419.17        22.12533
419.62        22.16748
420.07         22.0653
420.51         21.8743
420.96        21.66572
421.41        21.52323
421.85        21.46611
422.30        21.47666
422.74         21.5227
423.19        21.59524
423.64        21.67289
424.08        21.76888
424.53        21.84968
424.98        21.88958
425.42        21.88598
425.87        21.84786
426.31        21.77803
426.76        21.69273
427.21        21.58881
427.65        21.45324
428.10        21.34208
428.54        21.31966
428.99        21.39927
429.44        21.65214
429.88        21.91813
430.33        21.80549
430.77        21.38047
431.22        21.09716
431.66        21.03581
432.11        21.07561
432.56        21.19522
433.00        21.48306
433.45         21.7316
433.89          21.612
434.34          21.262
434.78        20.96876
435.23        20.70468
435.67        21.59714
436.12        20.92376
436.57        20.89456
437.01        20.76155
437.46        20.71885
437.90        20.77266
438.35        20.84842
438.79         20.9017
439.24        20.91255
439.68        20.87303
440.13        20.62441
440.57        20.30719
441.02        20.47372
441.46        20.93558
441.91        21.03533
442.35        20.26669
442.80        20.02384
443.24        20.10074
443.69        20.05903
444.13        19.87999
444.58        19.75916
445.02        19.71317
445.47        19.74344
445.91        19.81192
446.36        19.81036
446.80        19.71973
447.24        19.59787
447.69        19.48902
448.13        19.41926
448.58        19.40635
449.02        19.43258
449.47        19.46943
449.91        19.46398
450.36        19.41034
450.80        19.32433
451.25        19.23709
451.69        19.17604
452.13        19.15656
452.58        19.16083
453.02        19.18305
453.47        19.21805
453.91        19.25797
454.36        19.30094
454.80         19.3259
455.24         19.2893
455.69        19.19342
456.13        19.05394
456.58        18.91772
457.02        18.80098
457.46        18.73576
457.91        18.75506
458.35        18.82272
458.79        18.85385
459.24        18.83153
459.68        18.81308
460.13        18.85193
460.57        18.82825
461.01        18.72494
461.46        19.05858
461.90         19.0934
462.34        18.86227
462.79        18.99673
463.23        18.85504
463.68        18.73391
464.12        18.61956
464.56        18.67221
465.01        18.75984
465.45        18.84261
465.89        18.88024
466.34        18.86729
466.78        18.75315
467.22        18.60024
467.67        18.64245
468.11        18.83813
468.55         18.8162
468.99          18.599
469.44        18.52543
469.88         18.6092
470.32        18.66087
470.77        18.65511
471.21        18.64625
471.65        18.63117
472.10         18.5942
472.54          18.557
472.98        18.59326
473.42        18.70554
473.87        18.81564
474.31        18.89119
474.75        18.99986
475.20        19.09316
475.64        18.97949
476.08        18.73907
476.52        18.65945
476.97        18.76269
477.41        18.92235
477.85        19.06773
478.29        19.13892
478.74        19.11601
479.18         18.9878
479.62        18.84499
480.06        18.83204
480.50        18.95059
480.95        19.06985
481.39        19.14048
481.83        19.17768
482.27        19.17251
482.72        19.12149
483.16        19.06864
483.60        19.07092
484.04        19.11371
484.48        19.30646
484.93        19.71064
485.37        19.73237
485.81         19.5207
486.25        20.41594
486.69        21.05769
487.14        20.10702
487.58        19.99864
488.02        20.62491
488.46        20.17821
488.90         20.3292
489.34        20.26741
489.79        20.38342
490.23        20.59204
490.67        20.72145
491.11        20.75821
491.55        20.68856
491.99        20.56773
492.43        20.53661
492.88        20.62587
493.32          20.757
493.76        20.90851
494.20        21.07758
494.64        21.25271
495.08        21.42842
495.52        21.59853
495.96        21.77131
496.41        21.94701
496.85        22.07865
497.29         22.1716
497.73        22.34206
498.17        22.55891
498.61        22.59855
499.05        22.50594
499.49        22.58268
499.93        22.85534
500.37        23.10797
500.82        23.31931
501.26        23.64939
501.70         24.0257
502.14        24.13469
502.58        24.00961
503.02        23.97954
503.46        24.07177
503.90        24.11232
504.34        24.09275
504.78        24.07954
505.22        24.07468
505.66        24.08204
506.10        24.12072
506.54        24.17595
506.98        24.24202
507.42        24.46896
507.86        24.57048
508.30        24.72262
508.74         24.8328
509.18        24.90841
509.62        24.96596
510.06        25.03957
510.50        25.13995
510.94         25.2603
511.38        25.36607
511.82        25.40126
512.26         25.3583
512.70        25.25455
513.14        25.15665
513.58        25.16477
514.02        25.28928
514.46        25.49981
514.90        25.71476
515.34        25.73895
515.78        25.58688
516.22        25.36716
516.66        25.18521
517.10        24.87492
517.54        24.46795
517.98        25.01289
518.42        24.91056
518.86        25.16322
519.30        25.27136
519.74        25.39596
520.18        25.49083
520.62        25.46082
521.06        25.31715
521.50        25.07402
521.93        24.80405
522.37        24.63661
522.81        24.60331
523.25        24.66977
523.69         24.7831
524.13        24.85754
524.57        24.86345
525.01        24.82149
525.45        24.75096
525.89        24.68182
526.32        24.62407
526.76        24.57026
527.20        24.50205
527.64        24.39855
528.08        24.25866
528.52        24.09032
528.96        23.93541
529.40        23.85289
529.83        23.84991
530.27        23.91559
530.71        23.98014
531.15        23.93512
531.59        23.76435
532.03        23.50411
532.46        23.24213
532.90        23.13521
533.34        23.20348
533.78        23.38964
534.22        23.60099
534.66        23.69525
535.09        23.63326
535.53        23.47166
535.97        23.26079
536.41        23.07708
536.85        22.95162
537.28         22.8723
537.72        22.84619
538.16        22.81494
538.60         22.8829
539.04        22.95314
539.47        23.02633
539.91        23.11004
540.35        23.21085
540.79         23.1287
541.22        23.17963
541.66        23.22691
542.10        23.38532
542.54        23.27101
542.97        23.49159
543.41        23.59979
543.85        23.75917
544.29        23.91352
544.72        24.04085
545.16        24.17655
545.60         24.3127
546.04         24.3648
546.47        24.39957
546.91        24.67724
547.35        25.13309
547.79        25.44515
548.22        25.57277
548.66        25.62709
549.10        25.65964
549.53        25.84557
549.97        26.19473
550.41          26.246
550.84        26.48197
551.28        26.63914
551.72        26.88231
552.15        27.14872
552.59        27.43463
553.03        27.74093
553.46        28.00849
553.90        28.17879
554.34        28.24074
554.77        28.21386
555.21        28.16519
555.65        28.18891
556.08         28.3045
556.52        28.48362
556.96        28.67759
557.39        28.84546
557.83        28.96013
558.27        28.96911
558.70        28.91762
559.14        28.93515
559.57        29.02978
560.01        29.17695
560.45        29.32594
560.88        29.36321
561.32         29.3371
561.75        29.34599
562.19        29.51106
562.63        29.60459
563.06        29.65761
563.50        29.73088
563.93        29.81883
564.37        30.00301
564.80        30.12431
565.24         30.2281
565.68        30.27242
566.11         30.3611
566.55        30.51902
566.98        30.63608
567.42        30.68915
567.85        31.04945
568.29        30.91529
568.72        31.24039
569.16        31.70822
569.60        32.00568
570.03        32.08175
570.47        32.18694
570.90        32.19569
571.34        32.48211
571.77         32.3335
572.21        32.79596
572.64        33.06658
573.08        33.16371
573.51        33.07905
573.95        33.82796
574.38        34.14205
574.82        34.39791
575.25        34.44837
575.69        34.23925
576.12        34.20737
576.56        34.09048
576.99        34.03394
577.42        34.29247
577.86        34.45118
578.29        34.27948
578.73        34.71325
579.16        34.28606
579.60        34.41158
580.03        33.99712
580.47        34.02922
580.90        33.76126
581.33        33.47221
581.77        33.51925
582.20        34.11461
582.64        33.45415
583.07        33.21603
583.51        33.11732
583.94          32.455
584.37        32.20261
584.81        31.98077
585.24        31.97751
585.68        32.03532
586.11        32.01122
586.54         31.9162
586.98        31.58687
587.41        31.75974
587.85        31.72347
588.28         31.6436
588.71         31.4934
589.15        31.34607
589.58        30.79636
590.01        31.01553
590.45        31.07345
590.88        31.01916
591.31        30.91757
591.75        30.68328
592.18        30.90572
592.61        30.87041
593.05        31.16306
593.48        30.99224
593.91        31.77227
594.35        31.38746
594.78        31.45993
595.21        31.66547
595.65        32.00572
596.08        31.98583
596.51        32.00666
596.94        31.99244
597.38        32.10661
597.81        32.42721
598.24        32.49763
598.68        33.29212
599.11        33.38096
599.54        34.39632
599.97        34.31863
600.41        34.32677
600.84        35.05894
601.27        35.48597
601.70         35.9527
602.14        36.10125
602.57        36.54974
603.00        37.27261
603.43        37.80673
603.87        38.13879
604.30        38.56983
604.73        39.14862
605.16        39.34195
605.60        40.02129
606.03        40.46456
606.46         40.9894
606.89        41.72614
607.32        42.23068
607.76        42.38779
608.19        42.92921
608.62        43.40541
609.05        43.79972
609.48        43.77412
609.92        44.11659
610.35        44.16631
610.78        45.30444
611.21        46.02918
611.64        45.69407
612.07         46.1778
612.50        46.53988
612.94        46.38036
613.37         47.0724
613.80         47.3906
614.23        47.75404
614.66        48.25263
615.09        48.41138
615.52        48.81178
615.96        49.23417
616.39        49.50923
616.82        49.67436
617.25        49.71505
617.68        49.97255
618.11        50.35532
618.54        50.84496
618.97        50.85873
619.40        50.43218
619.84        50.69178
620.27        50.42121
620.70        50.85742
621.13        51.47506
621.56        51.67909
621.99        51.58043
622.42        51.67795
622.85        52.04473
623.28        52.18488
623.71        52.11571
624.14        52.21273
624.57        51.83933
625.00        52.05033
625.43        52.08582
625.86        51.38483
626.29        51.68315
626.72        51.42031
627.15        51.19933
627.58        51.07655
628.01        51.01812
628.44        50.85041
628.87        50.54569
629.30        50.12717
629.73        49.60593
630.16        49.44898
630.59        48.92549
631.02        48.62082
631.45        48.29443
631.88        47.93504
632.31         47.5242
632.74        47.07777
633.17        46.59858
633.60        46.07056
634.03        45.50179
634.46        44.90134
634.89        44.29472
635.32         43.7226
635.75        43.20095
636.18        42.72832
636.61        42.29021
637.04        41.85608
637.47        41.41291
637.89        40.96777
638.32        40.52537
638.75        40.11973
639.18        39.76127
639.61        39.44706
640.04        39.14896
640.47        38.81929
640.90        38.45329
641.33         38.0704
641.76        37.72272
642.18        37.49764
642.61        37.40563
643.04        37.41759
643.47        37.48051
643.90        37.50641
644.33        37.47138
644.76        37.40756
645.18        37.34018
645.61        37.31277
646.04        37.34636
646.47         37.4275
646.90        37.57772
647.33        37.83685
647.75        38.20613
648.18        38.65781
648.61        39.14462
649.04        39.61652
649.47        40.04724
649.89        40.38583
650.32        40.69312
650.75        41.17429
651.18        41.85437
651.61        42.51365
652.03          43.155
652.46        44.08388
652.89        45.19545
653.32         45.7945
653.74         45.9718
654.17        46.69853
654.60        47.30603
655.03        48.55001
655.46        48.15509
655.88        50.26263
656.31        51.68134
656.74        59.37899
657.16        57.17957
657.59        53.50073
658.02        53.47361
658.45        53.65848
658.87        54.34896
659.30         55.1073
659.73        55.72169
660.15        56.71223
660.58        56.56189
661.01          56.592
661.44        56.55487
661.86         56.9205
662.29        57.64065
662.72        58.34688
663.14        58.89304
663.57        59.01474
664.00        58.85825
664.42        58.97584
664.85        59.43723
665.27        59.87512
665.70        60.20855
666.13        60.51707
666.55        60.78309
666.98        60.97377
667.41        61.12296
667.83        61.28364
668.26        61.46081
668.69        61.64877
669.11        61.82496
669.54        61.94888
669.96        62.02317
670.39        62.07542
670.82        62.14384
671.24        62.26801
671.67        62.47351
672.09         62.7482
672.52        63.03864
672.94         63.3194
673.37        63.50899
673.80         63.3615
674.22        63.00327
674.65        62.87719
675.07        63.05184
675.50        63.29533
675.92        63.51586
676.35        63.61817
676.77        63.57377
677.20        63.42353
677.62        63.25629
678.05        63.21586
678.47        63.33311
678.90         63.5696
679.32         63.8559
679.75        64.07651
680.17        64.18418
680.60        64.23162
681.02        64.26366
681.45        64.21719
681.87        64.14809
682.30        64.34177
682.72        64.69121
683.15        64.54241
683.57        64.02487
684.00        63.92608
684.42         64.3662
684.85        64.58353
685.27        64.57942
685.70        64.74926
686.12        65.03724
686.54        65.20082
686.97        65.22414
687.39        65.14369
687.82        64.98782
688.24        64.96017
688.66        65.10749
689.09        64.88356
689.51        65.15449
689.94        65.15573
690.36        65.13821
690.78        65.13233
691.21        65.15231
691.63        65.13746
692.06         65.0639
692.48        65.29661
692.90         64.9537
693.33        65.38077
693.75        65.18804
694.17        65.38972
694.60        65.56811
695.02         65.3773
695.44        64.89664
695.87        64.84249
696.29         65.1946
696.71        65.06354
697.14        64.61584
697.56         64.9528
697.98        65.89513
698.41        66.35946
698.83        66.15554
699.25        65.93237
699.68        65.77045
700.10        65.63423
700.52        65.57955
700.94         65.6178
701.37        65.68761
701.79        65.75113
702.21        65.76338
702.64        65.73759
703.06        65.72247
703.48        65.80293
703.90         65.9909
704.33        66.25076
704.75        66.48109
705.17        66.48926
705.59        66.24705
706.01        65.82204
706.44         65.3998
706.86        65.27715
707.28        65.50814
707.70        65.98729
708.12        66.54037
708.55        66.88921
708.97        66.95734
709.39        66.83693
709.81        66.60718
710.23        66.41039
710.66        66.30875
711.08        66.26232
711.50        66.26315
711.92        66.31751
712.34        66.41923
712.76         66.5836
713.19        66.75615
713.61        66.89144
714.03        66.94289
714.45        66.91993
714.87           66.88
715.29        66.90223
715.71        66.99981
716.13        67.19673
716.56        67.40341
716.98        67.42351
717.40        67.26095
717.82         67.2285
718.24        67.33575
718.66         67.3369
719.08        67.22775
719.50        67.18318
719.92        67.19798
720.34        67.11761
720.76        66.97697
721.19        66.96999
721.61        67.08208
722.03        67.10207
722.45        67.03788
722.87        66.98102
723.29        66.98156
723.71        67.06534
724.13        67.24229
724.55        67.50291
724.97        67.80011
725.39        68.01411
725.81        68.10618
726.23        68.17338
726.65        68.28035
727.07        68.11185
727.49        68.36323
727.91        68.46463
728.33        68.56958
728.75         68.5802
729.17        68.48878
729.59        68.33083
730.01        68.15614
730.43        68.05749
730.85        68.05858
731.27        68.12649
731.69        68.24401
732.10        68.39481
732.52        68.55037
732.94        68.70604
733.36        68.79835
733.78        68.81747
734.20        68.78083
734.62        68.54389
735.04        68.12003
735.46         68.4559
735.88        68.09861
736.30        68.17913
736.72        68.28418
737.13        68.49404
737.55        68.71454
737.97        69.03548
738.39        69.34734
738.81        69.18953
739.23         68.7061
739.65        68.61143
740.06        68.85322
740.48         69.0121
740.90         69.0135
741.32        68.42863
741.74        68.27818
742.16        68.13191
742.57        68.31569
742.99        68.57705
743.41        68.83347
743.83        69.01244
744.25        69.05869
744.67        68.98425
745.08        68.83677
745.50        68.67435
745.92        68.53915
746.34        68.41167
746.75        68.29552
747.17         68.1927
747.59         68.1069
748.01        68.09301
748.42        68.16109
748.84         68.2382
749.26        68.31337
749.68        68.61135
750.09        68.44131
750.51        68.89559
750.93        69.54776
751.35        69.45863
751.76        68.73707
752.18        68.39722
752.60        68.50407
753.01        68.50912
753.43        68.38932
753.85        68.40656
754.27        68.56161
754.68        68.80574
755.10         69.0612
755.52        69.18302
755.93        69.15836
756.35        69.08711
756.77        69.02414
757.18        69.03675
757.60        69.20619
758.02        69.35821
758.43        69.36372
758.85        69.65078
759.26         70.1361
759.68        68.96425
760.10        69.35656
760.51        69.15057
760.93        69.42165
761.34         68.5241
761.76        69.11222
762.18        68.77579
762.59        68.40067
763.01        68.27869
763.42        68.54126
763.84        69.00468
764.26        69.48871
764.67        69.61512
765.09        69.54278
765.50        69.35992
765.92        70.08521
766.33        70.17485
766.75        69.84097
767.16        69.40516
767.58         68.9514
768.00        68.56815
768.41        68.41803
768.83        68.56808
769.24         68.9614
769.66        69.62994
770.07        70.29295
770.49         70.2156
770.90        69.57062
771.32        69.49178
771.73        69.98147
772.15        70.07775
772.56        69.76511
772.97        69.59094
773.39        69.53828
773.80        69.38162
774.22          69.104
774.63        68.76633
775.05        68.48552
775.46        68.48467
775.88         68.7754
776.29        69.31722
776.70        69.87856
777.12        70.10305
777.53        69.91748
777.95        69.39941
778.36         68.7982
778.77        68.54124
779.19        68.73576
779.60        69.29829
780.02        69.93674
780.43        70.35069
780.84        70.44345
781.26         69.9414
781.67        69.21406
782.09         69.7449
782.50        71.18579
782.91        71.32801
783.33        70.23244
783.74        69.87926
784.15        70.32976
784.57        70.41795
784.98        70.10464
785.39        69.88889
785.81         69.7821
786.22        69.62264
786.63        69.44872
787.04        69.38315
787.46        69.43288
787.87        69.54786
788.28        69.73303
788.70        69.94382
789.11        70.14195
789.52        70.43732
789.93          70.749
790.35        70.69368
790.76        70.35904
791.17        70.32673
791.58        70.57799
792.00        70.47529
792.41        70.01807
792.82        69.83543
793.23        69.88351
793.65        69.41125
794.06        68.72728
794.47        69.01167
794.88        70.02604
795.29        71.04102
795.71        70.88555
796.12        70.69585
796.53        70.60359
796.94        70.05024
797.35        69.38116
797.76        69.33101
798.18        69.82683
798.59         70.0549
799.00        69.94261
799.41         70.0152
799.82        70.26305
800.23        70.40279
800.64        70.41039
801.06        70.31911
801.47        70.23125
801.88         70.2578
802.29        70.41439
802.70        70.64236
803.11        70.83095
803.52        70.80251
803.93        70.54349
804.34        70.14673
804.75         69.7145
805.17        69.48997
805.58        69.56462
805.99        69.56596
806.40        69.55719
806.81        70.33131
807.22        71.51425
807.63        71.53568
808.04        70.55886
808.45         70.0891
808.86        70.36103
809.27        70.91503
809.68        71.55688
810.09        71.91441
810.50        71.86933
810.91         71.7123
811.32        71.52427
811.73        71.20625
812.14         70.7853
812.55        70.48036
812.96        70.29359
813.37        69.78916
813.78        69.19048
814.19        69.47229
814.60        70.40221
815.01        70.80635
815.42        70.58764
815.83        70.33005
816.24        70.17442
816.65        70.11199
817.05         70.2102
817.46        70.41795
817.87        70.65011
818.28        70.73599
818.69        70.65564
819.10         70.4735
819.51        70.28441
819.92        70.32949
820.33        70.67192
820.74        70.99433
821.14        71.27462
821.55         71.9819
821.96        72.83312
822.37         72.6507
822.78        71.60319
823.19        71.05721
823.60         71.1517
824.00        71.16235
824.41        70.97797
824.82        70.86694
825.23        70.81857
825.64        70.78261
826.04        70.79509
826.45        70.85456
826.86        70.96755
827.27        71.13454
827.68         71.2998
828.08        71.39241
828.49        71.34039
828.90         71.1796
829.31        70.99673
829.72        70.94775
830.12        71.08561
830.53        71.33084
830.94        71.56567
831.35        71.57821
831.75         71.3528
832.16        70.92016
832.57        70.45219
832.97        70.21804
833.38        70.27727
833.79        70.54698
834.20        70.89902
834.60        71.12558
835.01        71.18217
835.42        71.13726
835.82        71.04113
836.23        70.92434
836.64        70.83135
837.04        70.73035
837.45        70.65968
837.86        70.73476
838.26        70.97936
838.67        71.34351
839.08        71.69298
839.48        71.75654
839.89        71.47692
840.29         70.9634
840.70        70.46145
841.11        70.26222
841.51         70.4506
841.92        70.89101
842.33        71.49196
842.73        72.09406
843.14        72.52188
843.54        72.86411
843.95        73.03579
844.35         72.9838
844.76        72.72666
845.17        72.30551
845.57        71.83345
845.98        71.51618
846.38        71.40808
846.79        71.45107
847.19         71.6652
847.60        71.94178
848.00         72.2772
848.41        72.62645
848.81        72.94703
849.22        73.08994
849.62        73.06713
850.03        72.85616
850.43        72.57265
850.84        72.34531
851.24        72.28363
851.65        72.30428
852.05        72.40529
852.46        72.50119
852.86        72.57716
853.27        72.56929
853.67        72.45499
854.07        72.60606
854.48        72.87475
854.88        72.61733
855.29        71.92941
855.69        71.73128
856.10        72.04539
856.50        72.49716
856.90        72.87534
857.31         73.0371
857.71        72.97675
858.12        72.68777
858.52        72.34165
858.92        72.09425
859.33        71.98003
859.73        71.97213
860.13        72.05968
860.54        72.22943
860.94        72.49801
861.34        72.83463
861.75        73.05096
862.15        72.93666
862.55        72.42136
862.96        71.60212
863.36        70.71318
863.76        70.12983
864.17        69.96616
864.57        70.14993
864.97        70.54939
865.38        70.92837
865.78         71.2505
866.18        71.50037
866.58        71.66635
866.99        71.73965
867.39         71.7565
867.79        71.67303
868.19        71.39071
868.60        70.75591
869.00        69.74058
869.40        68.46053
869.80        67.27027
870.21         66.7444
870.61        67.07369
871.01        68.04608
871.41        69.21533
871.81        69.85831
872.22        69.81615
872.62        69.31337
873.02        68.60153
873.42        68.31966
873.82        68.40817
874.22        68.13542
874.63         67.7154
875.03        67.69611
875.43        68.11851
875.83        69.88042
876.23        69.78667
876.63        69.11544
877.03        67.29517
877.44        64.45454
877.84        133.3107
878.24        64.15157
878.64        65.74171
879.04         70.2466
879.44        66.98022
879.84        65.22198
880.24        69.93688
880.64        70.17499
881.04        67.07558
881.44        65.09291
881.84        64.93922
882.24        65.88159
882.65         67.3028
883.05        67.95505
883.45        67.44135
883.85        66.50253
884.25        65.63957
884.65        65.28836
885.05        65.58921
885.45        66.34914
885.85          67.226
886.25         67.6837
886.65        67.56335
887.05        67.04965
887.45        66.41579
887.85        66.05824
888.25        66.09151
888.65        66.39945
889.04        66.84046
889.44        67.10588
889.84        67.12768
890.24        66.98371
890.64        66.80318
891.04        66.77864
891.44        66.92321
891.84        67.12705
892.24        67.24084
892.64        67.02518
893.04        66.46515
893.44        65.74496
893.83        64.95208
894.23        64.21812
894.63        63.59292
895.03        63.02032
895.43          62.701
895.83        62.97011
896.23        63.83221
896.63        65.16753
897.02        66.50018
897.42        66.96703
897.82         66.3888
898.22        65.04862
898.62        63.47033
899.01        62.46819
899.41        62.28891
899.81        62.66217
900.21        63.37358
900.61        64.09562
901.00        64.67827
901.40        65.19546
901.80        65.59667
902.20        65.76473
902.59        65.69756
902.99        65.41438
903.39        64.97709
903.79        64.51917
904.18        64.11625
904.58        63.79967
904.98        63.70329
905.38         64.0256
905.77        64.74681
906.17        65.77406
906.57        66.80882
906.96        67.40767
907.36        67.40941
907.76        66.91903
908.15        66.18346
908.55        65.55869
908.95        65.18661
909.34        65.02634
909.74        64.89432
910.14        64.45679
910.53        63.66735
910.93         62.7224
911.33        62.01542
911.72        62.15614
912.12        63.17555
912.52        64.76519
912.91        66.40617
913.31        67.22558
913.70        67.06639
914.10        66.16804
914.49        64.80633
914.89        63.66639
915.29        63.05205
915.68         62.8065
916.08        62.91774
916.47        63.34511
916.87         63.9698
917.26        64.78521
917.66        65.57763
918.05        66.01582
918.45        65.99271
918.84        65.64613
919.24         65.0006
919.64        64.13848
920.03        63.17532
920.42        62.12888
920.82        61.39481
921.21        61.52824
921.61        62.52931
922.00         64.2639
922.40        66.04581
922.79        66.97295
923.19        66.81053
923.58        65.56578
923.98         63.6653
924.37        62.73764
924.77        63.38313
925.16         61.3237
925.55        63.39209
925.95        63.52643
926.34        63.70852
926.74        63.85709
927.13        64.07514
927.52        64.27254
927.92        64.39737
928.31        64.51664
928.70        64.56409
929.10        64.50082
929.49        64.32748
929.89        64.05238
930.28        63.84615
930.67        63.97241
931.07        64.43964
931.46         65.2238
931.85        65.98621
932.24        66.23367
932.64        65.86169
933.03        64.89867
933.42        63.73077
933.82        63.15617
934.21        63.35764
934.60        64.11891
934.99         64.7222
935.39        64.49945
935.78        63.38039
936.17        60.93132
936.56        57.53937
936.96        58.52464
937.35        57.87923
937.74        60.22342
938.13        62.62895
938.53        64.17111
938.92        64.72456
939.31        64.63924
939.70        64.21103
940.09        63.81811
940.49        63.68043
940.88        63.69331
941.27        63.85945
941.66        64.24122
942.05        64.79973
942.44        65.48327
942.84        66.25489
943.23        67.03215
943.62        67.71929
944.01        68.35568
944.40          68.644
944.79        68.12615
945.18        66.75964
945.57        64.64203
945.97        62.51474
946.36        61.67679
946.75        62.51891
947.14        64.58144
947.53        66.87675
947.92        68.04636
948.31        67.82654
948.70        66.61574
949.09        64.99061
949.48        63.96656
949.87        63.87489
950.26        64.39091
950.65        65.12708
951.04        65.45751
951.43        65.19418
951.82        64.59306
952.21        63.90217
952.60        63.47258
952.99        63.40574
953.38        63.54044
953.77        63.76165
954.16        63.91849
954.55        63.94757
954.94         63.9164
955.33        63.81366
955.72        63.60004
956.11        63.29479
956.50        62.91023
956.89        62.54749
957.28        62.41489
957.66        62.58104
958.05        62.90075
958.44        63.29184
958.83        63.63034
959.22        63.87333
959.61        64.07393
960.00        64.10658
960.39        63.76656
960.78        63.04654
961.16        61.97873
961.55        60.95536
961.94        60.46179
962.33        60.59169
962.72         61.2416
963.11        61.99249
963.49        62.12186
963.88        61.38756
964.27        60.05173
964.66        58.64663
965.04        58.04749
965.43        58.46037
965.82        59.61188
966.21        61.01329
966.60        61.86626
966.98        61.95372
967.37         61.5016
967.76        60.86568
968.15        60.59851
968.53          60.864
968.92        61.37357
969.31        61.93255
969.69         62.2391
970.08        62.12955
970.47        61.76178
970.86        61.15145
971.24        60.26611
971.63        59.22227
972.02        58.06694
972.40        56.98603
972.79          56.333
973.17        56.23363
973.56        56.53984
973.95        57.21333
974.33         58.1395
974.72        59.07132
975.11        59.96822
975.49        60.58033
975.88        60.53707
976.26        59.81822
976.65        58.61143
977.04         57.1359
977.42        55.80402
977.81        54.83601
978.19        54.12571
978.58        53.90616
978.96        54.52721
979.35        55.93524
979.74        58.13555
980.12         60.4694
980.51        61.49078
980.89         60.9829
981.28         59.2892
981.66         57.4226
982.05        56.82076
982.43        57.70998
982.82        59.62575
983.20        61.86901
983.59        62.88844
983.97         62.3012
984.35        60.52252
984.74        58.33037
985.12        56.81341
985.51         56.3149
985.89        56.49232
986.28         57.0167
986.66        57.28426
987.04        57.01496
987.43        56.52552
987.81        55.87776
988.20        55.05803
988.58        53.99747
988.96        52.49549
989.35        50.80417
989.73         49.7895
990.12        49.93892
990.50        51.12817
990.88         52.5044
991.27        53.00763
991.65        52.68225
992.03        51.77934
992.42        50.97042
992.80        51.46222
993.18        53.51631
993.56        56.39896
993.95        59.27377
994.33        61.45819
994.71        62.59309
995.10         62.9654
995.48        62.62935
995.86        61.54631
996.24         59.8138
996.63        57.41619
997.01        54.73115
997.39         53.0173
997.77        52.84978
998.15        53.85828
998.54        55.38984
998.92         56.7068
999.30        57.66699
999.68        58.58281
1000.06        58.97112
1000.45        57.69978
1000.83        54.89507
1001.21        51.33268
1001.59        48.44593
1001.97        47.25527
1002.35         47.5385
1002.73        49.02192
1003.12        50.99981
1003.50        51.75136
1003.88        50.50983
1004.26         47.9436
1004.64        44.96329
1005.02        42.78909
1005.40        41.77433
1005.78        41.49619
1006.16        42.19171
1006.54         44.1564
1006.92        46.82647
1007.30        49.64143
1007.69        51.71484
1008.07        52.37512
1008.45        51.41764
1008.83        48.70607
1009.21        43.70685
1009.59        37.05778
1009.97        30.69123
1010.35        25.78976
1010.73         23.9945
1011.11        25.74186
1011.49        30.13613
1011.86        36.83848
1012.24        42.98478
1012.62        46.01485
1013.00        45.73321
1013.38        42.92792
1013.76        39.14501
1014.14        37.16864
1014.52        37.80275
1014.90        40.26583
1015.28        43.07997
1015.66         43.7347
1016.04        41.41425
1016.41        36.69839
1016.79        31.02544
1017.17        27.87376
1017.55        28.66106
1017.93         31.8168
1018.31        35.46898
1018.69        38.03754
1019.06        39.25924
1019.44        39.35171
1019.82        38.42704
1020.20        36.61252
1020.58        34.15311
1020.95        31.32403
1021.33        27.52578
1021.71        20.56573
1022.09        8.194097
1022.46       -15.42361
1022.84       -50.75539
1023.22       -62.38562
1023.60       -30.21274
1023.97        7.217059
1024.35        28.96763
1024.73        36.88967
