SpectraSmart Spectrum 2.9.0.0
--------- Device Information -----------
Spectrum Name :  反射率_0
Saving Time :  2024/04/20 00:57:16
Spectro-Module Model Name : SE2030-DUVN
Spectro-Module Serial Number : OS361AC55029948
Wavelength Start : 200
Wavelength End : 1025
Wavelength Unit : Wavelength(nm)
Spectrum Unit : Reflectance(%)
-----------Spectrum Setting ------------
Integration Time : 30ms
Average : 10
Boxcar : 0
Background removal :  enabled
linearity correction :  enabled
SC :  disabled
Intensity correction :  disabled
DWT denoise :  enabled
savitzky-golay :  disabled
FFT :  disabled
Running average :  disabled
Kalman :  disabled
High pass :  disabled
---------------BEGIN--------------------
Wavelength(nm)             Reflectance(%)
200.29               0
200.75        50.41538
201.21        48.99559
201.67        49.31633
202.13        52.80619
202.58        60.02448
203.04        71.22862
203.50        83.43045
203.96        88.25411
204.42        84.35311
204.88        76.58836
205.34        68.92595
205.80        63.03172
206.26        57.98021
206.72        51.88478
207.18        44.80682
207.64        41.24218
208.10        45.34905
208.55        55.70846
209.01        65.22433
209.47        68.54288
209.93        66.34454
210.39        60.87348
210.85        54.83224
211.31        51.04193
211.77        49.83817
212.23        50.44544
212.69        52.36478
213.14        53.80292
213.60        53.43388
214.06        52.79951
214.52        52.71249
214.98        53.81068
215.44        56.05291
215.90        58.94442
216.36        62.37808
216.81        65.59088
217.27        67.65269
217.73        68.85721
218.19        68.37779
218.65        64.98158
219.11        58.55781
219.57        48.98627
220.02        38.28367
220.48        32.39334
220.94        33.40435
221.40        40.55844
221.86        49.83014
222.32        54.74253
222.77        53.82227
223.23        49.17633
223.69        44.29569
224.15        44.11766
224.61        48.45204
225.06        54.39884
225.52        59.41909
225.98        61.56511
226.44        60.87483
226.90        58.33743
227.36        54.84548
227.81         51.9005
228.27        50.51319
228.73        50.19404
229.19        50.49501
229.65        50.87052
230.10        51.13015
230.56         51.4115
231.02        51.93167
231.48        52.97963
231.93        54.43983
232.39        56.14722
232.85        57.50788
233.31        57.65645
233.77         56.4803
234.22        54.28917
234.68        51.79577
235.14        50.17944
235.60         49.8489
236.05        50.51203
236.51         51.7376
236.97        52.84575
237.43        53.66312
237.88        54.57155
238.34         55.5179
238.80         56.6514
239.26        57.79744
239.71        58.52212
240.17        58.68442
240.63        58.81949
241.08        59.11398
241.54        59.50483
242.00        59.35565
242.46        57.22604
242.91        52.24812
243.37        43.26884
243.83        30.65978
244.28        21.66163
244.74        24.27147
245.20        37.98364
245.66        52.72139
246.11        59.31351
246.57        57.11233
247.03        47.18391
247.48         32.9099
247.94        30.52231
248.40        41.14201
248.85        53.13956
249.31        61.54844
249.77        65.67624
250.22        66.76824
250.68        66.16472
251.14        64.21502
251.59        61.45561
252.05        58.66254
252.51        55.83086
252.96        53.18025
253.42        51.38473
253.88        50.76406
254.33        51.35342
254.79        53.62326
255.25        57.62214
255.70        62.78671
256.16          68.347
256.62        73.02343
257.07        75.46816
257.53        75.79574
257.99        74.41321
258.44        71.80793
258.90        69.48697
259.35         67.4744
259.81        66.19599
260.27        64.96466
260.72        63.13623
261.18        61.01102
261.63        58.43569
262.09        56.39375
262.55        55.71395
263.00        56.25052
263.46        57.61955
263.91        58.70123
264.37        58.50858
264.83        57.01403
265.28        54.63322
265.74        52.39587
266.19        51.25818
266.65        51.40953
267.11        52.30939
267.56        53.29417
268.02        53.42301
268.47        52.51678
268.93         50.9292
269.38         49.0495
269.84         47.7194
270.30        47.15006
270.75        47.08278
271.21        47.20095
271.66        47.02507
272.12        46.41754
272.57        45.53106
273.03        44.56778
273.48        43.73536
273.94        43.15366
274.39        42.70457
274.85         42.3027
275.31        41.78007
275.76        41.08119
276.22         40.2925
276.67        39.50639
277.13        38.97794
277.58        38.67109
278.04        38.54077
278.49        38.33384
278.95        37.78474
279.40        36.82728
279.86        35.66402
280.31        34.46875
280.77        33.64079
281.22         33.1766
281.68        32.98896
282.13        32.88546
282.59        32.63388
283.04        32.17006
283.50        31.61953
283.95        31.05397
284.41        30.62025
284.86        30.32658
285.32        30.14219
285.77        30.02542
286.22        29.99256
286.68        30.01887
287.13        30.06621
287.59        30.08937
288.04        29.98577
288.50        29.76069
288.95        29.41144
289.41        29.00886
289.86        28.58326
290.32        28.21431
290.77        27.89983
291.22        27.68355
291.68        27.59028
292.13        27.62419
292.59        27.78871
293.04        28.09209
293.50        28.56103
293.95        29.16796
294.40        29.88457
294.86        30.62132
295.31        31.25208
295.77        31.75336
296.22        32.15786
296.68        32.54347
297.13        33.02187
297.58        33.63216
298.04        34.34113
298.49        35.10397
298.95        35.89083
299.40        36.66202
299.85        37.42563
300.31        38.15939
300.76        38.81834
301.21         39.4001
301.67        39.94458
302.12        40.44044
302.58        40.94522
303.03        41.44893
303.48        41.95866
303.94        42.53085
304.39        43.20332
304.84        43.97571
305.30        44.81149
305.75        45.58756
306.20        46.14687
306.66        46.48132
307.11        46.62588
307.57         46.6885
308.02        46.75039
308.47        46.87331
308.93        47.02451
309.38        47.21042
309.83        47.49876
310.29        47.87531
310.74        48.32034
311.19        48.69904
311.65        48.79081
312.10        48.55754
312.55        48.07162
313.00        47.52899
313.46        47.23388
313.91        47.23999
314.36        47.47813
314.82         47.7761
315.27        47.87629
315.72        47.69554
316.18        47.32832
316.63        46.90036
317.08        46.61803
317.53        46.52483
317.99        46.53876
318.44        46.55554
318.89        46.39893
319.35        46.02675
319.80        45.50874
320.25        44.94053
320.70        44.47054
321.16        44.13905
321.61        43.90982
322.06        43.72308
322.51        43.48641
322.97        43.16323
323.42        42.79298
323.87        42.40582
324.32        42.05474
324.78        41.74865
325.23        41.48319
325.68        41.21688
326.13        40.89455
326.59        40.50619
327.04        40.09712
327.49        39.71657
327.94        39.44912
328.39        39.30721
328.85        39.23378
329.30        39.21691
329.75        39.17116
330.20        39.06143
330.66         38.8923
331.11        38.66463
331.56        38.31863
332.01        37.85665
332.46        37.29122
332.92        36.71188
333.37         36.2937
333.82        36.08626
334.27         36.0741
334.72        36.15678
335.17        36.14897
335.63        35.98447
336.08        35.71496
336.53        35.45206
336.98        35.40356
337.43          35.606
337.88        35.98571
338.34        36.33539
338.79        36.37309
339.24        36.01735
339.69        35.35823
340.14        34.63349
340.59        34.24183
341.05        34.27527
341.50        34.62097
341.95        35.04799
342.40        35.19648
342.85        34.98281
343.30        34.53637
343.75         34.0175
344.20        33.68404
344.66        33.60587
345.11        33.66327
345.56        33.79165
346.01        33.89185
346.46         33.9133
346.91        33.90564
347.36        33.80518
347.81        33.50058
348.26        33.00561
348.72        32.38386
349.17        31.77663
349.62        31.49854
350.07        31.61493
350.52        32.01429
350.97          32.526
351.42        32.89093
351.87        33.02307
352.32        32.98549
352.77        32.80325
353.22        32.52274
353.67        32.18532
354.13        31.80056
354.58        31.40046
355.03         31.0815
355.48        30.87448
355.93         30.7747
356.38        30.76769
356.83        30.81646
357.28        30.89083
357.73        30.97607
358.18        31.04102
358.63        31.03996
359.08         30.9568
359.53        30.80452
359.98        30.57462
360.43        30.25848
360.88        29.87496
361.33         29.4402
361.78        29.03712
362.23        28.79819
362.68        28.74393
363.13        28.82591
363.58        28.94341
364.03        28.93646
364.48        28.75909
364.93        28.45345
365.38        28.06398
365.83        27.67648
366.28         27.3308
366.73        27.00354
367.18        26.70865
367.63        26.46653
368.08        26.27572
368.53        26.14232
368.98        26.02825
369.43        25.86255
369.88        25.63421
370.33        25.36498
370.78        25.09773
371.23        24.91207
371.68        24.82899
372.13        24.81337
372.58        24.84354
373.03        24.88429
373.48         24.9078
373.93        24.91668
374.38        24.87009
374.83        24.70607
375.28        24.42133
375.72        24.02855
376.17        23.61683
376.62        23.29263
377.07        23.09443
377.52         22.9986
377.97        22.96916
378.42        22.94307
378.87        22.89603
379.32        22.84234
379.77        22.78811
380.22        22.74057
380.67        22.69938
381.11        22.65821
381.56        22.59208
382.01         22.4857
382.46        22.33623
382.91        22.14617
383.36         21.9518
383.81        21.80407
384.26        21.71379
384.71        21.67967
385.15         21.6399
385.60        21.50481
386.05        21.26256
386.50        20.94027
386.95        20.64568
387.40        20.54793
387.85         20.6674
388.29        20.93528
388.74        21.20873
389.19        21.27541
389.64        21.09719
390.09        20.73622
390.54        20.32603
390.98        20.07544
391.43        20.05287
391.88        20.17524
392.33        20.32006
392.78        20.31168
393.23        20.12465
393.67         19.8175
394.12         19.5197
394.57        19.33776
395.02         19.2965
395.47        19.35458
395.91        19.45171
396.36        19.46568
396.81        19.37286
397.26         19.2059
397.71          19.039
398.15        18.96489
398.60        19.01961
399.05        19.15384
399.50        19.28073
399.95        19.27744
400.39        19.12168
400.84        18.84937
401.29        18.55738
401.74        18.42321
402.18        18.50066
402.63        18.72669
403.08        18.98069
403.53        19.06885
403.97        18.94824
404.42        18.69013
404.87        18.40616
405.32        18.28039
405.76        18.35266
406.21        18.55435
406.66        18.78585
407.11        18.89372
407.55        18.83974
408.00        18.68167
408.45        18.47334
408.90        18.26154
409.34         18.1021
409.79        18.06264
410.24        18.10692
410.68        18.10258
411.13        18.03939
411.58        17.99577
412.03        17.96734
412.47        17.91936
412.92        17.85021
413.37        17.76156
413.81        17.69925
414.26        17.75028
414.71        17.91631
415.15        18.17657
415.60        18.41923
416.05        18.48789
416.49        18.34315
416.94        18.03744
417.39          17.682
417.83         17.4572
418.28        17.41888
418.73        17.51056
419.17        17.64995
419.62        17.69689
420.07        17.62114
420.51        17.46973
420.96        17.30875
421.41        17.21736
421.85        17.21001
422.30        17.26674
422.74        17.34416
423.19        17.41122
423.64        17.44775
424.08        17.47324
424.53        17.47943
424.98        17.48225
425.42        17.48947
425.87        17.49508
426.31        17.48483
426.76        17.44777
427.21        17.37308
427.65        17.26053
428.10        17.15384
428.54        17.10097
428.99        17.11884
429.44        17.26696
429.88        17.43983
430.33        17.35672
430.77        17.07088
431.22         16.9303
431.66         16.9748
432.11        17.06708
432.56        17.17862
433.00         17.3904
433.45        17.54373
433.89        17.42098
434.34        17.14969
434.78        16.90021
435.23        16.64494
435.67        17.46378
436.12         16.9157
436.57        16.85861
437.01        16.64437
437.46        16.56408
437.90        16.63255
438.35        16.72466
438.79        16.79016
439.24        16.81544
439.68        16.78822
440.13        16.57775
440.57        16.30998
441.02        16.44771
441.46        16.84165
441.91        16.95636
442.35        16.36111
442.80        16.15429
443.24        16.16662
443.69        16.05772
444.13        15.83323
444.58        15.68421
445.02        15.63219
445.47        15.66688
445.91        15.74632
446.36        15.76592
446.80        15.70155
447.24        15.60396
447.69        15.50595
448.13        15.42185
448.58        15.36883
449.02          15.337
449.47        15.31246
449.91         15.2688
450.36        15.20629
450.80        15.13079
451.25        15.07026
451.69        15.04978
452.13        15.07695
452.58        15.13313
453.02        15.19362
453.47        15.22025
453.91        15.20535
454.36        15.16084
454.80        15.09654
455.24        15.03014
455.69         14.9773
456.13        14.91636
456.58        14.87285
457.02        14.87622
457.46        14.92429
457.91        14.97265
458.35         14.9973
458.79        14.99789
459.24        14.96668
459.68        14.90816
460.13        14.88231
460.57        14.83951
461.01        14.77405
461.46        15.08173
461.90        15.16362
462.34        15.01009
462.79        15.11637
463.23        14.98028
463.68        14.85705
464.12        14.76523
464.56        14.83863
465.01        14.95895
465.45        15.07431
465.89        15.12434
466.34         15.1013
466.78        14.97671
467.22        14.81691
467.67        14.83418
468.11        15.00268
468.55        15.01813
468.99        14.88795
469.44        14.86751
469.88        14.96216
470.32        15.02336
470.77         15.0292
471.21         15.0227
471.65        15.00231
472.10        14.95759
472.54        14.90935
472.98        14.92568
473.42        15.01239
473.87        15.10536
474.31        15.18085
474.75        15.29358
475.20        15.40352
475.64        15.35484
476.08        15.20524
476.52         15.1784
476.97        15.29035
477.41        15.44037
477.85        15.57437
478.29        15.65057
478.74        15.65336
479.18        15.56816
479.62         15.4663
480.06        15.46298
480.50        15.55758
480.95        15.64564
481.39        15.68502
481.83         15.6808
482.27        15.63085
482.72        15.54796
483.16        15.47265
483.60         15.4591
484.04        15.52071
484.48         15.7008
484.93        16.01748
485.37        16.19169
485.81         16.4249
486.25        16.95195
486.69         17.8096
487.14        17.34369
487.58         16.8379
488.02        17.38202
488.46        17.01076
488.90        17.10042
489.34        16.91916
489.79        17.04378
490.23        17.38909
490.67        17.59423
491.11        17.62888
491.55        17.55582
491.99        17.42612
492.43        17.35515
492.88        17.37935
493.32        17.42147
493.76        17.49739
494.20        17.66833
494.64        17.93186
495.08        18.26128
495.52        18.60057
495.96        18.87567
496.41        19.06563
496.85        19.15206
497.29        19.17583
497.73        19.29789
498.17        19.50858
498.61        19.59469
499.05        19.57638
499.49        19.68489
499.93        19.93497
500.37        20.15563
500.82          20.332
501.26        20.60709
501.70        20.92181
502.14        20.99791
502.58        20.88199
503.02        20.88977
503.46         21.0458
503.90        21.18786
504.34        21.27094
504.78        21.29395
505.22        21.24935
505.66        21.15103
506.10        21.05149
506.54        21.02715
506.98        21.09938
507.42        21.25347
507.86        21.45351
508.30        21.61413
508.74        21.74986
509.18         21.8398
509.62        21.91362
510.06        22.00048
510.50        22.10831
510.94          22.228
511.38        22.32781
511.82        22.36091
512.26        22.32159
512.70        22.22663
513.14         22.1344
513.58        22.13151
514.02        22.22687
514.46        22.39395
514.90        22.56602
515.34        22.57534
515.78        22.43207
516.22        22.24799
516.66        22.10933
517.10        21.80976
517.54         21.3754
517.98        21.91203
518.42        21.76996
518.86        22.01674
519.30        22.13952
519.74        22.29477
520.18        22.43535
520.62        22.46482
521.06        22.38925
521.50        22.22102
521.93        22.01232
522.37        21.85979
522.81        21.79073
523.25        21.78243
523.69        21.81097
524.13         21.8359
524.57        21.84044
525.01        21.83516
525.45        21.82041
525.89        21.79464
526.32        21.75716
526.76         21.7066
527.20        21.63864
527.64        21.55394
528.08        21.45477
528.52        21.34149
528.96        21.23203
529.40        21.15066
529.83        21.10111
530.27        21.08452
530.71        21.06825
531.15        21.00149
531.59        20.87901
532.03        20.71807
532.46        20.56546
532.90        20.51183
533.34         20.5626
533.78         20.6823
534.22        20.81226
534.66          20.863
535.09         20.8091
535.53        20.68827
535.97        20.53044
536.41        20.38046
536.85        20.26078
537.28        20.17153
537.72        20.12919
538.16         20.0967
538.60        20.17029
539.04        20.25791
539.47        20.35783
539.91         20.4739
540.35        20.60925
540.79        20.58657
541.22        20.67906
541.66        20.75288
542.10        20.90829
542.54        20.80362
542.97        20.99313
543.41          21.096
543.85        21.26185
544.29        21.43524
544.72         21.5827
545.16        21.71462
545.60        21.82126
546.04        21.83505
546.47        21.83134
546.91        22.07052
547.35        22.50072
547.79         22.8152
548.22        22.96506
548.66        23.05233
549.10        23.10822
549.53        23.25045
549.97        23.50341
550.41        23.51973
550.84        23.74133
551.28        23.89913
551.72         24.1322
552.15        24.38396
552.59        24.64713
553.03        24.92361
553.46        25.16611
553.90        25.32786
554.34        25.39972
554.77         25.4024
555.21        25.39054
555.65        25.42521
556.08        25.51817
556.52        25.70466
556.96        25.85265
557.39        26.02508
557.83        26.17188
558.27        26.24654
558.70        26.26404
559.14        26.30225
559.57        26.36084
560.01        26.42561
560.45        26.49374
560.88        26.51366
561.32        26.53415
561.75         26.6703
562.19        26.96815
562.63        27.00892
563.06        26.85655
563.50        26.85174
563.93        26.99683
564.37        27.14007
564.80        27.15681
565.24        27.27902
565.68        27.43925
566.11         27.5679
566.55        27.67698
566.98        27.73248
567.42        27.73861
567.85        28.06103
568.29        27.97939
568.72        28.32084
569.16        28.79576
569.60        29.12992
570.03        29.27444
570.47        29.43148
570.90        29.49388
571.34         29.7385
571.77        29.86405
572.21        30.09561
572.64        30.26964
573.08        30.61253
573.51        30.56767
573.95        30.76738
574.38        31.43432
574.82        31.76934
575.25        31.82751
575.69        31.67043
576.12        31.43631
576.56        31.27642
576.99        31.28403
577.42        31.53028
577.86        31.83247
578.29        31.82438
578.73        32.47434
579.16        32.20654
579.60        31.72093
580.03        31.36224
580.47        31.35037
580.90        31.25627
581.33        31.19281
581.77        31.28773
582.20        31.79199
582.64        31.64047
583.07        31.11353
583.51         30.9243
583.94        30.37146
584.37        29.97706
584.81        29.66716
585.24        29.73678
585.68        30.02693
586.11        30.05713
586.54        29.78357
586.98        29.53891
587.41        29.38443
587.85         29.4161
588.28        29.54276
588.71        29.36358
589.15        28.96107
589.58         28.5596
590.01        28.68182
590.45        29.05153
590.88        28.93398
591.31         28.7847
591.75        28.40729
592.18        28.50572
592.61        28.45855
593.05        28.97304
593.48         28.8628
593.91        29.71461
594.35        29.37253
594.78        29.36583
595.21        29.43081
595.65        29.74533
596.08          29.809
596.51        29.79674
596.94        29.67091
597.38        29.70104
597.81        29.91084
598.24        30.27508
598.68        30.85596
599.11        30.76045
599.54        31.85476
599.97        31.98995
600.41        31.94836
600.84        32.60538
601.27        33.12363
601.70        33.23216
602.14        33.58797
602.57        33.90098
603.00         34.4621
603.43          34.901
603.87        35.19767
604.30        35.65662
604.73        36.28769
605.16        36.19903
605.60        36.69587
606.03        37.09233
606.46        37.60015
606.89         38.3555
607.32        38.84256
607.76        38.60491
608.19        39.29084
608.62        39.71333
609.05        39.68687
609.48        39.87508
609.92        40.22053
610.35        39.96005
610.78        41.30526
611.21        41.81408
611.64        41.53555
612.07        41.89505
612.50        42.20259
612.94        41.98934
613.37         42.4709
613.80        42.83134
614.23        43.06507
614.66        43.38768
615.09        43.75526
615.52        44.17919
615.96         44.4723
616.39        44.70989
616.82        44.91605
617.25        44.63094
617.68        44.78972
618.11        45.12913
618.54        45.59166
618.97         45.7273
619.40        45.51339
619.84        45.30312
620.27        45.04033
620.70        45.52923
621.13        46.48705
621.56        46.68334
621.99        46.23823
622.42        46.19579
622.85        46.65533
623.28        46.86491
623.71        46.77606
624.14        46.98578
624.57        46.92947
625.00        46.58705
625.43        47.05734
625.86        46.29419
626.29        46.41643
626.72         46.1889
627.15        46.05579
627.58        45.96656
628.01        45.82271
628.44         45.7383
628.87        45.72973
629.30        45.02284
629.73        44.97379
630.16        44.78749
630.59        44.56692
631.02        44.30781
631.45        43.93982
631.88         43.6061
632.31        43.29208
632.74        42.92371
633.17        42.49431
633.60        42.03548
634.03        41.55523
634.46        41.05132
634.89        40.54671
635.32        40.07452
635.75        39.64817
636.18        39.27094
636.61         38.9231
637.04        38.56577
637.47        38.18299
637.89        37.77987
638.32        37.37854
638.75        37.02378
639.18         36.7246
639.61        36.52036
640.04        36.34562
640.47        35.97834
640.90        35.45941
641.33        35.08582
641.76         34.8916
642.18        34.70228
642.61        34.51829
643.04        34.46366
643.47        34.50251
643.90        34.50207
644.33        34.44192
644.76        34.36637
645.18        34.29118
645.61        34.24482
646.04        34.24398
646.47         34.2756
646.90        34.36579
647.33        34.56911
647.75        34.88985
648.18        35.28157
648.61        35.69236
649.04        36.10035
649.47        36.46388
649.89        36.65521
650.32        36.75462
650.75        37.08822
651.18        37.67686
651.61         38.1839
652.03        38.61203
652.46        39.36195
652.89        40.32834
653.32        40.74175
653.74        40.72913
654.17        41.27952
654.60        41.76837
655.03        42.77914
655.46        42.30051
655.88        44.10891
656.31        45.56939
656.74         55.1776
657.16        52.64211
657.59        48.16082
658.02        47.03979
658.45         46.4227
658.87        47.05155
659.30        47.21033
659.73        47.75415
660.15        48.35131
660.58        48.25185
661.01        48.17952
661.44        48.00765
661.86        48.28724
662.29        48.94925
662.72        49.60193
663.14        50.08888
663.57        50.16663
664.00        49.97594
664.42        50.06297
664.85         50.4866
665.27        50.87605
665.70        51.14337
666.13        51.40336
666.55        51.63739
666.98        51.80421
667.41        51.91805
667.83          52.034
668.26        52.10487
668.69        52.17771
669.11        52.26053
669.54        52.34675
669.96        52.43792
670.39        52.67102
670.82        52.89147
671.24        53.00142
671.67        53.02142
672.09        53.29344
672.52        53.74515
672.94        53.99232
673.37        53.99797
673.80        53.88388
674.22        53.74365
674.65        53.70535
675.07        53.81284
675.50        53.99429
675.92        54.18848
676.35        54.27863
676.77        54.24033
677.20        54.16759
677.62        54.05354
678.05        54.02612
678.47        54.07138
678.90        54.32106
679.32        54.48357
679.75        54.67976
680.17        54.79605
680.60        55.06346
681.02        55.18224
681.45        55.19831
681.87        55.10302
682.30        55.19087
682.72        55.44138
683.15        55.56289
683.57        55.55749
684.00        55.51223
684.42        55.60884
684.85        55.71558
685.27        55.88569
685.70        56.07953
686.12        56.23545
686.54        56.39392
686.97        56.55896
687.39        56.25949
687.82        56.37525
688.24        56.28163
688.66        56.25023
689.09        56.24611
689.51        56.28109
689.94        56.33312
690.36        56.40871
690.78        56.49289
691.21        56.56657
691.63        56.73591
692.06        57.01679
692.48        56.93568
692.90        57.04208
693.33        57.40929
693.75        57.21564
694.17        57.31458
694.60        57.37638
695.02        57.17733
695.44        56.77214
695.87         56.6883
696.29        56.91727
696.71        56.84979
697.14        56.64709
697.56        57.06116
697.98        57.85237
698.41        58.61901
698.83        58.28115
699.25        57.88334
699.68        57.73896
700.10        57.56959
700.52        57.57987
700.94        57.74692
701.37        57.98252
701.79        58.17306
702.21        58.25178
702.64        58.23429
703.06         58.1757
703.48        58.29756
703.90        58.41932
704.33        58.66317
704.75        58.87908
705.17        58.90536
705.59        58.71651
706.01        58.37818
706.44        58.05313
706.86        57.99317
707.28        58.24222
707.70        58.70472
708.12        59.22903
708.55        59.57506
708.97        59.67559
709.39        59.61096
709.81        59.44002
710.23        59.27031
710.66        59.15482
711.08        59.06499
711.50        59.01589
711.92        59.04747
712.34        59.16101
712.76        59.35984
713.19        59.57409
713.61         59.7263
714.03        59.76765
714.45        59.71698
714.87        59.64014
715.29        59.65261
715.71        59.77813
716.13        59.95104
716.56        60.14704
716.98        60.26002
717.40        60.25826
717.82        60.17462
718.24        60.06458
718.66        60.01401
719.08        60.04694
719.50        60.13436
719.92        60.24274
720.34        60.31937
720.76        60.34829
721.19        60.34218
721.61        60.32383
722.03        60.30734
722.45        60.32182
722.87        60.30933
723.29        60.35326
723.71        60.39936
724.13        60.47364
724.55        60.57428
724.97        60.70602
725.39        60.87014
725.81        61.04894
726.23        61.24419
726.65         61.4407
727.07        61.55756
727.49        61.57407
727.91        61.75769
728.33        61.66284
728.75        61.63348
729.17        61.55172
729.59        61.44005
730.01        61.35221
730.43        61.38681
730.85         61.5612
731.27        61.82142
731.69        62.09237
732.10        62.33703
732.52         62.3903
732.94        62.37602
733.36        62.28532
733.78        62.18546
734.20        62.13153
734.62        62.06182
735.04        61.95425
735.46         61.9952
735.88          62.201
736.30        61.70736
736.72        62.06598
737.13        62.13135
737.55        62.30162
737.97        62.67544
738.39        63.09252
738.81          62.937
739.23        62.34812
739.65         62.1646
740.06        62.36062
740.48        62.58299
740.90        62.76806
741.32        62.01279
741.74        62.04582
742.16        61.90259
742.57        62.11902
742.99        62.37902
743.41        62.60873
743.83        62.77272
744.25        62.81649
744.67         62.7223
745.08         62.5843
745.50        62.42817
745.92        62.30997
746.34         62.2107
746.75        62.12922
747.17        62.06162
747.59        62.01582
748.01         62.0146
748.42        62.06102
748.84        62.16723
749.26        62.34058
749.68        62.42353
750.09        62.45966
750.51        62.79944
750.93        63.25278
751.35        63.23172
751.76        62.84973
752.18        62.40771
752.60        62.18931
753.01        62.82692
753.43        62.23188
753.85        62.33743
754.27        62.47813
754.68        62.99497
755.10        63.18226
755.52        63.32816
755.93         63.2633
756.35        63.09143
756.77        62.91562
757.18        62.89515
757.60         63.1134
758.02        63.40148
758.43        63.58763
758.85        64.00246
759.26        64.17693
759.68        63.50159
760.10        63.38164
760.51        63.32885
760.93        63.87419
761.34          62.855
761.76        63.42607
762.18        63.06418
762.59        62.82484
763.01        62.56859
763.42        62.86074
763.84        63.11132
764.26        63.38371
764.67        63.35233
765.09        63.17923
765.50        63.57874
765.92        64.36382
766.33        64.51458
766.75        63.96752
767.16        63.43369
767.58        63.05629
768.00         62.8398
768.41         62.8856
768.83        63.06922
769.24        63.33018
769.66        63.91019
770.07        64.55704
770.49        64.42739
770.90        63.72101
771.32         63.6607
771.73        64.23054
772.15        64.43507
772.56        64.20537
772.97        63.94363
773.39        63.68045
773.80        63.42845
774.22        63.19902
774.63        62.91952
775.05         62.6683
775.46        62.66214
775.88        62.90374
776.29        63.35725
776.70        63.82425
777.12        64.00539
777.53        63.83806
777.95        63.37456
778.36        62.84885
778.77        62.66395
779.19        62.92215
779.60         63.5546
780.02        64.24223
780.43        64.66475
780.84        64.73272
781.26        64.08783
781.67        63.18238
782.09        63.85796
782.50        65.67805
782.91        65.90333
783.33        64.60651
783.74        64.21342
784.15        64.80048
784.57        64.92645
784.98        64.53736
785.39         64.2542
785.81        64.09227
786.22        63.84694
786.63        63.58909
787.04        63.49518
787.46        63.57934
787.87        63.78091
788.28         64.0556
788.70        64.30532
789.11        64.48286
789.52        64.63879
789.93        64.75509
790.35        64.73687
790.76        64.60881
791.17        64.50248
791.58        64.44012
792.00        64.25426
792.41        63.96796
792.82        63.91681
793.23        64.02525
793.65        63.68013
794.06        63.15424
794.47        63.49042
794.88        64.41636
795.29        65.50925
795.71        64.93168
796.12        64.87468
796.53        64.86352
796.94        64.43407
797.35        63.75364
797.76        63.54483
798.18         63.8082
798.59        63.98887
799.00         64.0415
799.41        64.12383
799.82        64.48398
800.23        64.63393
800.64        64.62465
801.06        64.44765
801.47        64.24139
801.88        64.19728
802.29        64.34657
802.70        64.61166
803.11        64.85495
803.52        64.85489
803.93        64.58277
804.34        64.14467
804.75        63.66539
805.17        63.42217
805.58         63.5195
805.99        63.58165
806.40        63.64302
806.81        64.47145
807.22        65.68752
807.63        65.66129
808.04        64.61623
808.45        64.30718
808.86        64.91504
809.27        65.60855
809.68        66.16577
810.09        66.49213
810.50        66.48051
810.91        66.24194
811.32        65.88181
811.73        65.46335
812.14        65.03896
812.55        64.71767
812.96        64.51186
813.37        64.15951
813.78        63.80377
814.19        64.05999
814.60        64.72447
815.01        65.00297
815.42        64.82806
815.83        64.40549
816.24        64.20443
816.65        64.12582
817.05        64.34322
817.46        64.75601
817.87        65.20348
818.28        65.39339
818.69        65.26999
819.10        64.93469
819.51        64.54845
819.92         64.4318
820.33        64.67953
820.74        65.07919
821.14        65.54933
821.55        66.14388
821.96        66.70383
822.37        66.80349
822.78        66.47518
823.19        66.19929
823.60         66.0367
824.00        65.72547
824.41        65.30685
824.82        65.09525
825.23        65.13779
825.64        65.35837
826.04         65.6779
826.45        65.91375
826.86        66.01768
827.27        66.03866
827.68        65.97231
828.08        65.83551
828.49        65.60337
828.90        65.29028
829.31        64.98295
829.72        64.84266
830.12          64.925
830.53        65.15866
830.94        65.44122
831.35        65.57585
831.75         65.5378
832.16         65.3464
832.57        65.10452
832.97        64.97027
833.38        64.97594
833.79        65.05977
834.20        65.18559
834.60        65.29282
835.01        65.37354
835.42         65.4673
835.82        65.53035
836.23         65.4351
836.64        65.19199
837.04        64.82203
837.45        64.48774
837.86        64.49865
838.26        64.91765
838.67        65.63157
839.08        66.37368
839.48        66.64247
839.89        66.31551
840.29        65.58466
840.70        64.78917
841.11        64.36226
841.51        64.42865
841.92        64.80224
842.33        65.38705
842.73        66.01841
843.14         66.5114
843.54        66.96471
843.95        67.23338
844.35        67.14994
844.76        66.72211
845.17        66.03165
845.57        65.29397
845.98        64.86693
846.38        64.83932
846.79        65.10992
847.19        65.62761
847.60        66.16057
848.00        66.64468
848.41        67.06564
848.81        67.40698
849.22        67.56377
849.62        67.57115
850.03        67.40961
850.43        67.17772
850.84        66.99213
851.24        66.95093
851.65        66.97305
852.05        67.11976
852.46        67.36732
852.86        67.68313
853.27        68.07362
853.67        68.35815
854.07        68.38968
854.48        68.12352
854.88        67.63418
855.29        67.02377
855.69        66.62045
856.10        66.45342
856.50        66.53403
856.90        66.74981
857.31        66.90831
857.71        67.01337
858.12        67.06768
858.52        67.13969
858.92        67.22542
859.33        67.31476
859.73        67.39966
860.13         67.4915
860.54        67.63729
860.94         67.8772
861.34        68.16565
861.75        68.34238
862.15        68.24381
862.55        67.81342
862.96        67.14896
863.36        66.45075
863.76        66.03241
864.17        65.97722
864.57        66.20741
864.97        66.60748
865.38        66.97509
865.78        67.27592
866.18        67.48662
866.58         67.5432
866.99        67.35374
867.39         66.9538
867.79        66.35601
868.19        65.58507
868.60        64.66876
869.00        63.62416
869.40        62.52687
869.80        61.64077
870.21        61.37384
870.61        61.84819
871.01        62.88338
871.41         64.0741
871.81        64.77131
872.22        64.83775
872.62        64.46056
873.02        63.84576
873.42        63.60133
873.82        63.63484
874.22        63.16463
874.63        62.50272
875.03        62.38749
875.43        62.91593
875.83        65.08427
876.23        65.17078
876.63        64.61839
877.03        62.75639
877.44        59.85902
877.84        137.2624
878.24        59.73966
878.64         61.6079
879.04        66.42772
879.44        62.48011
879.84        60.35681
880.24        65.78204
880.64         66.2028
881.04         62.8662
881.44        60.69835
881.84        60.45074
882.24        61.34879
882.65        62.77541
883.05        63.41105
883.45        62.85168
883.85        61.89254
884.25        61.08006
884.65         60.8788
885.05        61.42896
885.45        62.53154
885.85        63.73375
886.25        64.31438
886.65        64.07664
887.05        63.25105
887.45        62.28172
887.85        61.83133
888.25        62.06135
888.65        62.77785
889.04        63.64516
889.44         64.0174
889.84        63.74801
890.24        63.04861
890.64        62.25508
891.04        61.85535
891.44        61.94068
891.84         62.3124
892.24        62.72556
892.64        62.77512
893.04        62.37133
893.44        61.73636
893.83        60.98594
894.23        60.28432
894.63        59.69476
895.03        59.14301
895.43        58.79539
895.83        58.94478
896.23         59.5944
896.63        60.64233
897.02         61.6983
897.42        62.04408
897.82        61.53127
898.22        60.40764
898.62        59.07625
899.01        58.16068
899.41        57.87284
899.81        58.01283
900.21        58.48478
900.61        59.14201
901.00        59.87767
901.40        60.70292
901.80        61.48235
902.20         61.9644
902.59        62.08746
902.99        61.88712
903.39        61.46012
903.79        61.00322
904.18        60.60833
904.58        60.29332
904.98         60.1273
905.38        60.21174
905.77        60.54163
906.17        61.08839
906.57         61.7021
906.96        62.16276
907.36        62.34697
907.76        62.27459
908.15         62.0548
908.55        61.82899
908.95         61.6643
909.34        61.56353
909.74        61.37501
910.14        60.82716
910.53        59.90879
910.93        58.79808
911.33        57.90752
911.72        57.88427
912.12         58.7699
912.52        60.26414
912.91        61.84995
913.31        62.63788
913.70        62.46416
914.10        61.57939
914.49        60.23367
914.89        59.08241
915.29         58.4166
915.68        58.08023
916.08        58.10624
916.47        58.52716
916.87        59.22849
917.26        60.19287
917.66        61.13061
918.05        61.58283
918.45        61.42329
918.84        60.82895
919.24        59.94448
919.64        59.04789
920.03        58.28724
920.42         57.6015
920.82        57.24828
921.21        57.57747
921.61        58.54024
922.00        60.07279
922.40        61.56387
922.79        62.24028
923.19         61.9324
923.58        60.56757
923.98        58.57145
924.37        57.69684
924.77         58.5635
925.16        56.38349
925.55        58.83248
925.95        59.00547
926.34         59.1287
926.74        59.11951
927.13        59.18647
927.52         59.3792
927.92        59.66688
928.31        60.08963
928.70        60.46746
929.10        60.55368
929.49        60.29227
929.89        59.75864
930.28        59.26535
930.67        59.31136
931.07        59.94676
931.46        61.04579
931.85        62.14404
932.24        62.55898
932.64        62.13441
933.03        60.97142
933.42        59.47197
933.82        58.48028
934.21        58.26097
934.60        58.61942
934.99        58.94322
935.39        58.74778
935.78         57.9808
936.17        56.08143
936.56        53.30485
936.96         54.9837
937.35        54.35294
937.74        56.57832
938.13        58.71038
938.53         60.0318
938.92        60.46761
939.31         60.3168
939.70        59.85551
940.09        59.41952
940.49        59.21325
940.88        59.14812
941.27        59.26341
941.66        59.65631
942.05        60.28613
942.44         61.0962
942.84        61.94975
943.23        62.59958
943.62        62.92947
944.01        63.02631
944.40        62.78341
944.79         62.0464
945.18        60.84894
945.57        59.23006
945.97        57.71373
946.36        57.16115
946.75        57.83692
947.14        59.41367
947.53        61.16996
947.92        62.11086
948.31        62.03722
948.70        61.23817
949.09        60.08622
949.48        59.24945
949.87        58.96583
950.26        59.02307
950.65        59.25772
951.04        59.41257
951.43        59.38799
951.82        59.30237
952.21        59.18497
952.60        59.04609
952.99        58.89674
953.38        58.70087
953.77        58.47218
954.16        58.25404
954.55        58.06021
954.94        57.90545
955.33        57.77033
955.72        57.60606
956.11        57.41951
956.50        57.23954
956.89        57.13958
957.28        57.25201
957.66        57.59843
958.05        58.01225
958.44        58.41463
958.83        58.70862
959.22        58.85934
959.61        58.91656
960.00        58.74948
960.39        58.14989
960.78        57.14322
961.16        55.80748
961.55        54.57668
961.94        53.98795
962.33        54.13913
962.72         54.8897
963.11        55.83086
963.49        56.24686
963.88        55.87082
964.27        54.95646
964.66          53.883
965.04        53.28674
965.43        53.35026
965.82         53.8731
966.21        54.63383
966.60        55.27565
966.98        55.67673
967.37         55.9256
967.76        56.10655
968.15        56.32837
968.53        56.62642
968.92        56.84253
969.31        56.94986
969.69        56.92606
970.08        56.71371
970.47        56.39596
970.86        55.91539
971.24        55.12508
971.63        54.11172
972.02        52.96641
972.40        51.94282
972.79        51.50596
973.17        51.77547
973.56        52.52427
973.95        53.58083
974.33        54.62121
974.72        55.35177
975.11        55.83952
975.49        55.90162
975.88         55.2596
976.26        53.96732
976.65        52.20334
977.04        50.35775
977.42        49.12369
977.81        48.75928
978.19        49.06166
978.58        49.95484
978.96        51.24843
979.35        52.71659
979.74        54.46218
980.12        56.03752
980.51        56.43594
980.89        55.62473
981.28        53.85236
981.66        52.02404
982.05        51.40716
982.43        52.18461
982.82        53.93653
983.20        56.06776
983.59        57.19001
983.97        56.94676
984.35        55.71338
984.74         54.0193
985.12        52.58343
985.51        51.66031
985.89        50.91481
986.28        50.41086
986.66        50.34304
987.04         50.6548
987.43        51.37329
987.81        51.87937
988.20        51.28141
988.58         49.3307
988.96        45.90334
989.35        41.76612
989.73        39.37605
990.12        40.08846
990.50        43.20883
990.88        46.76333
991.27        48.46517
991.65        48.23444
992.03        46.67352
992.42        44.94486
992.80        45.17212
993.18        47.89593
993.56         51.9703
993.95        56.04208
994.33         58.7823
994.71        59.71312
995.10        59.37584
995.48        58.13916
995.86         56.4003
996.24        54.37515
996.63        51.91613
997.01        49.24391
997.39         47.3469
997.77        46.74823
998.15        47.29804
998.54        48.41429
998.92        49.37916
999.30        50.01302
999.68        50.51458
1000.06        50.61658
1000.45        49.77189
1000.83        48.12669
1001.21        46.07901
1001.59        44.36036
1001.97        43.47102
1002.35        43.24883
1002.73        43.49104
1003.12        43.94776
1003.50        44.03583
1003.88        43.50524
1004.26        42.70994
1004.64        41.66444
1005.02         40.2986
1005.40         38.6782
1005.78        36.68031
1006.16        35.22879
1006.54        36.11943
1006.92        39.22705
1007.30        43.33078
1007.69        46.76689
1008.07        48.09565
1008.45        46.96498
1008.83        43.38885
1009.21        36.88468
1009.59        28.80213
1009.97        21.93903
1010.35        17.45907
1010.73        16.72368
1011.11        19.63751
1011.49        25.05047
1011.86        32.71066
1012.24         39.6129
1012.62        43.03183
1013.00        42.81358
1013.38         39.8371
1013.76        35.73834
1014.14        33.49218
1014.52        33.95803
1014.90        36.25031
1015.28        39.00382
1015.66         39.8641
1016.04         38.0761
1016.41        34.38302
1016.79        29.72747
1017.17        26.45335
1017.55        25.81672
1017.93         26.7359
1018.31        28.63814
1018.69        31.26428
1019.06        34.34536
1019.44        37.88137
1019.82        40.88089
1020.20        40.63679
1020.58        36.23967
1020.95        28.73877
1021.33        19.63308
1021.71        9.616146
1022.09       -2.648448
1022.46       -22.65425
1022.84       -49.40112
1023.22       -54.23559
1023.60       -24.95061
1023.97        6.870869
1024.35        24.28042
1024.73        29.04319
