SpectraSmart Spectrum 2.9.0.0
--------- Device Information -----------
Spectrum Name :  反射率_0
Saving Time :  2024/04/20 00:37:33
Spectro-Module Model Name : SE2030-DUVN
Spectro-Module Serial Number : OS361AC55029948
Wavelength Start : 200
Wavelength End : 1025
Wavelength Unit : Wavelength(nm)
Spectrum Unit : Reflectance(%)
-----------Spectrum Setting ------------
Integration Time : 30ms
Average : 10
Boxcar : 0
Background removal :  enabled
linearity correction :  enabled
SC :  disabled
Intensity correction :  disabled
DWT denoise :  enabled
savitzky-golay :  disabled
FFT :  disabled
Running average :  disabled
Kalman :  disabled
High pass :  disabled
---------------BEGIN--------------------
Wavelength(nm)             Reflectance(%)
200.29               0
200.75        63.60207
201.21        66.12963
201.67        71.70619
202.13        81.11842
202.58        94.26808
203.04         111.318
203.50        126.5052
203.96        127.1755
204.42        114.1917
204.88        96.53983
205.34        81.95975
205.80        73.89912
206.26         70.8666
206.72        71.22835
207.18        75.12285
207.64        80.62371
208.10         84.5536
208.55        87.37464
209.01        87.85969
209.47        86.32538
209.93        83.54488
210.39        79.44535
210.85        75.68845
211.31         74.3497
211.77        75.61388
212.23        79.48977
212.69        84.80518
213.14        86.59362
213.60         82.8975
214.06        77.61713
214.52        73.68778
214.98        72.68849
215.44        74.18364
215.90        77.21968
216.36        81.66016
216.81         86.5193
217.27        90.56615
217.73        94.23302
218.19        96.40708
218.65        95.64862
219.11        92.07671
219.57        85.62512
220.02         78.9254
220.48        78.76952
220.94        87.02356
221.40        101.8936
221.86        118.0226
222.32        127.3713
222.77         128.114
223.23        123.2448
223.69        116.1973
224.15        112.0383
224.61        111.9265
225.06        113.7468
225.52        116.6139
225.98        119.7488
226.44        123.0104
226.90        126.7121
227.36        130.5623
227.81        133.4292
228.27        134.9961
228.73        135.2815
229.19        134.3817
229.65        132.5095
230.10        129.9988
230.56        127.5403
231.02        125.4929
231.48        124.4823
231.93        124.4108
232.39         125.008
232.85        126.1189
233.31        127.6216
233.77        129.2963
234.22           131.2
234.68        132.4628
235.14        131.5655
235.60        128.3701
236.05        123.4068
236.51         118.223
236.97        115.1064
237.43        114.6106
237.88        116.7281
238.34         120.186
238.80        122.0707
239.26        120.3244
239.71        115.7791
240.17        109.5972
240.63        104.0382
241.08          99.862
241.54        96.46308
242.00        93.53178
242.46        90.27991
242.91        86.19119
243.37        80.54616
243.83        74.13056
244.28        72.05516
244.74         78.1914
245.20        90.38834
245.66         101.064
246.11        104.7001
246.57        100.7744
247.03        89.28187
247.48        71.24346
247.94        60.23146
248.40        62.13988
248.85        68.57822
249.31        74.40598
249.77        77.92684
250.22        79.71157
250.68        80.89813
251.14        81.84682
251.59        82.72508
252.05        83.76826
252.51        85.06403
252.96        86.09885
253.42        86.40403
253.88         86.3079
254.33        86.18191
254.79        88.03689
255.25        93.60562
255.70        102.0764
256.16         111.769
256.62        120.5505
257.07        126.1021
257.53         128.584
257.99         128.894
258.44        126.8971
258.90        123.7218
259.35        119.8312
259.81        116.7722
260.27        114.5992
260.72        113.3893
261.18        113.3784
261.63        113.5655
262.09        114.3254
262.55        115.3091
263.00        116.0799
263.46         116.946
263.91         116.975
264.37         115.788
264.83        113.4076
265.28        110.1208
265.74        107.1374
266.19        105.3751
266.65          105.15
267.11        105.8467
267.56         106.756
268.02        106.9929
268.47        106.2764
268.93        104.9433
269.38        103.2437
269.84        101.8003
270.30        100.7868
270.75        100.0085
271.21        99.29948
271.66        98.34702
272.12        97.10006
272.57        95.63747
273.03        94.18696
273.48        92.93202
273.94        92.01228
274.39         91.2706
274.85        90.58736
275.31        89.63166
275.76        88.30212
276.22        86.76569
276.67        85.17449
277.13        83.99687
277.58        83.18131
278.04         82.6852
278.49        82.09436
278.95        81.04707
279.40        79.39908
279.86        77.46663
280.31        75.47934
280.77        74.04111
281.22        73.11396
281.68        72.59921
282.13        72.13818
282.59         71.3559
283.04        70.13188
283.50        68.69611
283.95        67.23003
284.41        66.12262
284.86        65.37437
285.32        64.90282
285.77        64.50302
286.22        63.99376
286.68         63.3461
287.13        62.59348
287.59        61.83261
288.04        61.07337
288.50        60.37548
288.95         59.6541
289.41        58.97469
289.86         58.3392
290.32        57.80556
290.77        57.34441
291.22        56.93642
291.68         56.5089
292.13        56.03605
292.59        55.58183
293.04        55.19742
293.50        55.01459
293.95        55.03542
294.40         55.2125
294.86        55.48813
295.31         55.7743
295.77        56.03826
296.22        56.29898
296.68        56.53835
297.13        56.71185
297.58        56.82965
298.04        56.91609
298.49        57.02861
298.95        57.31319
299.40        57.76699
299.85        58.34158
300.31        58.96941
300.76        59.51337
301.21         59.9427
301.67        60.33386
302.12        60.63976
302.58        60.90055
303.03        61.09666
303.48        61.25229
303.94        61.48581
304.39        61.91783
304.84         62.5737
305.30        63.39883
305.75        64.20588
306.20        64.75274
306.66         65.0125
307.11        65.02821
307.57        64.96415
308.02        64.96169
308.47         65.0948
308.93        65.30366
309.38        65.52128
309.83        65.72745
310.29        65.89919
310.74        66.05045
311.19        66.11934
311.65        65.99315
312.10        65.65812
312.55        65.15636
313.00        64.64126
313.46        64.35011
313.91        64.30784
314.36        64.45785
314.82        64.63966
315.27        64.62189
315.72        64.32799
316.18        63.85417
316.63        63.29597
317.08        62.82621
317.53        62.49029
317.99        62.22151
318.44        61.98325
318.89        61.70308
319.35        61.35833
319.80        60.98768
320.25        60.60052
320.70        60.20694
321.16        59.80865
321.61        59.40834
322.06        59.01284
322.51        58.64631
322.97        58.30048
323.42        57.97628
323.87        57.65019
324.32        57.29315
324.78         56.8857
325.23        56.46249
325.68        56.00537
326.13        55.49902
326.59         54.9538
327.04        54.41241
327.49        53.92812
327.94        53.59723
328.39        53.43053
328.85        53.36264
329.30        53.38341
329.75        53.37873
330.20         53.3029
330.66        53.16348
331.11        52.95569
331.56         52.6049
332.01        52.11654
332.46        51.50474
332.92        50.88428
333.37        50.49632
333.82        50.39338
334.27        50.53685
334.72        50.78323
335.17        50.87143
335.63        50.70633
336.08        50.37421
336.53        49.99307
336.98        49.79288
337.43        49.83185
337.88        50.03453
338.34        50.24047
338.79        50.24608
339.24        49.97995
339.69        49.51521
340.14        49.01609
340.59        48.75135
341.05         48.7799
341.50        49.02249
341.95         49.3147
342.40        49.40536
342.85         49.2376
343.30        48.90332
343.75        48.51988
344.20        48.27672
344.66        48.22324
345.11        48.26709
345.56        48.36289
346.01        48.43874
346.46         48.4555
346.91        48.45105
347.36        48.36504
347.81        48.09342
348.26        47.64793
348.72         47.0898
349.17        46.54676
349.62        46.30316
350.07        46.41568
350.52        46.77814
350.97         47.2375
351.42        47.56288
351.87         47.6736
352.32        47.62371
352.77        47.42148
353.22        47.08767
353.67        46.65886
354.13         46.1555
354.58        45.62284
355.03        45.18526
355.48        44.87853
355.93        44.68878
356.38        44.58745
356.83        44.51348
357.28        44.43395
357.73        44.34957
358.18        44.23962
358.63        44.07635
359.08        43.85368
359.53        43.57666
359.98        43.25115
360.43        42.88894
360.88        42.50175
361.33        42.09419
361.78        41.70276
362.23        41.38622
362.68        41.15532
363.13        40.99063
363.58        40.84198
364.03        40.62699
364.48        40.31783
364.93        39.92859
365.38        39.48476
365.83        39.04093
366.28        38.62077
366.73        38.21298
367.18        37.81406
367.63        37.41342
368.08        37.01549
368.53        36.64535
368.98        36.30341
369.43         35.9783
369.88        35.67129
370.33        35.38098
370.78        35.13744
371.23        34.99665
371.68         34.9618
372.13        35.00209
372.58        35.05909
373.03        35.03986
373.48        34.91138
373.93        34.69417
374.38        34.41215
374.83         34.1027
375.28        33.78349
375.72        33.44175
376.17        33.11183
376.62        32.80772
377.07        32.54546
377.52        32.33282
377.97        32.17822
378.42        32.08662
378.87          32.048
379.32        32.04719
379.77         32.0583
380.22         32.0442
380.67        31.99103
381.11        31.90776
381.56        31.77723
382.01        31.60203
382.46        31.38656
382.91        31.12558
383.36        30.85775
383.81        30.63793
384.26        30.47856
384.71        30.38567
385.15        30.28807
385.60        30.08368
386.05        29.76081
386.50        29.35349
386.95        28.99483
387.40        28.89356
387.85        29.07241
388.29        29.43733
388.74        29.81879
389.19        29.95271
389.64        29.78686
390.09        29.39063
390.54        28.91667
390.98        28.60342
391.43        28.53651
391.88        28.63014
392.33        28.74204
392.78        28.66669
393.23        28.38413
393.67        27.96608
394.12        27.59662
394.57        27.43357
395.02        27.50711
395.47        27.75313
395.91        28.06633
396.36        28.23069
396.81        28.19478
397.26        28.01814
397.71        27.80515
398.15        27.69227
398.60         27.7424
399.05        27.88527
399.50        28.04062
399.95        28.09846
400.39        28.03431
400.84        27.87962
401.29        27.70432
401.74        27.63261
402.18        27.70176
402.63        27.86231
403.08        28.01827
403.53        28.01362
403.97        27.82146
404.42        27.51119
404.87        27.19657
405.32        27.06437
405.76        27.15274
406.21        27.39439
406.66        27.68716
407.11        27.87133
407.55        27.90386
408.00        27.84168
408.45        27.72312
408.90        27.54425
409.34        27.36412
409.79        27.31321
410.24        27.35864
410.68        27.33385
411.13        27.23725
411.58        27.16873
412.03        27.14354
412.47        27.14635
412.92        27.17241
413.37        27.21692
413.81        27.28302
414.26        27.39476
414.71        27.54177
415.15        27.72365
415.60        27.86685
416.05        27.88958
416.49        27.77313
416.94        27.54268
417.39        27.28229
417.83        27.12667
418.28        27.11569
418.73        27.20868
419.17         27.3236
419.62        27.32386
420.07         27.1864
420.51        26.96025
420.96        26.73478
421.41         26.6193
421.85         26.6312
422.30        26.74545
422.74        26.89909
423.19        27.04306
423.64        27.14443
424.08        27.22976
424.53        27.27919
424.98        27.29337
425.42         27.2814
425.87        27.26587
426.31        27.24069
426.76        27.15548
427.21        27.02687
427.65        26.96575
428.10        27.00432
428.54         27.0542
428.99        27.11495
429.44        27.34507
429.88        27.59285
430.33        27.43728
430.77        26.95584
431.22        26.66317
431.66         26.6281
432.11        26.65504
432.56        26.72715
433.00        27.03248
433.45         27.3415
433.89         27.2259
434.34        26.85682
434.78        26.60389
435.23        26.36163
435.67        27.57228
436.12        26.48571
436.57        26.39532
437.01        26.27349
437.46        26.21867
437.90        26.24231
438.35        26.35949
438.79          26.504
439.24        26.56463
439.68        26.52122
440.13        26.20128
440.57          25.796
441.02         26.0071
441.46        26.60273
441.91        26.79048
442.35        25.90085
442.80        25.59537
443.24        25.64623
443.69        25.66413
444.13        25.59923
444.58        25.51228
445.02        25.41434
445.47        25.40899
445.91        25.46448
446.36        25.42778
446.80        25.28305
447.24        25.10662
447.69        24.95806
448.13        24.87631
448.58        24.88245
449.02        24.95542
449.47        25.03955
449.91        25.03649
450.36        24.93447
450.80        24.76135
451.25        24.59021
451.69        24.51065
452.13        24.54956
452.58         24.6673
453.02        24.81374
453.47        24.92043
453.91        24.96519
454.36        24.96704
454.80        24.93622
455.24        24.88599
455.69         24.8352
456.13        24.75263
456.58        24.67331
457.02        24.63849
457.46        24.65036
457.91        24.64527
458.35        24.61093
458.79        24.59525
459.24        24.58877
459.68        24.58518
460.13        24.64474
460.57         24.6336
461.01        24.52722
461.46        24.99183
461.90         25.0501
462.34         24.7678
462.79        24.98106
463.23        24.68623
463.68        24.57211
464.12        24.42293
464.56        24.53475
465.01        24.71524
465.45        24.88933
465.89        24.97047
466.34        24.94469
466.78        24.75968
467.22        24.51165
467.67        24.53051
468.11        24.76921
468.55        24.73201
468.99        24.44711
469.44        24.35829
469.88        24.47944
470.32        24.56264
470.77        24.56623
471.21        24.54443
471.65        24.49391
472.10        24.40126
472.54        24.30853
472.98        24.33059
473.42        24.47681
473.87        24.63807
474.31        24.77278
474.75        24.97429
475.20        25.17372
475.64        25.11348
476.08        24.87454
476.52        24.80193
476.97        24.92073
477.41        25.07364
477.85        25.19278
478.29        25.24367
478.74        25.21299
479.18        25.07412
479.62        24.93121
480.06        24.94856
480.50        25.12029
480.95        25.28617
481.39        25.38268
481.83        25.42327
482.27         25.3897
482.72        25.30863
483.16        25.17106
483.60        25.12043
484.04        25.14689
484.48        25.37771
484.93        25.78737
485.37        25.76358
485.81         25.6645
486.25        26.17105
486.69        27.14984
487.14        26.78141
487.58         26.0065
488.02         27.1508
488.46        26.40706
488.90        26.58686
489.34        26.39332
489.79        26.49495
490.23        26.79866
490.67        26.88011
491.11         26.7803
491.55        26.72798
491.99        26.75472
492.43        26.77401
492.88        26.79518
493.32        26.84866
493.76        26.96085
494.20        27.13736
494.64        27.37085
495.08        27.71973
495.52        28.09152
495.96        28.19086
496.41        28.08175
496.85        28.13182
497.29        28.35376
497.73        28.56904
498.17        28.73104
498.61        28.75401
499.05        28.69075
499.49        28.80125
499.93        29.10638
500.37        29.39002
500.82        29.61412
501.26         29.9134
501.70         30.2221
502.14        30.25405
502.58        30.07135
503.02        30.02643
503.46        30.15405
503.90        30.28025
504.34        30.36237
504.78        30.40557
505.22        30.39833
505.66        30.34912
506.10        30.29696
506.54        30.29832
506.98        30.36844
507.42        30.49415
507.86        30.64032
508.30        30.74885
508.74        30.80394
509.18        30.82014
509.62        30.83338
510.06        30.90031
510.50         31.0334
510.94        31.21523
511.38        31.39745
511.82        31.50363
512.26        31.51446
512.70        31.44918
513.14        31.36698
513.58        31.35648
514.02        31.43125
514.46        31.57107
514.90        31.71178
515.34        31.67962
515.78        31.51564
516.22         31.3022
516.66        31.14834
517.10        30.90699
517.54        30.60474
517.98         31.2003
518.42        31.20307
518.86        31.49855
519.30        31.62079
519.74         31.7239
520.18        31.78638
520.62        31.75735
521.06         31.6545
521.50        31.47767
521.93        31.27561
522.37        31.13783
522.81        31.08712
523.25        31.10716
523.69        31.15917
524.13        31.17741
524.57        31.14266
525.01        31.07079
525.45        30.99028
525.89        30.94601
526.32         30.9461
526.76        30.97595
527.20        30.99591
527.64        30.95023
528.08        30.82778
528.52        30.64528
528.96        30.45548
529.40        30.33658
529.83        30.30321
530.27        30.34158
530.71        30.38549
531.15         30.3329
531.59        30.16878
532.03        29.93115
532.46        29.69864
532.90        29.61407
533.34        29.69365
533.78        29.88295
534.22        30.09929
534.66        30.21728
535.09        30.19874
535.53        30.09411
535.97        29.94018
536.41        29.79188
536.85        29.67506
537.28        29.58826
537.72        29.54861
538.16        29.49426
538.60        29.56684
539.04        29.63571
539.47        29.70802
539.91         29.8048
540.35        29.93631
540.79        29.84506
541.22        29.92775
541.66        29.98957
542.10        30.17448
542.54        29.99129
542.97        30.23708
543.41         30.3575
543.85        30.56503
544.29        30.77501
544.72        30.94144
545.16        31.08351
545.60        31.18558
546.04         31.1521
546.47        31.07831
546.91        31.31085
547.35         31.7766
547.79        32.06319
548.22        32.13407
548.66        32.15589
549.10        32.18718
549.53         32.4251
549.97        32.86088
550.41        32.89769
550.84        33.13242
551.28        33.23477
551.72         33.4306
552.15        33.67244
552.59        33.96497
553.03        34.32682
553.46        34.62692
553.90        34.80587
554.34        34.82849
554.77        34.74426
555.21        34.64972
555.65        34.62253
556.08        34.74485
556.52        35.02185
556.96        35.23274
557.39        35.44894
557.83        35.58237
558.27        35.57719
558.70        35.48484
559.14        35.46365
559.57        35.52848
560.01        35.65111
560.45        35.78291
560.88         35.8055
561.32        35.77919
561.75        35.81662
562.19        36.05416
562.63         36.1911
563.06        36.25518
563.50        36.33904
563.93        36.43576
564.37        36.60487
564.80         36.6778
565.24        36.80689
565.68        36.91002
566.11        37.00087
566.55        37.10699
566.98        37.11697
567.42        37.05363
567.85        37.51408
568.29        37.49456
568.72         37.9189
569.16         38.3927
569.60         38.7276
570.03        38.86254
570.47        38.91238
570.90        38.76262
571.34        39.18084
571.77        38.92403
572.21        39.46991
572.64        39.74345
573.08        39.77044
573.51        39.82605
573.95        40.13172
574.38        40.83949
574.82        41.11366
575.25        41.29997
575.69        40.98597
576.12        40.81181
576.56        40.67967
576.99        40.72991
577.42        41.18821
577.86        41.28252
578.29        41.10146
578.73         41.7154
579.16        41.52179
579.60        40.96957
580.03        40.70236
580.47         40.9637
580.90        40.70882
581.33        40.59018
581.77        40.56958
582.20        41.45068
582.64         40.6829
583.07        40.19126
583.51        40.22543
583.94        39.75185
584.37        39.50191
584.81        39.10699
585.24        39.13791
585.68        39.43381
586.11        39.38156
586.54        39.16527
586.98        38.75129
587.41        38.83522
587.85        38.91951
588.28        39.06274
588.71         38.9039
589.15        38.53186
589.58        38.05715
590.01         38.2526
590.45           38.56
590.88        38.67078
591.31        38.58635
591.75        38.14715
592.18         38.2025
592.61        37.97282
593.05        38.30088
593.48        38.43056
593.91         39.4632
594.35        38.68156
594.78         39.0069
595.21        39.20044
595.65        39.76802
596.08        39.75103
596.51        39.74936
596.94        39.68129
597.38        39.65481
597.81        39.77526
598.24        40.22565
598.68        40.90113
599.11        41.06828
599.54        42.18572
599.97        41.97098
600.41        42.39885
600.84        42.63078
601.27        43.43913
601.70        43.84504
602.14        43.98117
602.57        44.43621
603.00        45.17928
603.43        45.90639
603.87        46.25662
604.30        46.73642
604.73        47.29137
605.16        47.52229
605.60        48.05533
606.03         48.6861
606.46        49.31615
606.89        50.39674
607.32        50.50594
607.76        50.54168
608.19        51.24875
608.62        51.91525
609.05        52.12368
609.48        52.37038
609.92        52.58717
610.35        52.89895
610.78        54.06533
611.21        55.10106
611.64        54.79247
612.07        54.96978
612.50        55.29524
612.94        55.42947
613.37        55.89091
613.80         56.3151
614.23        56.78879
614.66        57.40852
615.09        57.63251
615.52        58.21281
615.96        58.81474
616.39        59.27402
616.82        59.67816
617.25        59.03372
617.68         59.4249
618.11        60.03159
618.54        60.54109
618.97        60.69737
619.40        60.35508
619.84        60.26042
620.27        60.22134
620.70        60.78739
621.13        61.66764
621.56        61.93637
621.99        61.72066
622.42        61.75445
622.85        62.14411
623.28        62.26003
623.71        62.05955
624.14         62.2772
624.57        62.29158
625.00        61.67688
625.43        62.01666
625.86        61.36983
626.29        61.22893
626.72        60.92087
627.15        60.77126
627.58        60.65582
628.01         60.4953
628.44          60.364
628.87        60.11354
629.30        59.51925
629.73         59.2196
630.16          58.756
630.59         58.4732
631.02         58.0776
631.45         57.6082
631.88        57.13619
632.31        56.65055
632.74        56.10011
633.17        55.49771
633.60        54.90081
634.03        54.32362
634.46        53.76006
634.89        53.20028
635.32        52.62468
635.75        52.03765
636.18        51.45807
636.61        50.91404
637.04        50.44232
637.47        50.04437
637.89        49.70601
638.32        49.39128
638.75        49.06915
639.18        48.72778
639.61        48.39853
640.04        48.04355
640.47         47.6712
640.90        47.27969
641.33        46.87974
641.76        46.51689
642.18        46.27062
642.61        46.14935
643.04        46.13248
643.47        46.17556
643.90        46.20081
644.33        46.18613
644.76        46.15838
645.18        46.13476
645.61        46.14433
646.04        46.20348
646.47        46.30107
646.90        46.45961
647.33        46.71994
647.75        47.08147
648.18        47.52119
648.61        47.99881
649.04        48.44445
649.47        48.85371
649.89        49.25492
650.32        49.66767
650.75        50.18364
651.18        50.83715
651.61        51.40585
652.03         51.9632
652.46        53.11594
652.89         54.6706
653.32        55.35853
653.74        55.32743
654.17        56.16661
654.60        57.02491
655.03        58.72726
655.46        57.97644
655.88         60.5312
656.31         62.1265
656.74        71.23244
657.16        68.24303
657.59        63.37772
658.02        63.81378
658.45        64.18435
658.87        65.56742
659.30        65.82885
659.73        67.11019
660.15        68.36475
660.58         68.3249
661.01         68.3824
661.44        68.26159
661.86        68.67179
662.29         69.5705
662.72        70.61613
663.14        71.54996
663.57        71.69582
664.00        71.28861
664.42        71.39879
664.85        72.12397
665.27        72.81056
665.70        73.36161
666.13        73.67378
666.55        74.32142
666.98        74.52528
667.41        74.54996
667.83        74.67323
668.26        74.92429
668.69        75.19322
669.11        75.45062
669.54        75.64649
669.96        75.75921
670.39        76.07618
670.82        76.19552
671.24        76.43958
671.67        76.70889
672.09        77.20045
672.52        77.77697
672.94        77.99238
673.37        77.86712
673.80        77.65729
674.22        77.63394
674.65        77.61398
675.07        77.68668
675.50        78.05342
675.92        78.35918
676.35        78.57635
676.77        78.57642
677.20         78.5033
677.62         78.4435
678.05         78.2402
678.47        78.39875
678.90        78.54163
679.32        78.69399
679.75        78.86936
680.17        79.02445
680.60        79.17064
681.02        79.29767
681.45        79.38564
681.87        79.44971
682.30        79.47697
682.72        79.49728
683.15         79.5609
683.57        79.69228
684.00         79.7832
684.42        79.89019
684.85        80.15746
685.27        80.26832
685.70        80.47236
686.12        80.57767
686.54         80.6739
686.97        80.78733
687.39        80.42567
687.82        79.95155
688.24         80.6394
688.66        80.55628
689.09        80.70485
689.51        80.53249
689.94         80.5781
690.36        80.81209
690.78         80.8974
691.21        80.87113
691.63        80.88969
692.06         80.9445
692.48         81.3747
692.90        81.13683
693.33        81.59702
693.75        81.39902
694.17        81.47763
694.60         81.5139
695.02         81.3037
695.44        80.92014
695.87        81.03703
696.29        81.53484
696.71        81.28288
697.14        80.59961
697.56        80.93894
697.98        82.04669
698.41        83.07014
698.83        82.93475
699.25        82.06506
699.68        82.17387
700.10        81.83565
700.52        81.63029
700.94        82.07486
701.37        81.94855
701.79        82.14501
702.21        82.24228
702.64        82.29472
703.06        82.34045
703.48        82.48293
703.90        82.74792
704.33        83.07605
704.75        83.37294
705.17        83.44689
705.59        83.26751
706.01        82.90386
706.44        82.53333
706.86        82.43815
707.28        82.67049
707.70        83.12878
708.12        83.65952
708.55        84.01349
708.97        84.11977
709.39        84.06693
709.81         83.9068
710.23        83.73414
710.66        83.60291
711.08        83.49118
711.50        83.42686
711.92        83.47686
712.34        83.64754
712.76        83.93214
713.19        84.23862
713.61         84.4761
714.03        84.57313
714.45        84.55309
714.87        84.49103
715.29        84.51079
715.71        84.64124
716.13        84.84787
716.56        85.03981
716.98        85.15992
717.40        85.15025
717.82        85.03561
718.24        84.91148
718.66        84.83168
719.08        85.12139
719.50        85.16619
719.92         85.0647
720.34        85.05348
720.76        85.13364
721.19        85.14132
721.61        85.10051
722.03         85.0932
722.45        85.15016
722.87        85.23081
723.29        85.31761
723.71        85.37061
724.13        85.38757
724.55        85.38805
724.97        85.41742
725.39        85.54737
725.81        85.78498
726.23         86.0913
726.65        86.41235
727.07        86.66824
727.49        86.82989
727.91          86.916
728.33        86.92774
728.75        86.87256
729.17        86.77391
729.59        86.63311
730.01        86.46067
730.43        86.40916
730.85         86.5216
731.27        86.51601
731.69        86.31487
732.10        87.15173
732.52        86.84229
732.94        87.10355
733.36        87.24983
733.78         87.2784
734.20        87.18465
734.62        86.99834
735.04        86.76012
735.46        86.67719
735.88        86.52432
736.30        86.27721
736.72        86.26926
737.13        86.40877
737.55        86.69077
737.97        87.28156
738.39        87.92788
738.81        87.62708
739.23        86.68983
739.65        86.73658
740.06        87.55628
740.48        88.15531
740.90        87.91863
741.32        86.74751
741.74        86.92132
742.16        86.72868
742.57        86.91931
742.99        87.30392
743.41         87.7479
743.83        88.04015
744.25        88.09317
744.67         87.8836
745.08        87.54442
745.50        87.46655
745.92        87.63689
746.34        87.55077
746.75        87.22882
747.17        87.09618
747.59         87.1784
748.01        87.25629
748.42         87.3202
748.84        87.49506
749.26        87.79639
749.68        87.92971
750.09        87.94489
750.51        88.46815
750.93        89.21792
751.35          88.997
751.76        87.99909
752.18         87.4778
752.60        87.48526
753.01        87.83598
753.43        87.55875
753.85        87.62608
754.27         87.7328
754.68        88.01566
755.10        88.41619
755.52        88.08798
755.93        88.19755
756.35        87.99039
756.77        87.87604
757.18        87.93979
757.60        88.28616
758.02        88.59106
758.43        88.61472
758.85         89.4635
759.26        89.58434
759.68        88.57722
760.10        88.67396
760.51        88.46966
760.93        88.83298
761.34        87.77119
761.76        88.04684
762.18         87.5676
762.59        87.42609
763.01        86.97272
763.42        88.07156
763.84        88.82402
764.26        89.47108
764.67        89.17394
765.09        88.33126
765.50        88.50478
765.92        89.56985
766.33        89.97014
766.75        89.53036
767.16        89.13214
767.58        88.78537
768.00        88.17941
768.41        87.78667
768.83        87.39001
769.24        89.23234
769.66        89.96149
770.07        90.04951
770.49        89.53848
770.90        88.78887
771.32        88.97825
771.73        89.92204
772.15        90.13725
772.56        89.59422
772.97        89.18776
773.39        88.98792
773.80         89.0712
774.22        88.76629
774.63        88.52134
775.05        88.23895
775.46        88.27228
775.88        88.61727
776.29        89.15237
776.70        89.65957
777.12        89.86275
777.53        89.70276
777.95        89.20906
778.36        88.63008
778.77         88.4052
779.19        88.64438
779.60        89.28278
780.02        89.97076
780.43        90.38135
780.84        90.42859
781.26        89.67942
781.67        88.63704
782.09        89.45213
782.50        91.57253
782.91        91.69891
783.33        90.00439
783.74        89.51776
784.15        90.33603
784.57        90.86102
784.98        90.85704
785.39        90.35929
785.81        89.54421
786.22           89.23
786.63        89.45119
787.04         89.5142
787.46        89.41808
787.87        89.60867
788.28        90.05945
788.70        90.38989
789.11        90.53103
789.52        90.77907
789.93        91.06373
790.35        90.82186
790.76         90.2365
791.17        90.29069
791.58        90.91766
792.00        90.94486
792.41        90.33479
792.82        90.18907
793.23        90.37478
793.65        89.58231
794.06        88.35744
794.47        88.52164
794.88        89.76575
795.29         91.5994
795.71        91.74158
796.12        91.04977
796.53        91.85463
796.94        90.88418
797.35        89.44785
797.76        89.09303
798.18        89.84499
798.59        90.35599
799.00        90.42052
799.41        90.58575
799.82        90.87027
800.23        91.08539
800.64        91.20928
801.06        91.07573
801.47        90.82211
801.88        90.74763
802.29        90.89194
802.70        91.12491
803.11         91.3196
803.52        91.28138
803.93        90.99673
804.34        90.59024
804.75         90.1504
805.17        89.91098
805.58        89.96592
805.99        89.86256
806.40        89.75723
806.81        90.72707
807.22         92.2812
807.63        92.68876
808.04        91.48445
808.45        90.90681
808.86        91.09201
809.27        91.66577
809.68        92.43254
810.09        92.85477
810.50        92.81545
810.91        92.75851
811.32        92.72991
811.73        92.49481
812.14        92.06715
812.55        91.62759
812.96        91.22198
813.37        90.71261
813.78        90.25081
814.19        90.29058
814.60        90.70969
815.01        90.94353
815.42        90.93505
815.83        90.86424
816.24        90.95235
816.65        91.01005
817.05        91.11196
817.46        91.20557
817.87         91.2892
818.28        91.31101
818.69        91.28195
819.10        91.22751
819.51         91.2115
819.92        91.42921
820.33        91.91547
820.74        92.33029
821.14        92.63388
821.55        93.36342
821.96        94.19583
822.37        93.73525
822.78        92.26474
823.19        91.55963
823.60        91.81429
824.00        92.12197
824.41        92.25923
824.82        92.40015
825.23        92.47286
825.64        92.45924
826.04        92.40884
826.45        92.34513
826.86        92.30231
827.27         92.2578
827.68        92.22587
828.08        92.30336
828.49        92.41128
828.90         92.4875
829.31        92.54041
829.72        92.65294
830.12        92.83444
830.53         92.9924
830.94        93.06706
831.35        92.95745
831.75        92.68532
832.16        92.24566
832.57        91.80364
832.97         91.6209
833.38        91.73447
833.79        92.06106
834.20        92.47229
834.60        92.75494
835.01        92.85844
835.42        92.85614
835.82        92.75498
836.23         92.5024
836.64        92.14935
837.04        91.69996
837.45        91.30412
837.86        91.26488
838.26          91.653
838.67        92.35438
839.08        93.12179
839.48        93.46424
839.89        93.24535
840.29        92.64163
840.70        91.98997
841.11        91.69743
841.51        91.88671
841.92        92.35974
842.33        93.02709
842.73        93.74287
843.14        94.29642
843.54         94.8035
843.95        95.08755
844.35        94.96033
844.76        94.43111
845.17        93.59193
845.57        92.69807
845.98        92.18176
846.38        92.14381
846.79        92.46729
847.19        93.06436
847.60        93.57954
848.00        93.94796
848.41        94.18004
848.81        94.35051
849.22        94.48814
849.62        94.65922
850.03        94.76243
850.43        94.83631
850.84        94.81895
851.24        94.78252
851.65        94.68563
852.05        94.61186
852.46        94.58396
852.86        94.62153
853.27        94.65197
853.67         94.6102
854.07        94.77066
854.48        94.99296
854.88        94.81339
855.29        94.25928
855.69        94.02757
856.10        94.09379
856.50        94.22293
856.90         94.2801
857.31        94.23499
857.71        94.14267
858.12        93.95519
858.52        93.77794
858.92        93.65507
859.33        93.57662
859.73        93.57715
860.13        93.64445
860.54        93.76566
860.94        94.00291
861.34         94.2926
861.75        94.50425
862.15        94.54406
862.55        94.34297
862.96        93.95239
863.36        93.49667
863.76        93.13867
864.17        92.94325
864.57        92.90269
864.97        92.98458
865.38        93.10786
865.78        93.28987
866.18        93.46521
866.58        93.60694
866.99        93.66807
867.39         93.6926
867.79        93.66291
868.19        93.42816
868.60        92.73009
869.00        91.53885
869.40        89.97805
869.80        88.53267
870.21        88.01075
870.61        88.64409
871.01        90.11364
871.41          91.769
871.81        92.56899
872.22        92.26881
872.62        91.23109
873.02         89.8942
873.42        89.04397
873.82        88.84989
874.22        88.87486
874.63        89.11935
875.03        89.68871
875.43          90.455
875.83        91.67797
876.23        92.32513
876.63        92.60301
877.03        92.32148
877.44        91.44949
877.84        108.3908
878.24         90.6543
878.64        90.93628
879.04        92.11849
879.44        91.21844
879.84        90.45449
880.24        91.26163
880.64        90.72326
881.04        89.14761
881.44        88.14861
881.84        88.08418
882.24        88.65948
882.65        89.41051
883.05        89.67892
883.45        89.19243
883.85        88.29523
884.25        87.42874
884.65        87.13647
885.05        87.54523
885.45        88.46436
885.85        89.52151
886.25        90.10168
886.65        90.02543
887.05        89.49017
887.45        88.82014
887.85        88.49809
888.25        88.65494
888.65        89.14748
889.04        89.78188
889.44        90.12888
889.84        90.10564
890.24        89.83636
890.64        89.50487
891.04        89.38354
891.44        89.50282
891.84        89.71092
892.24        89.85819
892.64        89.70465
893.04        89.21822
893.44        88.59286
893.83        87.82992
894.23        86.96467
894.63        86.04045
895.03        85.05459
895.43        84.34723
895.83        84.48792
896.23        85.53513
896.63        87.28561
897.02        89.15525
897.42        90.05789
897.82        89.72985
898.22         88.5024
898.62        86.89281
899.01        85.70712
899.41         85.2448
899.81        85.25022
900.21        85.61459
900.61        86.17465
901.00        86.81894
901.40        87.58546
901.80           88.35
902.20        88.86153
902.59        89.06326
902.99        88.97415
903.39        88.66029
903.79        88.26899
904.18        87.86712
904.58        87.46442
904.98        87.18652
905.38        87.22718
905.77        87.58964
906.17        88.25057
906.57        88.93552
906.96        89.23079
907.36        89.01276
907.76        88.37582
908.15        87.64796
908.55         87.3097
908.95        87.49417
909.34        88.10666
909.74         88.7438
910.14        88.72678
910.53        87.91078
910.93        86.59802
911.33        85.35661
911.72        85.07711
912.12        85.89707
912.52        87.41758
912.91        89.09049
913.31        90.01492
913.70        90.00681
914.10        89.31433
914.49        88.15664
914.89        87.02007
915.29        86.19359
915.68        85.57659
916.08        85.30095
916.47        85.49377
916.87        86.09302
917.26        87.02641
917.66        88.03578
918.05         88.7206
918.45        88.91769
918.84        88.76614
919.24        88.25546
919.64         87.4166
920.03        86.36304
920.42         85.1516
920.82        84.18832
921.21        84.02912
921.61        84.70984
922.00        86.10918
922.40        87.67934
922.79        88.73428
923.19        88.99401
923.58        88.55602
923.98        87.66126
924.37        87.00278
924.77        86.92043
925.16        85.84368
925.55        86.27747
925.95        86.03799
926.34          85.899
926.74        85.82178
927.13        85.93626
927.52        86.29816
927.92        86.86719
928.31        87.66065
928.70        88.41862
929.10        88.71266
929.49         88.4575
929.89        87.75799
930.28        86.99468
930.67        86.78082
931.07         87.2268
931.46        88.17673
931.85        89.24078
932.24        89.84846
932.64        89.83404
933.03        89.32191
933.42        88.52469
933.82        87.91721
934.21        87.65459
934.60        87.63187
934.99        87.55672
935.39        87.11332
935.78        86.25185
936.17        84.85103
936.56        83.13383
936.96        83.38805
937.35         83.2834
937.74        84.56318
938.13        85.91617
938.53        86.81149
938.92        87.19214
939.31        87.22803
939.70        87.04984
940.09        86.84309
940.49         86.7188
940.88        86.64729
941.27        86.65694
941.66        86.82956
942.05        87.15589
942.44        87.59597
942.84        88.10767
943.23        88.64342
943.62        89.13229
944.01        89.60915
944.40        89.89467
944.79        89.71992
945.18         89.0471
945.57        87.89381
945.97        86.70617
946.36        86.28779
946.75        86.85835
947.14        88.16263
947.53        89.49727
947.92        89.87891
948.31        89.16113
948.70        87.65078
949.09        85.95566
949.48        85.14106
949.87         85.5117
950.26        86.72571
950.65        88.23319
951.04        89.12117
951.43        89.09811
951.82        88.44648
952.21        87.49729
952.60        86.77417
952.99        86.45445
953.38        86.36063
953.77        86.36878
954.16        86.30646
954.55        86.12018
954.94        85.90977
955.33        85.73097
955.72        85.63685
956.11        85.65018
956.50        85.73474
956.89        85.86095
957.28        85.99275
957.66        86.10637
958.05        86.14574
958.44        86.13193
958.83        86.07977
959.22        85.98885
959.61        85.86749
960.00        85.64113
960.39          85.201
960.78         84.5598
961.16        83.74658
961.55        83.02674
961.94        82.66514
962.33        82.72278
962.72        83.15289
963.11        83.70203
963.49        83.95335
963.88        83.70608
964.27        83.09991
964.66        82.48257
965.04        82.44157
965.43        83.07764
965.82        84.20934
966.21        85.38656
966.60        85.88331
966.98        85.54725
967.37        84.59057
967.76        83.49309
968.15        83.00297
968.53        83.32524
968.92        84.13735
969.31        85.09634
969.69        85.62541
970.08        85.48807
970.47        84.93357
970.86        84.11382
971.24        83.23221
971.63        82.45979
972.02        81.75434
972.40        81.23476
972.79        81.11956
973.17        81.47042
973.56        82.10314
973.95        82.94472
974.33        83.80782
974.72        84.44746
975.11        84.91986
975.49        84.98985
975.88        84.30592
976.26        82.91576
976.65        81.01708
977.04        79.11456
977.42         78.0862
977.81        78.19311
978.19        79.19212
978.58        80.78402
978.96        82.48138
979.35        83.92772
979.74        85.30117
980.12        86.35369
980.51        86.40969
980.89        85.54303
981.28        83.89328
981.66        82.17786
982.05         81.4716
982.43        81.90523
982.82        83.20799
983.20        84.84915
983.59        85.52203
983.97        84.96122
984.35        83.42891
984.74        81.64244
985.12        80.64259
985.51        80.69397
985.89        81.54728
986.28        82.63225
986.66        82.99475
987.04        82.25861
987.43        80.97046
987.81        79.57331
988.20        78.60104
988.58        78.10837
988.96        77.84777
989.35        77.86539
989.73        78.45287
990.12        79.43549
990.50        80.78569
990.88        81.80061
991.27        81.72395
991.65        80.63182
992.03        78.69348
992.42        76.66502
992.80        76.15574
993.18        77.58981
993.56        80.24681
993.95        83.12079
994.33         85.1582
994.71         85.9418
995.10        85.84203
995.48        85.07954
995.86        83.90077
996.24        82.47658
996.63        80.70973
997.01        78.81586
997.39        77.44936
997.77        76.99302
998.15        77.31972
998.54        78.28883
998.92        79.71272
999.30        81.63686
999.68        84.35309
1000.06         87.1916
1000.45        87.78699
1000.83         85.4271
1001.21        81.22267
1001.59        77.24014
1001.97        75.04922
1002.35        74.51218
1002.73        75.15176
1003.12        76.39636
1003.50        77.19708
1003.88         76.8839
1004.26        75.86895
1004.64        74.60996
1005.02        73.69626
1005.40        73.33187
1005.78        73.32772
1006.16        73.66187
1006.54        74.31255
1006.92        75.09243
1007.30        75.84966
1007.69        76.58627
1008.07        77.53662
1008.45        78.82886
1008.83        80.75491
1009.21        83.03691
1009.59        83.99837
1009.97        82.17583
1010.35        77.64309
1010.73         72.9248
1011.11        71.34043
1011.49        73.04942
1011.86        77.05996
1012.24        80.74418
1012.62        81.51813
1013.00         79.2277
1013.38        74.99469
1013.76        70.23795
1014.14        67.48437
1014.52        67.51108
1014.90        69.38528
1015.28        72.20617
1015.66        74.51063
1016.04        75.71608
1016.41        76.45731
1016.79        76.14852
1017.17        74.06354
1017.55        70.65166
1017.93        66.51322
1018.31        63.30801
1018.69         62.6342
1019.06        64.34959
1019.44        67.93979
1019.82        72.17081
1020.20         73.7954
1020.58        71.42475
1020.95        65.97902
1021.33        59.22994
1021.71        52.84019
1022.09        46.63996
1022.46        38.21391
1022.84        28.16926
1023.22        27.49009
1023.60        39.63497
1023.97        52.10488
1024.35          59.075
1024.73        61.81919
