SpectraSmart Spectrum 2.9.0.0
--------- Device Information -----------
Spectrum Name :  反射率_0
Saving Time :  2024/04/20 01:01:50
Spectro-Module Model Name : SE2030-DUVN
Spectro-Module Serial Number : OS361AC55029948
Wavelength Start : 200
Wavelength End : 1025
Wavelength Unit : Wavelength(nm)
Spectrum Unit : Reflectance(%)
-----------Spectrum Setting ------------
Integration Time : 30ms
Average : 10
Boxcar : 0
Background removal :  enabled
linearity correction :  enabled
SC :  disabled
Intensity correction :  disabled
DWT denoise :  enabled
savitzky-golay :  disabled
FFT :  disabled
Running average :  disabled
Kalman :  disabled
High pass :  disabled
---------------BEGIN--------------------
Wavelength(nm)             Reflectance(%)
200.29               0
200.75        61.39761
201.21        65.75439
201.67        74.43304
202.13        85.93341
202.58        98.84852
203.04        113.6077
203.50        125.6452
203.96        125.4235
204.42          114.28
204.88        99.22578
205.34        86.72861
205.80        79.71214
206.26        76.84454
206.72        76.75953
207.18        79.55854
207.64        83.70664
208.10        86.77115
208.55        89.22384
209.01        89.68929
209.47        88.17957
209.93        85.34995
210.39        81.27291
210.85        77.54542
211.31         76.0844
211.77        77.10437
212.23         80.7002
212.69        85.82021
213.14        87.90936
213.60        84.94031
214.06        80.25596
214.52        76.95683
214.98        76.96184
215.44        79.90043
215.90        84.96362
216.36        91.25774
216.81        95.94935
217.27        97.30085
217.73        96.49106
218.19        94.29247
218.65        91.65402
219.11        89.05711
219.57         86.0176
220.02        83.62801
220.48        85.17258
220.94        91.15891
221.40        100.8191
221.86        111.0434
222.32        117.2113
222.77        118.2124
223.23        115.6444
223.69        111.5776
224.15        109.1499
224.61        109.1282
225.06        110.3517
225.52        112.2137
225.98        114.0655
226.44        115.8499
226.90        117.7519
227.36        120.0072
227.81        122.5276
228.27        125.1854
228.73        127.6009
229.19        128.9443
229.65         128.353
230.10        126.0821
230.56        123.1174
231.02        120.4961
231.48        119.6933
231.93        120.6261
232.39         122.693
232.85        125.0044
233.31        126.2952
233.77         126.199
234.22         125.229
234.68        123.3993
235.14        120.7433
235.60        117.5852
236.05        113.9744
236.51        110.7647
236.97        109.2032
237.43        109.5303
237.88        112.0354
238.34        115.5137
238.80        117.1981
239.26        115.1903
239.71        110.1075
240.17        103.4241
240.63        97.97364
241.08         94.5877
241.54        92.58195
242.00        91.27914
242.46        89.18711
242.91        85.50753
243.37        79.56647
243.83        71.90638
244.28        67.65164
244.74        71.37244
245.20        81.64625
245.66        91.24818
246.11        94.22052
246.57        89.83227
247.03        78.29308
247.48        61.47456
247.94        53.77333
248.40        59.10358
248.85        67.74555
249.31        74.69488
249.77        78.66643
250.22        80.49811
250.68        81.42608
251.14         81.6856
251.59        81.26928
252.05         80.4876
252.51        79.54259
252.96        78.58913
253.42        78.25358
253.88        78.93562
254.33        80.43168
254.79        83.82458
255.25         89.9144
255.70        97.86728
256.16        106.4272
256.62        113.7514
257.07        117.8315
257.53        118.9648
257.99        118.0443
258.44         115.246
258.90        111.9946
259.35        108.6345
259.81        106.3144
260.27        104.8145
260.72        104.0001
261.18        104.0988
261.63        104.2513
262.09        104.9353
262.55        105.9813
263.00        106.9677
263.46         108.088
263.91        108.3207
264.37        107.1301
264.83        104.5595
265.28        100.9667
265.74        97.65829
266.19         95.7255
266.65        95.48463
267.11        96.28863
267.56        97.31493
268.02        97.49323
268.47        96.54036
268.93        94.85357
269.38        92.84722
269.84        91.41892
270.30        90.78807
270.75        90.64109
271.21        90.61504
271.66        90.12535
272.12        89.05219
272.57        87.57467
273.03        86.00089
273.48        84.65169
273.94        83.71893
274.39        83.01234
274.85        82.43074
275.31        81.69304
275.76        80.68951
276.22        79.55939
276.67        78.38233
277.13        77.49463
277.58        76.82439
278.04        76.35665
278.49        75.74395
278.95        74.70282
279.40        73.12769
279.86        71.31465
280.31        69.47102
280.77        68.15194
281.22        67.31885
281.68         66.8695
282.13        66.50713
282.59        65.93119
283.04        65.01908
283.50        63.95829
283.95        62.81263
284.41        61.79179
284.86        60.88871
285.32         60.0902
285.77        59.34671
286.22        58.70859
286.68         58.1874
287.13        57.73478
287.59        57.32348
288.04        56.79614
288.50        56.16916
288.95        55.42252
289.41        54.66803
289.86        53.98162
290.32        53.44677
290.77        53.00595
291.22        52.63899
291.68        52.27984
292.13        51.89643
292.59        51.54591
293.04        51.25808
293.50        51.12156
293.95        51.13269
294.40         51.2619
294.86        51.46169
295.31        51.66092
295.77        51.84316
296.22        52.03009
296.68        52.23207
297.13        52.45045
297.58        52.69242
298.04        52.94779
298.49        53.23341
298.95        53.63064
299.40        54.11271
299.85        54.65108
300.31        55.15564
300.76        55.46292
301.21        55.56213
301.67        55.55273
302.12        55.48306
302.58         55.5239
303.03        55.67484
303.48        55.90803
303.94        56.24627
304.39        56.66553
304.84        57.15009
305.30        57.68702
305.75        58.14243
306.20        58.35447
306.66        58.32498
307.11        58.08195
307.57        57.77469
308.02        57.53176
308.47        57.42455
308.93        57.40789
309.38        57.43528
309.83        57.50249
310.29        57.58428
310.74        57.68319
311.19        57.71672
311.65        57.54442
312.10        57.14661
312.55        56.57353
313.00         55.9798
313.46         55.6055
313.91        55.48258
314.36        55.55447
314.82        55.68156
315.27        55.66425
315.72        55.43029
316.18        55.05861
316.63        54.62051
317.08        54.24543
317.53        53.96694
317.99        53.73199
318.44         53.5092
318.89        53.23794
319.35        52.90535
319.80        52.54783
320.25        52.19016
320.70        51.86741
321.16        51.58422
321.61        51.33103
322.06         51.0968
322.51        50.87315
322.97        50.64046
323.42        50.40659
323.87         50.1459
324.32        49.82639
324.78        49.43762
325.23        49.01504
325.68         48.5699
326.13        48.13419
326.59        47.72818
327.04        47.37667
327.49        47.10608
327.94        46.96404
328.39        46.94728
328.85        47.00902
329.30        47.13295
329.75        47.20945
330.20        47.19425
330.66         47.0816
331.11        46.89794
331.56        46.62742
332.01        46.28405
332.46        45.87674
332.92        45.44944
333.37        45.10853
333.82        44.88605
334.27        44.78686
334.72        44.78511
335.17        44.82293
335.63        44.85935
336.08        44.90921
336.53        44.98314
336.98        45.12647
337.43         45.3315
337.88        45.57396
338.34         45.7257
338.79         45.6381
339.24        45.27326
339.69        44.68708
340.14        44.08228
340.59        43.79625
341.05        43.90155
341.50        44.31074
341.95        44.80825
342.40        45.05462
342.85         44.9703
343.30        44.66601
343.75        44.29288
344.20        44.09944
344.66        44.14751
345.11        44.32006
345.56        44.53903
346.01        44.68404
346.46        44.70561
346.91        44.66257
347.36         44.5222
347.81        44.22073
348.26        43.78152
348.72        43.25391
349.17        42.75489
349.62        42.55056
350.07        42.69284
350.52        43.08818
350.97        43.58153
351.42         43.9377
351.87        44.07853
352.32        44.05483
352.77        43.89621
353.22        43.65855
353.67        43.37838
354.13         43.0615
354.58         42.7112
355.03        42.38376
355.48        42.10479
355.93        41.88601
356.38        41.74228
356.83        41.68289
357.28        41.69244
357.73        41.74475
358.18        41.79927
358.63        41.79289
359.08        41.70092
359.53        41.54038
359.98        41.29689
360.43        40.95284
360.88        40.52216
361.33        40.01597
361.78        39.52261
362.23        39.18654
362.68        39.03552
363.13        39.02802
363.58        39.05033
364.03        38.91997
364.48        38.58841
364.93        38.09956
365.38        37.54287
365.83        37.07881
366.28        36.75889
366.73        36.53892
367.18        36.35033
367.63        36.08298
368.08        35.71672
368.53        35.30523
368.98        34.90786
369.43        34.60384
369.88        34.41217
370.33        34.30104
370.78        34.23805
371.23        34.17512
371.68        34.09137
372.13        33.99503
372.58        33.89265
373.03        33.79836
373.48        33.71013
373.93        33.60998
374.38        33.48384
374.83        33.31293
375.28        33.09343
375.72        32.83058
376.17        32.55013
376.62        32.25092
377.07        31.95103
377.52        31.65882
377.97        31.41447
378.42        31.27583
378.87        31.24387
379.32        31.29213
379.77        31.36084
380.22        31.35884
380.67        31.26113
381.11        31.09242
381.56        30.87091
382.01        30.65691
382.46         30.4704
382.91        30.29016
383.36        30.11503
383.81        29.93986
384.26        29.76497
384.71        29.61343
385.15        29.45828
385.60        29.26528
386.05        29.03211
386.50        28.76534
386.95        28.54383
387.40        28.49208
387.85        28.61862
388.29        28.86608
388.74        29.11337
389.19         29.1644
389.64        28.98285
390.09         28.6139
390.54        28.19222
390.98        27.92794
391.43        27.89236
391.88        28.00848
392.33        28.12705
392.78        28.03114
393.23        27.70352
393.67        27.22114
394.12        26.78173
394.57        26.56497
395.02        26.60406
395.47        26.82847
395.91        27.12634
396.36        27.27065
396.81        27.20699
397.26        27.00151
397.71        26.75832
398.15        26.61326
398.60        26.62852
399.05        26.73203
399.50        26.85144
399.95        26.88851
400.39        26.81906
400.84        26.67339
401.29        26.50536
401.74        26.41052
402.18         26.4239
402.63         26.5092
403.08        26.59872
403.53        26.57981
403.97        26.43038
404.42        26.19778
404.87        25.97312
405.32        25.90619
405.76        26.02179
406.21        26.26728
406.66        26.53234
407.11        26.64448
407.55         26.5656
408.00        26.35365
408.45        26.09324
408.90        25.86873
409.34        25.75231
409.79        25.83584
410.24        26.02243
410.68        26.05278
411.13          25.904
411.58        25.70561
412.03        25.51295
412.47         25.3849
412.92         25.3454
413.37        25.36478
413.81        25.43949
414.26        25.58373
414.71         25.7755
415.15         26.0171
415.60        26.21152
416.05        26.23247
416.49        26.05403
416.94        25.71717
417.39        25.33277
417.83        25.08196
418.28        25.02164
418.73         25.0996
419.17        25.23567
419.62        25.29263
420.07        25.23862
420.51        25.11858
420.96         24.9932
421.41         24.9285
421.85        24.93332
422.30        24.99268
422.74        25.07149
423.19        25.16174
423.64        25.24451
424.08        25.33848
424.53        25.40911
424.98        25.43571
425.42        25.41889
425.87        25.36231
426.31        25.28483
426.76        25.22583
427.21         25.1809
427.65        25.13205
428.10        25.09163
428.54        25.04774
428.99        25.00826
429.44        25.09255
429.88        25.19735
430.33        24.99268
430.77        24.57094
431.22        24.41154
431.66        24.54042
432.11        24.70965
432.56        24.86059
433.00        25.12019
433.45         25.2912
433.89         25.0956
434.34        24.72739
434.78        24.46874
435.23        24.22125
435.67        25.36645
436.12        24.40335
436.57        24.32315
437.01        24.18265
437.46        24.15343
437.90        24.24656
438.35        24.42369
438.79        24.60291
439.24        24.67416
439.68        24.61567
440.13        24.26964
440.57        23.82566
441.02        23.96854
441.46        24.48878
441.91        24.60267
442.35         23.7193
442.80        23.46901
443.24        23.60972
443.69        23.63031
444.13        23.48772
444.58        23.37522
445.02        23.30727
445.47        23.29237
445.91        23.31944
446.36        23.31773
446.80        23.27292
447.24        23.23064
447.69        23.20081
448.13        23.15041
448.58        23.08756
449.02        23.01765
449.47        22.93811
449.91        22.83607
450.36        22.72308
450.80        22.60364
451.25        22.51167
451.69        22.47571
452.13        22.50624
452.58        22.58429
453.02        22.68519
453.47        22.77645
453.91        22.84446
454.36        22.89259
454.80        22.91236
455.24        22.88916
455.69        22.83364
456.13        22.72894
456.58        22.62049
457.02        22.56472
457.46        22.56834
457.91        22.56454
458.35        22.54149
458.79        22.54086
459.24        22.55246
459.68        22.57457
460.13        22.65246
460.57        22.64281
461.01        22.51963
461.46        22.90957
461.90        22.94355
462.34        22.68926
462.79        22.90939
463.23        22.81931
463.68        22.75815
464.12        22.67947
464.56        22.76683
465.01        22.87298
465.45        22.95242
465.89        22.96147
466.34        22.90024
466.78        22.70657
467.22        22.47707
467.67        22.52751
468.11         22.8142
468.55        22.88008
468.99        22.71719
469.44        22.68504
469.88        22.78667
470.32        22.80068
470.77        22.72836
471.21        22.68694
471.65        22.68662
472.10        22.69549
472.54        22.70732
472.98        22.75716
473.42        22.83944
473.87        22.87947
474.31        22.88508
474.75        23.00933
475.20        23.20366
475.64        23.20792
476.08        23.06321
476.52        23.03988
476.97         23.1488
477.41        23.26018
477.85        23.32947
478.29        23.35448
478.74        23.33122
479.18        23.22152
479.62        23.11011
480.06        23.13498
480.50        23.28665
480.95        23.42021
481.39        23.48072
481.83         23.4929
482.27        23.44882
482.72        23.33774
483.16        23.21703
483.60        23.17173
484.04        23.22286
484.48        23.41831
484.93        23.76287
485.37        23.81737
485.81        23.89111
486.25        24.13213
486.69        25.45272
487.14        24.58396
487.58        23.94263
488.02        24.83578
488.46        24.38803
488.90        24.58648
489.34        24.28278
489.79        24.28989
490.23        24.54626
490.67        24.71562
491.11        24.77593
491.55        24.71299
491.99        24.57312
492.43        24.52208
492.88        24.58708
493.32        24.64911
493.76        24.71544
494.20        24.85089
494.64        25.05298
495.08        25.31972
495.52        25.59794
495.96        25.76779
496.41        25.84354
496.85        25.91979
497.29         26.0238
497.73        26.21393
498.17        26.45631
498.61        26.53687
499.05        26.48076
499.49        26.57713
499.93        26.83789
500.37        27.00535
500.82        27.08678
501.26        27.34273
501.70         27.7056
502.14         27.7826
502.58        27.61339
503.02         27.5864
503.46        27.72675
503.90        27.82891
504.34        27.86354
504.78        27.87723
505.22        27.86691
505.66         27.8295
506.10        27.79409
506.54        27.80271
506.98        27.86636
507.42        27.97623
507.86        28.11011
508.30        28.22881
508.74        28.31883
509.18        28.38811
509.62        28.44953
510.06        28.52403
510.50        28.61776
510.94        28.72486
511.38        28.82693
511.82         28.8962
512.26        28.92649
512.70        28.92436
513.14        28.92019
513.58        28.95669
514.02        29.03508
514.46        29.14626
514.90        29.25126
515.34         29.2203
515.78        29.09492
516.22        28.94879
516.66        28.85918
517.10        28.62419
517.54        28.26011
517.98        28.77815
518.42        28.66513
518.86        28.88173
519.30        28.95975
519.74        29.04725
520.18        29.11286
520.62        29.08771
521.06        28.98519
521.50        28.81434
521.93        28.62289
522.37        28.49768
522.81        28.46007
523.25        28.48677
523.69        28.55013
524.13        28.60427
524.57        28.63014
525.01        28.63851
525.45        28.62612
525.89        28.58755
526.32         28.5242
526.76        28.43821
527.20        28.33869
527.64        28.24746
528.08        28.17029
528.52        28.10047
528.96        28.04136
529.40        27.99377
529.83        27.95505
530.27        27.93561
530.71        27.90911
531.15        27.83659
531.59        27.71738
532.03        27.56422
532.46        27.42495
532.90        27.39518
533.34        27.47854
533.78        27.63897
534.22        27.80934
534.66        27.88642
535.09        27.84166
535.53        27.71816
535.97        27.55472
536.41        27.41051
536.85        27.31053
537.28        27.25212
537.72        27.24447
538.16        27.21798
538.60        27.29913
539.04        27.36924
539.47        27.43744
539.91        27.52813
540.35        27.65203
540.79        27.56854
541.22         27.6429
541.66        27.69379
542.10        27.85376
542.54        27.67061
542.97        27.88063
543.41        27.97298
543.85        28.14515
544.29        28.32139
544.72        28.45977
545.16        28.57785
545.60         28.6617
546.04        28.62337
546.47        28.55576
546.91        28.78413
547.35        29.24222
547.79        29.55233
548.22        29.66677
548.66        29.71308
549.10        29.74451
549.53        29.95845
549.97        30.36182
550.41         30.4145
550.84        30.67131
551.28        30.82811
551.72        31.06009
552.15        31.27143
552.59         31.4624
553.03        31.64811
553.46        31.80135
553.90        31.91434
554.34        31.98427
554.77         32.0162
555.21        32.04705
555.65        32.12106
556.08        32.24163
556.52        32.39007
556.96        32.53995
557.39        32.68958
557.83        32.81886
558.27        32.85569
558.70        32.81995
559.14        32.81137
559.57        32.83195
560.01        32.87367
560.45        32.92419
560.88         32.9133
561.32         32.9033
561.75        33.00954
562.19         33.3194
562.63        33.43187
563.06        33.39411
563.50         33.4555
563.93        33.60821
564.37        33.78173
564.80        33.81716
565.24        33.92543
565.68        34.03831
566.11        34.13121
566.55        34.22748
566.98        34.27619
567.42        34.26908
567.85        34.62537
568.29        34.45724
568.72        34.81539
569.16        35.34327
569.60        35.70798
570.03        35.84644
570.47        36.00359
570.90         36.0266
571.34         36.4166
571.77        36.00794
572.21        36.53057
572.64        36.73964
573.08        36.77753
573.51        36.73777
573.95        37.56285
574.38        38.00714
574.82        38.16475
575.25         38.1524
575.69        38.08443
576.12        37.96867
576.56        37.92038
576.99        37.95201
577.42        38.24744
577.86        38.20378
578.29        38.41656
578.73        38.92215
579.16        38.35078
579.60        37.91483
580.03        37.65233
580.47        37.96738
580.90        37.54282
581.33        37.56598
581.77        37.69363
582.20        38.41605
582.64        38.06636
583.07        37.25583
583.51        37.39473
583.94        36.90024
584.37        36.75711
584.81        36.39076
585.24        36.29161
585.68        36.34738
586.11        36.45013
586.54        36.18796
586.98         36.0642
587.41        36.00699
587.85        36.04371
588.28         36.0934
588.71        35.87996
589.15        35.51713
589.58        35.04835
590.01        35.45385
590.45        35.74318
590.88        35.55973
591.31        35.59515
591.75         35.0375
592.18        35.24252
592.61        35.18439
593.05        35.74933
593.48         35.4933
593.91        36.35524
594.35        35.93518
594.78        36.03872
595.21        36.32512
595.65        36.78241
596.08        36.83201
596.51        36.82283
596.94        36.68178
597.38        36.71987
597.81        37.05445
598.24        37.08245
598.68         37.6879
599.11        37.92054
599.54        38.96782
599.97        38.57076
600.41        38.88392
600.84        39.50725
601.27         39.9298
601.70        40.35197
602.14        40.49355
602.57        40.93694
603.00        41.63187
603.43        42.20268
603.87        42.38926
604.30         42.8322
604.73        43.51933
605.16         43.6389
605.60        44.23351
606.03        44.78648
606.46        45.49734
606.89         45.9451
607.32        46.64262
607.76        46.86464
608.19        47.27077
608.62        47.89712
609.05         47.9598
609.48        48.31804
609.92        48.79042
610.35        48.74311
610.78        49.96794
611.21        50.73639
611.64        50.52748
612.07        50.83406
612.50        51.26337
612.94        51.20124
613.37        51.83689
613.80        52.22079
614.23        52.69276
614.66        53.14689
615.09        53.60509
615.52        53.99957
615.96        54.26504
616.39        54.57994
616.82        55.04887
617.25        54.69956
617.68        55.27431
618.11        55.73621
618.54        56.41723
618.97        56.42262
619.40         55.8459
619.84        56.00797
620.27        55.85596
620.70        56.45559
621.13         57.2634
621.56        57.54907
621.99        57.43574
622.42         57.5382
622.85        57.91339
623.28        58.06749
623.71        58.03344
624.14        57.96046
624.57        57.95838
625.00        57.84385
625.43        58.16909
625.86        57.33872
626.29        57.63924
626.72        57.43743
627.15        57.30214
627.58        57.13725
628.01        56.86296
628.44        56.86317
628.87        56.60913
629.30        55.95997
629.73        55.74856
630.16        55.38464
630.59        55.19002
631.02        54.60506
631.45         54.2504
631.88        53.76846
632.31        53.32869
632.74        52.84522
633.17        52.31551
633.60        51.76698
634.03        51.19961
634.46        50.61853
634.89        50.03302
635.32        49.45592
635.75        48.89826
636.18        48.36874
636.61        47.86889
637.04        47.39369
637.47        46.93724
637.89        46.49833
638.32        46.07298
638.75        45.68489
639.18         45.3375
639.61         45.0297
640.04         44.7265
640.47        44.36909
640.90        43.95231
641.33        43.49997
641.76        43.07508
642.18        42.78404
642.61        42.64376
643.04        42.62345
643.47        42.66883
643.90        42.68747
644.33        42.65308
644.76        42.59909
645.18        42.54643
645.61        42.53082
646.04        42.56857
646.47        42.64143
646.90        42.77396
647.33        43.01062
647.75        43.35267
648.18        43.78163
648.61        44.23682
649.04        44.62666
649.47        44.94256
649.89        45.18226
650.32        45.41293
650.75        45.86574
651.18        46.54039
651.61        47.07116
652.03        47.49977
652.46        48.39867
652.89         49.6703
653.32        50.28307
653.74        50.32294
654.17        51.14819
654.60        52.02421
655.03         52.9428
655.46         52.5457
655.88        54.70907
656.31        56.39146
656.74        65.66287
657.16        62.15741
657.59        56.55697
658.02        57.07657
658.45        57.96968
658.87        58.88783
659.30        59.42582
659.73        60.22027
660.15         61.3808
660.58        61.21307
661.01        61.29596
661.44        61.24525
661.86        61.63391
662.29        62.41914
662.72        63.29052
663.14        64.06094
663.57        64.26495
664.00        64.06492
664.42        64.19933
664.85        64.78981
665.27        65.30309
665.70        65.66766
666.13        66.02423
666.55        66.35838
666.98        66.62264
667.41        66.84344
667.83        67.05757
668.26        67.27023
668.69        67.49192
669.11        67.71352
669.54        67.91302
669.96        68.09153
670.39        68.26285
670.82         68.4683
671.24        68.71729
671.67        69.02161
672.09        69.47986
672.52        69.97784
672.94        70.19832
673.37        70.06478
673.80        70.04232
674.22         70.1711
674.65        70.28672
675.07        70.41924
675.50        70.68701
675.92        71.02872
676.35        71.21798
676.77        71.22004
677.20        71.15192
677.62        71.09702
678.05         71.0643
678.47        71.05299
678.90        71.54819
679.32        71.61298
679.75        71.92377
680.17        72.17546
680.60        72.45525
681.02        72.72107
681.45         72.7522
681.87        72.62779
682.30        72.71805
682.72        73.01006
683.15        73.05225
683.57        72.91158
684.00        73.01108
684.42        73.43417
684.85        73.74541
685.27         73.9445
685.70        74.22406
686.12        74.51091
686.54        74.68482
686.97        74.74052
687.39        74.59826
687.82        74.34372
688.24        74.58733
688.66        74.91402
689.09        75.07399
689.51        74.98603
689.94          75.105
690.36        75.41199
690.78        75.54693
691.21        75.54298
691.63        75.45072
692.06        75.95649
692.48        75.95184
692.90        76.05576
693.33        76.59013
693.75        76.36823
694.17        76.50784
694.60        76.60332
695.02        76.45242
695.44        76.10735
695.87        76.21322
696.29         76.6997
696.71        76.55733
697.14        76.03886
697.56        76.54793
697.98        77.82051
698.41        78.65063
698.83        78.26054
699.25        78.00641
699.68        77.85002
700.10        77.73766
700.52         77.7401
700.94        77.88404
701.37        78.09521
701.79        78.30177
702.21        78.44154
702.64        78.53303
703.06        78.61707
703.48        78.77334
703.90        79.01591
704.33        79.30649
704.75        79.55733
705.17        79.59364
705.59        79.39366
706.01        79.02254
706.44        78.66564
706.86        78.61604
707.28        78.92401
707.70        79.48454
708.12        80.12057
708.55        80.54671
708.97        80.68769
709.39        80.64334
709.81        80.49162
710.23        80.37341
710.66        80.34982
711.08        80.37408
711.50        80.45365
711.92        80.62631
712.34        80.88635
712.76        81.23869
713.19          81.575
713.61        81.77338
714.03        81.77013
714.45        81.60735
714.87        81.41206
715.29        81.38558
715.71        81.57052
716.13        81.90798
716.56        82.26752
716.98        82.51872
717.40        82.57872
717.82        82.50584
718.24        82.37989
718.66         82.3301
719.08        82.39729
719.50        82.52468
719.92        82.67237
720.34        82.80723
720.76        82.91409
721.19         82.9009
721.61        82.97681
722.03        82.96302
722.45        82.94671
722.87        82.90926
723.29        82.88762
723.71        82.92821
724.13        83.04385
724.55        83.22906
724.97        83.45813
725.39         83.6849
725.81        83.88797
726.23        84.06527
726.65        84.23077
727.07        84.41483
727.49        84.61811
727.91        84.82387
728.33        84.99284
728.75        85.06242
729.17        85.03138
729.59        84.93575
730.01        84.81969
730.43        84.79971
730.85        84.91508
731.27        85.00874
731.69        85.06233
732.10        85.53235
732.52        85.83253
732.94        85.87192
733.36        85.55909
733.78        85.40495
734.20        85.47186
734.62         85.4926
735.04        85.43216
735.46        85.43915
735.88        85.51775
736.30        85.28808
736.72        85.31923
737.13        85.59727
737.55         86.1032
737.97        86.63303
738.39        86.98673
738.81        86.57798
739.23        85.71409
739.65        85.76574
740.06        86.56245
740.48        86.98047
740.90        86.95016
741.32        86.01318
741.74         86.2067
742.16        86.04929
742.57        86.16839
742.99        86.38086
743.41        86.63432
743.83        86.85457
744.25        86.98164
744.67          87.028
745.08        87.02283
745.50        86.98376
745.92        86.94234
746.34         86.8828
746.75         86.8084
747.17        86.73631
747.59        86.68704
748.01        86.68078
748.42        86.73431
748.84        86.89665
749.26         87.1884
749.68        87.35174
750.09        87.41941
750.51        87.96292
750.93        88.72189
751.35        88.53098
751.76        87.56411
752.18         87.1255
752.60        87.29395
753.01        87.37421
753.43        87.32598
753.85        87.44052
754.27        87.70081
754.68        88.11532
755.10        88.53619
755.52        88.56976
755.93        88.25887
756.35        88.04764
756.77        88.03278
757.18        88.07016
757.60        88.23352
758.02        88.54969
758.43         88.8166
758.85         89.1825
759.26        89.22844
759.68        88.41396
760.10         89.0229
760.51        88.72744
760.93        88.43676
761.34        87.73177
761.76        88.18493
762.18        88.12187
762.59        88.15472
763.01        87.68362
763.42        88.55716
763.84        89.12347
764.26        89.71075
764.67        89.66573
765.09        89.27691
765.50        89.25002
765.92        90.09666
766.33        90.39271
766.75        90.11781
767.16        89.54656
767.58        88.84651
768.00        88.39481
768.41         88.4161
768.83        88.83369
769.24        89.74879
769.66        90.29816
770.07        90.42806
770.49         90.3544
770.90        90.19711
771.32        90.17143
771.73        90.29998
772.15        90.28297
772.56        90.13118
772.97        90.09644
773.39        90.09943
773.80        89.94598
774.22        89.59768
774.63        89.13058
775.05        88.71903
775.46        88.67369
775.88        89.02192
776.29        89.71722
776.70        90.45951
777.12        90.77355
777.53        90.56311
777.95        89.93948
778.36        89.21816
778.77         88.9349
779.19        89.21788
779.60        89.95034
780.02        90.77812
780.43        91.31831
780.84        91.44876
781.26        90.91674
781.67        90.12901
782.09        90.67097
782.50        92.18369
782.91         92.3202
783.33        91.18047
783.74        90.90764
784.15        91.55606
784.57        91.93706
784.98        91.88784
785.39        91.60674
785.81        91.13118
786.22        90.63083
786.63        90.25897
787.04        90.07854
787.46        90.13692
787.87        90.47449
788.28        90.97293
788.70        91.36034
789.11        91.55577
789.52        91.59772
789.93        91.60687
790.35         91.6088
790.76        91.63934
791.17        91.61894
791.58        91.54501
792.00        91.34119
792.41        91.03441
792.82        90.95609
793.23        91.01927
793.65        90.54636
794.06        89.90755
794.47        90.34227
794.88        91.49062
795.29        93.15189
795.71        92.43732
796.12        92.46394
796.53        92.52441
796.94        92.03408
797.35        91.22883
797.76        90.93008
798.18        91.14755
798.59        91.44962
799.00        91.57807
799.41        91.51936
799.82        92.29403
800.23        92.49376
800.64        92.41043
801.06        92.09825
801.47        91.75072
801.88        91.58904
802.29        91.65677
802.70        91.85394
803.11        92.07732
803.52        92.17007
803.93        92.11786
804.34        92.01818
804.75        91.85787
805.17        91.78737
805.58        91.90549
805.99        91.56122
806.40        91.01514
806.81        92.19556
807.22         94.4542
807.63        94.29097
808.04        92.08368
808.45        91.47765
808.86        92.70827
809.27        93.69489
809.68        94.11476
810.09        94.42823
810.50        94.52506
810.91        94.28614
811.32        93.83403
811.73        93.36179
812.14        92.94876
812.55        92.60475
812.96        92.36076
813.37        92.19649
813.78        92.14097
814.19        92.31039
814.60        92.62034
815.01        92.84245
815.42        92.93384
815.83        92.95827
816.24         92.9534
816.65        92.97337
817.05        93.05281
817.46         93.1338
817.87         93.2008
818.28        93.17198
818.69        93.04659
819.10        92.85519
819.51        92.71584
819.92        92.84928
820.33         93.2918
820.74        93.89161
821.14         94.4932
821.55        94.96307
821.96        95.17288
822.37        94.87366
822.78        94.22573
823.19        93.80124
823.60        93.70982
824.00        93.72533
824.41        93.74368
824.82        93.81787
825.23         93.9165
825.64        94.05184
826.04        94.20865
826.45         94.3026
826.86        94.33044
827.27        94.29333
827.68        94.22669
828.08         94.2379
828.49        94.27601
828.90        94.34905
829.31        94.41724
829.72        94.41087
830.12        94.33355
830.53         94.1808
830.94        93.99651
831.35        93.80515
831.75        93.65209
832.16         93.4886
832.57        93.37528
832.97         93.3901
833.38         93.5118
833.79         93.7111
834.20        93.93021
834.60        94.07001
835.01        94.12064
835.42        94.12225
835.82        94.07114
836.23        93.89837
836.64        93.64207
837.04        93.31327
837.45        93.05116
837.86        93.13702
838.26        93.63309
838.67        94.42267
839.08        95.24602
839.48        95.59634
839.89        95.34043
840.29        94.66624
840.70        93.94389
841.11        93.62791
841.51        93.84744
841.92        94.38271
842.33        95.12708
842.73        95.90026
843.14         96.4733
843.54        96.98077
843.95        97.21627
844.35        96.94889
844.76        96.19522
845.17        95.06488
845.57        93.90867
845.98        93.29691
846.38        93.35855
846.79        93.95664
847.19         94.8875
847.60        95.57796
848.00        95.90076
848.41        95.90829
848.81        95.84086
849.22        95.99454
849.62        96.48732
850.03        97.13695
850.43         97.7654
850.84        97.92473
851.24         97.5884
851.65        96.83515
852.05        96.00513
852.46        95.56007
852.86        95.63755
853.27        95.96755
853.67        96.30254
854.07        96.78764
854.48        97.14161
854.88        96.67606
855.29        95.57404
855.69        95.09609
856.10        95.32045
856.50        95.73772
856.90        96.10425
857.31        96.30976
857.71        96.34589
858.12        96.18783
858.52        95.98933
858.92        95.86695
859.33        95.83154
859.73        95.89294
860.13        96.00372
860.54        96.09557
860.94        96.21778
861.34        96.32803
861.75        96.34362
862.15         96.2382
862.55        95.96562
862.96        95.57351
863.36        95.14122
863.76        94.75085
864.17        94.45558
864.57        94.27387
864.97        94.25134
865.38        94.42919
865.78        94.84412
866.18        95.38682
866.58         95.9294
866.99        96.24005
867.39         96.3017
867.79        96.14371
868.19        95.69631
868.60        94.83748
869.00        93.58565
869.40        92.02636
869.80         90.6213
870.21        90.13807
870.61        90.79023
871.01        92.27631
871.41        93.94165
871.81        94.73061
872.22        94.39469
872.62        93.29771
873.02         91.8877
873.42        90.95639
873.82        90.69476
874.22        90.69993
874.63        90.95996
875.03        91.55325
875.43        92.34759
875.83        93.54778
876.23        94.30467
876.63        94.74027
877.03        94.69429
877.44        94.10323
877.84        105.8659
878.24        93.39613
878.64        93.56594
879.04        94.41533
879.44        93.71395
879.84        92.83932
880.24         92.9747
880.64        92.00042
881.04        90.18166
881.44        89.18847
881.84        89.45235
882.24        90.62756
882.65        92.04182
883.05        92.72792
883.45        92.32408
883.85        91.21551
884.25        90.00273
884.65        89.51056
885.05        89.94113
885.45        91.02242
885.85         92.3063
886.25        93.05289
886.65        93.03077
887.05        92.47493
887.45        91.75368
887.85        91.40255
888.25        91.57067
888.65        92.11116
889.04        92.76185
889.44        92.98496
889.84        92.69379
890.24        92.05116
890.64        91.40821
891.04        91.28041
891.44        91.72783
891.84        92.52385
892.24        93.28716
892.64        93.37741
893.04        92.67211
893.44        91.50878
893.83        90.14027
894.23        88.96434
894.63        88.10583
895.03        87.45607
895.43        87.20269
895.83        87.66722
896.23        88.82596
896.63         90.5385
897.02        92.33121
897.42        93.29577
897.82        93.20619
898.22        92.31641
898.62        90.98936
899.01        89.81219
899.41        89.05822
899.81        88.56199
900.21        88.39547
900.61        88.66083
901.00        89.30972
901.40        90.30817
901.80        91.38515
902.20        92.04346
902.59        92.16061
902.99        91.82919
903.39        91.25043
903.79        90.79175
904.18        90.57035
904.58        90.50681
904.98        90.59447
905.38        90.84005
905.77        91.19841
906.17        91.70892
906.57        92.18175
906.96        92.33186
907.36        92.07669
907.76        91.47552
908.15        90.79604
908.55        90.42813
908.95        90.48155
909.34        90.88605
909.74        91.31567
910.14        91.22403
910.53        90.49362
910.93        89.38666
911.33        88.34977
911.72        88.08347
912.12        88.70882
912.52        89.91241
912.91        91.28481
913.31        92.13327
913.70        92.32542
914.10        92.03761
914.49        91.42018
914.89        90.79712
915.29        90.35038
915.68        89.98816
916.08        89.81689
916.47        89.93648
916.87        90.31144
917.26        90.88812
917.66        91.47826
918.05        91.80752
918.45        91.76521
918.84        91.47791
919.24        90.93794
919.64        90.16407
920.03        89.24437
920.42         88.2254
920.82        87.45496
921.21        87.39825
921.61        88.06873
922.00        89.36224
922.40        90.76183
922.79        91.64306
923.19        91.74734
923.58         91.1866
923.98        90.21912
924.37        89.50193
924.77        89.36623
925.16         88.5169
925.55        88.95944
925.95        88.86346
926.34        88.83957
926.74        88.86668
927.13        89.07447
927.52        89.54321
927.92        90.24078
928.31        91.16481
928.70        92.05547
929.10        92.48183
929.49        92.35072
929.89        91.76354
930.28        91.06721
930.67        90.82379
931.07        91.13762
931.46        91.86459
931.85         92.6834
932.24         93.1217
932.64        93.04017
933.03        92.56644
933.42        91.82793
933.82        91.14679
934.21         90.6462
934.60        90.25822
934.99         89.8663
935.39        89.35766
935.78        88.70092
936.17        87.78885
936.56        86.63338
936.96        86.70482
937.35        86.09691
937.74        86.36676
938.13        86.80447
938.53         87.3924
938.92        88.13628
939.31        89.07021
939.70        90.00404
940.09        90.48626
940.49        90.39113
940.88        89.85529
941.27        89.26546
941.66        89.24004
942.05        89.88467
942.44        90.99472
942.84        92.19911
943.23        92.91501
943.62        92.93977
944.01        92.49061
944.40        91.77699
944.79        91.13123
945.18         90.6842
945.57        90.31582
945.97        90.10268
946.36        90.14959
946.75        90.46033
947.14        91.01561
947.53        91.54041
947.92        91.62896
948.31        91.23453
948.70        90.47016
949.09          89.619
949.48         89.2008
949.87        89.35485
950.26        89.90334
950.65        90.60351
951.04        91.04835
951.43        91.09024
951.82        90.85541
952.21        90.40163
952.60        89.82149
952.99        89.19561
953.38        88.51318
953.77        87.88503
954.16        87.49326
954.55        87.37312
954.94        87.49364
955.33        87.75591
955.72        87.96883
956.11        88.07601
956.50        88.13215
956.89        88.15662
957.28        88.20012
957.66        88.28876
958.05        88.32155
958.44         88.3703
958.83        88.53926
959.22        88.82951
959.61         89.2356
960.00        89.55699
960.39        89.43513
960.78        88.80403
961.16        87.75143
961.55        86.69484
961.94        86.14089
962.33        86.21041
962.72        86.79034
963.11        87.51267
963.49        87.76321
963.88        87.28657
964.27        86.30286
964.66        85.27714
965.04        84.97332
965.43        85.54954
965.82        86.78148
966.21        88.14246
966.60        88.78159
966.98        88.50875
967.37        87.56628
967.76        86.49747
968.15        86.15517
968.53        86.74951
968.92        87.89177
969.31        89.14265
969.69        89.77554
970.08        89.51955
970.47        88.69507
970.86        87.50609
971.24        86.24236
971.63        85.11795
972.02        84.06089
972.40        83.28361
972.79        83.14771
973.17        83.74416
973.56        84.88943
973.95        86.28923
974.33         87.3596
974.72        87.76859
975.11        87.66727
975.49         87.1699
975.88        86.48319
976.26        85.75226
976.65        84.99342
977.04        84.31026
977.42        83.90104
977.81        83.82276
978.19        84.02202
978.58         84.5583
978.96        85.57027
979.35        86.90424
979.74        88.58347
980.12         90.1148
980.51        90.36778
980.89        89.29961
981.28        87.25774
981.66        85.16688
982.05        84.36341
982.43        85.02579
982.82        86.76972
983.20        88.97722
983.59        90.18386
983.97        90.03377
984.35        88.80813
984.74        87.21537
985.12         86.2964
985.51        86.32047
985.89        87.03825
986.28        87.87164
986.66        87.93144
987.04        86.88937
987.43        85.32218
987.81        83.72116
988.20        82.65771
988.58        82.17647
988.96        82.04501
989.35         82.2097
989.73        82.74945
990.12        83.41792
990.50        84.30678
990.88        84.91415
991.27          84.703
991.65        83.75008
992.03        82.14707
992.42        80.56678
992.80        80.43478
993.18        82.07861
993.56        84.86055
993.95        87.75032
994.33        89.65337
994.71        90.18232
995.10        89.68822
995.48        88.59254
995.86        87.46991
996.24        86.56036
996.63        85.74809
997.01        84.91138
997.39         83.8394
997.77        82.63428
998.15        81.49848
998.54        80.98333
998.92        81.62378
999.30        83.56384
999.68        87.00169
1000.06         90.9817
1000.45        92.06017
1000.83        89.04237
1001.21        83.59131
1001.59        78.51263
1001.97        75.96622
1002.35        75.82681
1002.73        77.44854
1003.12        80.04893
1003.50        82.00089
1003.88        82.22457
1004.26         81.1888
1004.64        79.63618
1005.02        78.62058
1005.40        78.46389
1005.78        78.86965
1006.16        79.41194
1006.54        79.38092
1006.92         78.6414
1007.30        77.53387
1007.69        76.69774
1008.07        76.93299
1008.45         78.4221
1008.83        81.49075
1009.21        85.77556
1009.59        88.50482
1009.97        87.07249
1010.35        81.49549
1010.73        75.23834
1011.11        73.17271
1011.49        75.65986
1011.86        81.06834
1012.24         86.1003
1012.62        87.39722
1013.00        84.73714
1013.38        79.62102
1013.76        73.82835
1014.14        70.44337
1014.52        70.46355
1014.90        72.81006
1015.28        76.36474
1015.66        79.33317
1016.04        81.00338
1016.41        82.04927
1016.79         81.9992
1017.17        80.38668
1017.55        77.58038
1017.93        73.96237
1018.31        70.88387
1018.69        69.59045
1019.06        69.99967
1019.44        71.79335
1019.82        74.02737
1020.20        74.34991
1020.58        71.88937
1020.95         67.2844
1021.33         62.2285
1021.71        58.50983
1022.09        56.50428
1022.46        55.81397
1022.84        57.68933
1023.22        61.98588
1023.60        64.89281
1023.97         65.7753
1024.35        65.73074
1024.73        65.91053
