SpectraSmart Spectrum 2.9.0.0
--------- Device Information -----------
Spectrum Name :  反射率_0
Saving Time :  2024/04/20 00:17:05
Spectro-Module Model Name : SE2030-DUVN
Spectro-Module Serial Number : OS361AC55029948
Wavelength Start : 200
Wavelength End : 1025
Wavelength Unit : Wavelength(nm)
Spectrum Unit : Reflectance(%)
-----------Spectrum Setting ------------
Integration Time : 30ms
Average : 10
Boxcar : 0
Background removal :  enabled
linearity correction :  enabled
SC :  disabled
Intensity correction :  disabled
DWT denoise :  enabled
savitzky-golay :  disabled
FFT :  disabled
Running average :  disabled
Kalman :  disabled
High pass :  disabled
---------------BEGIN--------------------
Wavelength(nm)             Reflectance(%)
200.29               0
200.75        64.94946
201.21        64.30827
201.67        65.16553
202.13        69.00535
202.58        76.41196
203.04        87.47559
203.50        98.51381
203.96        100.5131
204.42        93.17258
204.88        82.39664
205.34        72.97874
205.80        66.87812
206.26        63.02228
206.72        59.88724
207.18        57.32074
207.64        56.50893
208.10        58.52872
208.55        63.18648
209.01         67.4385
209.47        69.54288
209.93        69.66416
210.39        68.33546
210.85          66.313
211.31        64.42503
211.77        62.67197
212.23         60.6445
212.69        58.28801
213.14        56.58891
213.60        56.04293
214.06        56.86289
214.52        58.16764
214.98        59.45167
215.44        60.69463
215.90        61.72623
216.36        62.97776
216.81        65.05395
217.27        67.63276
217.73        70.52763
218.19        71.89539
218.65        69.19014
219.11        62.07507
219.57        50.76506
220.02        38.18028
220.48        32.14236
220.94        35.45734
221.40        46.74884
221.86        60.60613
222.32        68.57511
222.77        68.64536
223.23        63.48516
223.69        57.35194
224.15        56.31782
224.61        60.46802
225.06        66.52201
225.52        71.65862
225.98        73.52499
226.44        72.18527
226.90        68.85872
227.36        64.75106
227.81        61.89756
228.27        61.34083
228.73         62.1578
229.19        63.61087
229.65        64.86618
230.10        65.62611
230.56        66.21926
231.02        66.66818
231.48        67.02146
231.93        67.24012
232.39        67.30082
232.85        67.08775
233.31        66.51129
233.77        65.59537
234.22        64.42784
234.68        63.18218
235.14        62.07522
235.60        61.24397
236.05        60.68559
236.51         60.4296
236.97        60.46699
237.43        60.80517
237.88        61.68295
238.34        62.81562
238.80        63.82243
239.26        64.24841
239.71        63.91756
240.17        63.11658
240.63        62.90005
241.08        63.58449
241.54        65.00885
242.00        66.18998
242.46        65.14565
242.91        60.87266
243.37        52.19707
243.83        40.03497
244.28        33.22728
244.74        40.00582
245.20        58.10926
245.66         75.3605
246.11         81.6612
246.57        76.24232
247.03        59.73041
247.48        35.40097
247.94        24.98415
248.40        33.93807
248.85        47.55433
249.31        58.12969
249.77        63.81462
250.22        65.98128
250.68        66.47693
251.14        65.87897
251.59        64.84505
252.05        64.02125
252.51        63.13528
252.96        61.87956
253.42         60.3013
253.88         58.7317
254.33        57.56973
254.79        58.11411
255.25        61.20266
255.70        66.23446
256.16        72.12974
256.62        77.19171
257.07        79.56491
257.53        79.40541
257.99        77.41744
258.44        74.29332
258.90        71.80259
259.35        69.91425
259.81        68.84317
260.27        67.87093
260.72           66.37
261.18        64.61295
261.63        62.41163
262.09        60.61061
262.55        59.81396
263.00        59.91908
263.46        60.72531
263.91        61.28649
264.37        60.82886
264.83        59.33122
265.28        57.10574
265.74        55.13365
266.19        54.29838
266.65        54.74459
267.11        55.92519
267.56        57.12172
268.02        57.32594
268.47        56.34958
268.93        54.57158
269.38        52.42241
269.84        50.82611
270.30         50.0427
270.75        49.81536
271.21         49.8437
271.66          49.658
272.12         49.1133
272.57        48.34774
273.03        47.54704
273.48        46.88279
273.94        46.45392
274.39        46.13989
274.85        45.81634
275.31        45.26101
275.76        44.42136
276.22        43.40646
276.67        42.39478
277.13        41.77688
277.58         41.5316
278.04        41.57639
278.49        41.55299
278.95        41.04994
279.40        39.98062
279.86        38.61279
280.31        37.21347
280.77        36.32223
281.22        35.94933
281.68        35.94956
282.13        36.05206
282.59         35.9184
283.04        35.45337
283.50        34.82418
283.95        34.13225
284.41        33.57489
284.86        33.17186
285.32         32.8749
285.77        32.64474
286.22        32.50652
286.68         32.4425
287.13         32.4287
287.59        32.39985
288.04        32.21162
288.50        31.87012
288.95         31.3775
289.41        30.86327
289.86        30.45231
290.32        30.22503
290.77        30.12792
291.22        30.10956
291.68        30.05295
292.13         29.9401
292.59        29.84114
293.04        29.82852
293.50        30.03158
293.95        30.46185
294.40        31.05669
294.86         31.7526
295.31        32.46272
295.77        33.15112
296.22        33.83885
296.68        34.49899
297.13        35.06805
297.58        35.55168
298.04        35.96868
298.49        36.39833
298.95        37.01351
299.40         37.8226
299.85        38.76773
300.31        39.73809
300.76        40.55022
301.21        41.16073
301.67        41.65443
302.12        42.05589
302.58        42.47575
303.03        42.91943
303.48        43.37498
303.94        43.88482
304.39        44.46972
304.84        45.12942
305.30        45.84093
305.75        46.50121
306.20        46.98108
306.66        47.27503
307.11        47.40306
307.57        47.45216
308.02        47.47063
308.47         47.5136
308.93        47.56334
309.38        47.63314
309.83        47.80145
310.29        48.06293
310.74        48.39604
311.19        48.68507
311.65        48.73904
312.10        48.52187
312.55        48.09531
313.00        47.62164
313.46        47.35353
313.91        47.32858
314.36        47.48384
314.82        47.67542
315.27        47.69508
315.72        47.47567
316.18        47.10684
316.63          46.678
317.08         46.3373
317.53        46.12496
317.99        45.98302
318.44        45.87769
318.89         45.7445
319.35        45.56132
319.80        45.35709
320.25        45.13796
320.70        44.91109
321.16        44.67533
321.61        44.42688
322.06         44.1692
322.51         43.9189
322.97        43.67068
323.42        43.43125
323.87        43.17997
324.32        42.88871
324.78        42.54817
325.23        42.18808
325.68        41.81983
326.13        41.47142
326.59        41.15536
327.04        40.88799
327.49        40.67564
327.94        40.53482
328.39        40.45786
328.85        40.41133
329.30        40.40131
329.75        40.37143
330.20        40.29894
330.66        40.17208
331.11        40.00386
331.56        39.75663
332.01        39.43349
332.46        39.04709
332.92         38.6445
333.37        38.32731
333.82        38.12691
334.27        38.04263
334.72        38.03541
335.17        38.03039
335.63         37.9869
336.08        37.92299
336.53        37.87811
336.98        37.93906
337.43        38.11282
337.88        38.37248
338.34        38.56598
338.79        38.49993
339.24        38.12532
339.69        37.50397
340.14        36.87194
340.59        36.62336
341.05        36.83331
341.50        37.38646
341.95        38.00647
342.40        38.26402
342.85        38.06441
343.30        37.55289
343.75         36.9376
344.20        36.56045
344.66        36.51422
345.11        36.65596
345.56        36.88668
346.01        37.04929
346.46         37.0779
346.91        37.04473
347.36        36.90637
347.81        36.58018
348.26        36.08849
348.72        35.48213
349.17        34.89866
349.62        34.64667
350.07        34.78843
350.52        35.21883
350.97        35.76004
351.42        36.14056
351.87        36.27417
352.32        36.22466
352.77        36.03582
353.22        35.78545
353.67        35.51615
354.13        35.22295
354.58          34.904
355.03        34.60607
355.48        34.34806
355.93        34.14001
356.38        33.99485
356.83        33.91851
357.28        33.89549
357.73        33.90406
358.18        33.89922
358.63        33.81184
359.08        33.62394
359.53        33.36131
359.98        33.03799
360.43        32.67543
360.88        32.29451
361.33        31.89665
361.78        31.53585
362.23        31.30026
362.68        31.19874
363.13        31.19536
363.58        31.20977
364.03        31.11445
364.48        30.87055
364.93        30.50757
365.38        30.06109
365.83        29.60273
366.28        29.17087
366.73        28.75557
367.18        28.36992
367.63        28.03081
368.08        27.73892
368.53        27.49685
368.98        27.28943
369.43        27.08088
369.88        26.86145
370.33        26.64374
370.78         26.4212
371.23         26.1906
371.68        25.95715
372.13        25.71083
372.58         25.5018
373.03        25.41636
373.48        25.45671
373.93        25.58645
374.38        25.69473
374.83        25.61224
375.28        25.30719
375.72        24.82476
376.17        24.29499
376.62         23.8902
377.07        23.67138
377.52        23.59477
377.97        23.60063
378.42        23.59297
378.87        23.53746
379.32        23.45753
379.77        23.38318
380.22         23.3541
380.67        23.37449
381.11        23.42968
381.56        23.45073
382.01        23.35226
382.46        23.11876
382.91         22.7727
383.36        22.42048
383.81        22.22064
384.26         22.2008
384.71        22.32435
385.15        22.44676
385.60        22.34978
386.05        21.99888
386.50        21.47042
386.95        20.95112
387.40         20.7348
387.85        20.87051
388.29        21.23946
388.74        21.64824
389.19        21.81486
389.64        21.68002
390.09        21.33091
390.54        20.90506
390.98        20.61443
391.43        20.53961
391.88        20.60038
392.33        20.69586
392.78        20.68465
393.23        20.54323
393.67        20.31322
394.12        20.11061
394.57         20.0229
395.02        20.06733
395.47        20.20795
395.91        20.36857
396.36        20.39684
396.81        20.26813
397.26        20.02929
397.71        19.78768
398.15        19.68571
398.60        19.76913
399.05         19.9689
399.50        20.18231
399.95        20.26378
400.39        20.18205
400.84        19.98087
401.29        19.74227
401.74        19.61683
402.18        19.65456
402.63        19.79836
403.08         19.9614
403.53         20.0031
403.97        19.89182
404.42        19.68718
404.87        19.47082
405.32        19.37501
405.76        19.42984
406.21        19.58808
406.66        19.77814
407.11        19.88978
407.55        19.89552
408.00        19.83491
408.45        19.74834
408.90        19.65348
409.34        19.59029
409.79        19.64028
410.24          19.753
410.68        19.76896
411.13        19.68097
411.58        19.57729
412.03        19.48722
412.47        19.43325
412.92        19.42578
413.37        19.44936
413.81        19.51215
414.26        19.64136
414.71        19.82499
415.15        20.06365
415.60        20.26704
416.05         20.3171
416.49        20.18778
416.94        19.91512
417.39        19.60962
417.83         19.4518
418.28        19.49078
418.73        19.66993
419.17        19.88379
419.62        19.95538
420.07        19.85214
420.51        19.63725
420.96        19.40785
421.41        19.29118
421.85        19.31251
422.30        19.43438
422.74        19.59982
423.19        19.76143
423.64        19.88936
424.08        20.00974
424.53        20.09552
424.98         20.1303
425.42        20.11772
425.87        20.06226
426.31         19.9817
426.76        19.91626
427.21        19.86792
427.65        19.82271
428.10        19.80904
428.54        19.84202
428.99        19.92385
429.44        20.13415
429.88        20.35533
430.33        20.26963
430.77        19.94395
431.22         19.7827
431.66        19.83644
432.11        19.95226
432.56        20.10036
433.00        20.37572
433.45         20.5946
433.89        20.50053
434.34        20.23758
434.78        19.99416
435.23        19.73105
435.67        20.74393
436.12        20.12643
436.57        20.04678
437.01        19.75038
437.46        19.64701
437.90        19.76202
438.35        19.91377
438.79        20.03608
439.24        20.11246
439.68        20.12447
440.13        19.91885
440.57        19.63543
441.02        19.81565
441.46         20.2811
441.91         20.3917
442.35        19.66035
442.80        19.44668
443.24        19.55352
443.69        19.55647
444.13        19.42725
444.58        19.34016
445.02        19.30685
445.47        19.32981
445.91         19.3861
446.36        19.39329
446.80        19.33591
447.24        19.26434
447.69        19.19694
448.13        19.12006
448.58        19.04828
449.02        18.98137
449.47        18.92791
449.91         18.8941
450.36        18.88598
450.80        18.89632
451.25        18.92569
451.69        18.95401
452.13        18.98156
452.58         19.0061
453.02         19.0271
453.47        19.04817
453.91        19.06865
454.36        19.08131
454.80        19.08203
455.24        19.06061
455.69        19.02387
456.13         18.9684
456.58        18.91218
457.02        18.85363
457.46        18.80517
457.91        18.75733
458.35        18.72039
458.79        18.72754
459.24          18.774
459.68        18.86288
460.13        19.01054
460.57        19.05157
461.01        18.95442
461.46        19.25917
461.90        19.24732
462.34        18.99332
462.79        19.14478
463.23        19.04234
463.68        18.97252
464.12        18.90051
464.56        18.97922
465.01        19.08111
465.45        19.17022
465.89        19.20923
466.34        19.19577
466.78        19.08349
467.22        18.93228
467.67         18.9651
468.11        19.14478
468.55        19.11815
468.99        18.91681
469.44        18.87802
469.88        19.01361
470.32         19.1344
470.77        19.19149
471.21        19.19907
471.65        19.14819
472.10        19.04001
472.54        18.91564
472.98        18.88071
473.42        18.95173
473.87        19.04268
474.31        19.12753
474.75        19.28368
475.20        19.45815
475.64        19.45022
476.08         19.3149
476.52        19.30902
476.97        19.44737
477.41        19.60675
477.85        19.73288
478.29        19.79853
478.74        19.79239
479.18        19.69176
479.62        19.57594
480.06        19.57297
480.50        19.68027
480.95        19.77205
481.39        19.80875
481.83        19.82207
482.27          19.807
482.72        19.75471
483.16        19.70507
483.60        19.71022
484.04        19.76495
484.48        19.96659
484.93        20.34049
485.37        20.41397
485.81        20.38796
486.25        21.14598
486.69        21.65857
487.14        21.22201
487.58        20.82604
488.02         21.5951
488.46        21.03223
488.90        21.16745
489.34        21.11419
489.79        21.26734
490.23        21.53626
490.67        21.63512
491.11        21.58223
491.55        21.52509
491.99        21.49651
492.43        21.46724
492.88         21.4599
493.32        21.48956
493.76        21.58026
494.20        21.76158
494.64        22.03179
495.08        22.37101
495.52        22.71763
495.96        22.99195
496.41         23.1738
496.85        23.23949
497.29         23.2361
497.73         23.3563
498.17        23.58579
498.61         23.6544
499.05        23.59166
499.49        23.70996
499.93         24.0144
500.37        24.23975
500.82        24.36848
501.26        24.61845
501.70         24.9225
502.14         24.9264
502.58        24.69596
503.02        24.63218
503.46        24.76955
503.90         24.9104
504.34        25.00731
504.78        25.06626
505.22        25.07304
505.66        25.03746
506.10         25.0039
506.54        25.01913
506.98         25.0961
507.42        25.25649
507.86        25.47601
508.30        25.52815
508.74        25.69046
509.18        25.73547
509.62        25.78034
510.06        25.86434
510.50        25.99891
510.94         26.1681
511.38        26.32063
511.82        26.38352
512.26        26.34282
512.70        26.22286
513.14        26.09646
513.58        26.07318
514.02        26.16985
514.46        26.35594
514.90        26.55684
515.34         26.5874
515.78        26.46496
516.22        26.29063
516.66        26.16147
517.10        25.89941
517.54        25.53139
517.98        26.09533
518.42        26.01182
518.86        26.26583
519.30        26.36659
519.74        26.47119
520.18         26.5503
520.62         26.5363
521.06        26.44316
521.50        26.27797
521.93        26.08384
522.37        25.94099
522.81        25.87271
523.25        25.86238
523.69        25.89163
524.13        25.92888
524.57        25.95666
525.01        25.97636
525.45         25.9837
525.89        25.97088
526.32        25.93524
526.76         25.8825
527.20         25.7995
527.64        25.67275
528.08        25.50792
528.52         25.3112
528.96        25.13402
529.40        25.05191
529.83        25.07305
530.27        25.17995
530.71        25.29259
531.15        25.28509
531.59        25.13452
532.03        24.88242
532.46        24.61327
532.90         24.4797
533.34         24.5068
533.78        24.64346
534.22        24.81414
534.66        24.90298
535.09        24.87552
535.53        24.77866
535.97         24.6511
536.41        24.54941
536.85        24.49444
537.28        24.47719
537.72          24.497
538.16        24.47975
538.60        24.53869
539.04        24.57439
539.47        24.60479
539.91        24.66627
540.35        24.77295
540.79        24.70385
541.22        24.78854
541.66        24.86673
542.10        25.05554
542.54        24.94891
542.97        25.19323
543.41        25.30121
543.85        25.44833
544.29        25.57456
544.72        25.67088
545.16        25.79815
545.60        25.95219
546.04        26.03822
546.47        26.10791
546.91        26.40842
547.35        26.86481
547.79         27.1392
548.22        27.21419
548.66        27.25538
549.10        27.31813
549.53        27.55573
549.97        27.95834
550.41        28.01647
550.84        28.23696
551.28        28.34198
551.72        28.52021
552.15        28.73059
552.59        28.97932
553.03        29.26076
553.46        29.51725
553.90        29.69356
554.34        29.77675
554.77        29.78786
555.21        29.78186
555.65        29.83225
556.08         29.9532
556.52        30.11751
556.96        30.29436
557.39         30.4739
557.83        30.63282
558.27        30.70582
558.70        30.71052
559.14        30.73729
559.57        30.78828
560.01        30.85599
560.45        30.92418
560.88        30.93006
561.32        30.93431
561.75         31.0194
562.19        31.28257
562.63        31.42972
563.06        31.47894
563.50        31.52718
563.93        31.58248
564.37        31.71686
564.80        31.78868
565.24        31.91888
565.68        32.04112
566.11        32.16259
566.55        32.30369
566.98        32.40673
567.42        32.45749
567.85        32.84372
568.29        32.71841
568.72        33.07939
569.16        33.59258
569.60        33.94553
570.03        34.08421
570.47        34.24756
570.90         34.2753
571.34        34.64715
571.77        34.30545
572.21        34.76262
572.64        34.99116
573.08        35.26117
573.51        35.42994
573.95        35.78598
574.38        36.16112
574.82        36.44974
575.25        36.55028
575.69        36.43461
576.12        36.42428
576.56        36.22545
576.99        35.97457
577.42        36.51579
577.86        36.56735
578.29        36.48375
578.73        37.32907
579.16        36.60601
579.60        36.46597
580.03        36.07025
580.47        36.05633
580.90        35.82775
581.33        35.86226
581.77        35.91056
582.20        36.42593
582.64        36.13683
583.07        35.77004
583.51        35.52023
583.94        35.16776
584.37        34.85077
584.81        34.39098
585.24        34.41671
585.68        34.75491
586.11        34.68526
586.54        34.54427
586.98        34.30049
587.41        34.13499
587.85        34.10176
588.28        34.17044
588.71        34.03682
589.15        33.86138
589.58        33.52345
590.01        33.40875
590.45        33.86048
590.88        33.66282
591.31        33.69558
591.75         33.2824
592.18        33.46895
592.61        33.47675
593.05        33.93139
593.48        33.43264
593.91        34.56259
594.35        34.12419
594.78        34.18394
595.21         34.3395
595.65         34.7112
596.08         34.7722
596.51        34.94017
596.94        35.06925
597.38        35.06869
597.81        35.08175
598.24        35.18142
598.68        35.94575
599.11        36.27874
599.54        37.30479
599.97        37.13426
600.41        37.42018
600.84         37.8134
601.27         38.4924
601.70        38.90173
602.14        38.99505
602.57        39.42702
603.00        40.17186
603.43        40.65932
603.87        40.77502
604.30          41.323
604.73         42.2337
605.16        42.27904
605.60        42.68211
606.03        43.08212
606.46        43.70702
606.89        44.59098
607.32        45.07557
607.76        45.19849
608.19        45.72107
608.62        46.18079
609.05        46.17078
609.48         46.4894
609.92        47.02186
610.35        47.03894
610.78         47.9571
611.21        48.90844
611.64        48.68619
612.07        48.91426
612.50        49.41199
612.94        49.33391
613.37        49.86186
613.80        50.15611
614.23        50.54774
614.66         50.8951
615.09        51.23732
615.52        51.67971
615.96        52.10533
616.39        52.42901
616.82        52.71533
617.25        52.38675
617.68        52.61665
618.11        53.18324
618.54        53.76212
618.97        53.98062
619.40        53.65219
619.84        53.85122
620.27         53.3104
620.70        53.73178
621.13        54.54266
621.56        54.74675
621.99        54.46941
622.42        54.52633
622.85        54.96907
623.28        55.20409
623.71        55.23772
624.14        55.33472
624.57        55.12334
625.00        55.36976
625.43         55.3659
625.86        54.60287
626.29        54.71257
626.72        54.47987
627.15        54.49854
627.58        54.26548
628.01         54.3363
628.44        54.21732
628.87        54.10148
629.30        53.20924
629.73        52.86134
630.16        52.61044
630.59        52.33768
631.02        52.04801
631.45        51.60666
631.88         51.1955
632.31        50.77674
632.74        50.49911
633.17        49.86951
633.60        49.36648
634.03        48.85302
634.46        48.32195
634.89        47.77147
635.32        47.20929
635.75        46.64956
636.18        46.10328
636.61        45.58303
637.04        45.09774
637.47        44.64577
637.89        44.22258
638.32        43.81974
638.75        43.45088
639.18        43.11606
639.61        42.81748
640.04        42.52224
640.47        42.17449
640.90        41.77088
641.33        41.33474
641.76        40.92896
642.18        40.66032
642.61        40.54568
643.04        40.55249
643.47        40.62834
643.90        40.68373
644.33        40.69104
644.76        40.68192
645.18        40.66793
645.61        40.67046
646.04        40.70438
646.47        40.75769
646.90        40.86804
647.33        41.10138
647.75        41.46473
648.18        41.93137
648.61        42.43254
649.04        42.86498
649.47         43.2078
649.89        43.46153
650.32        43.69889
650.75        44.12759
651.18        44.77361
651.61        45.36484
652.03        45.89463
652.46        46.77903
652.89        47.86422
653.32        48.21046
653.74        48.03237
654.17        48.65984
654.60        49.32369
655.03        50.87669
655.46        50.49165
655.88        52.25087
656.31        53.34102
656.74        61.13911
657.16        59.93574
657.59        56.52921
658.02        55.15651
658.45         55.0369
658.87        55.50766
659.30        56.36735
659.73        56.88228
660.15        57.76795
660.58        57.62622
661.01        57.52589
661.44        57.33298
661.86        57.62377
662.29        58.36863
662.72        59.19463
663.14        59.90269
663.57        60.08157
664.00        59.87981
664.42        59.99384
664.85        60.50903
665.27        60.99943
665.70        61.37208
666.13        61.69567
666.55        61.95131
666.98        62.13224
667.41        62.27148
667.83        62.40173
668.26        62.53453
668.69        62.68073
669.11        62.83762
669.54        62.99686
669.96        63.16505
670.39        63.34003
670.82        63.54685
671.24        63.82868
671.67        64.17828
672.09        64.53434
672.52        64.84223
672.94        65.09354
673.37        65.24182
673.80         65.1114
674.22        64.83309
674.65        64.78443
675.07         65.0315
675.50        65.38792
675.92        65.76301
676.35         66.0222
676.77        66.11298
677.20        66.12329
677.62        66.11967
678.05        66.08127
678.47        66.00922
678.90        66.42293
679.32         66.3798
679.75        66.62894
680.17         66.8751
680.60         67.1395
681.02        67.39577
681.45        67.57536
681.87        67.68964
682.30        67.80851
682.72        67.93369
683.15        67.90764
683.57        67.81441
684.00        67.89262
684.42        68.24152
684.85        68.51682
685.27        68.75051
685.70        69.02795
686.12        69.26804
686.54        69.55097
686.97        69.91185
687.39        69.32829
687.82         69.6266
688.24        69.61325
688.66           69.81
689.09         69.8485
689.51        69.92587
689.94        70.01136
690.36        70.15742
690.78        70.23944
691.21        70.25905
691.63        70.42247
692.06        70.76318
692.48         70.7359
692.90        70.96432
693.33        71.35826
693.75        70.94255
694.17        70.97725
694.60        71.11389
695.02        71.11813
695.44        70.98856
695.87        71.07998
696.29        71.33569
696.71        71.27867
697.14        71.13096
697.56        71.27377
697.98        72.28363
698.41        73.07126
698.83        72.63912
699.25        72.47947
699.68        72.38068
700.10        72.32945
700.52        72.36803
700.94        72.52863
701.37        72.74316
701.79        72.93076
702.21        73.03575
702.64        73.08237
703.06        73.11633
703.48        73.22308
703.90        73.42107
704.33        73.67312
704.75        73.90433
705.17        73.96096
705.59        73.82022
706.01        73.53886
706.44        73.26651
706.86        73.23565
707.28        73.48527
707.70        73.94036
708.12        74.45981
708.55        74.78834
708.97        74.87669
709.39        74.86687
709.81        74.79959
710.23         74.6914
710.66        74.58363
711.08        74.49578
711.50        74.45133
711.92        74.48893
712.34        74.61562
712.76        74.83522
713.19        75.07346
713.61        75.26044
714.03        75.34045
714.45        75.33511
714.87        75.31229
715.29        75.38334
715.71        75.56984
716.13        75.83442
716.56        76.08916
716.98        76.27499
717.40        76.33362
717.82        76.29747
718.24        76.22112
718.66        76.19191
719.08        76.23735
719.50         76.3269
719.92        76.41865
720.34        76.48696
720.76        76.52465
721.19          76.468
721.61        76.33421
722.03        76.52073
722.45        76.38819
722.87        76.48723
723.29        76.61178
723.71        76.68709
724.13        76.73824
724.55        76.93759
724.97        77.26924
725.39         77.5365
725.81        77.71384
726.23         77.8917
726.65        78.06091
727.07        78.16901
727.49        78.21724
727.91        78.22419
728.33        78.20479
728.75        78.18526
729.17        78.18432
729.59        78.20387
730.01        78.25494
730.43        78.36499
730.85        78.53587
731.27        78.70855
731.69        78.86489
732.10        79.10548
732.52        79.34692
732.94        79.31491
733.36        79.06104
733.78        78.94003
734.20        79.01501
734.62        79.07426
735.04        79.05455
735.46        79.10333
735.88        79.24197
736.30         78.7681
736.72        78.91832
737.13        79.02332
737.55        79.33955
737.97        79.71674
738.39        80.02314
738.81        79.92172
739.23        79.50567
739.65        79.45381
740.06        79.71549
740.48        79.75071
740.90        79.50706
741.32        79.26765
741.74        79.11869
742.16        79.10132
742.57        79.24986
742.99        79.47715
743.41        79.70375
743.83        79.83704
744.25        79.84799
744.67        79.62187
745.08          79.474
745.50         79.3051
745.92        79.23684
746.34        79.22517
746.75        79.25014
747.17        79.27125
747.59        79.28031
748.01        79.34396
748.42        79.45367
748.84        79.52483
749.26        79.61456
749.68        79.71339
750.09        79.84596
750.51        80.31068
750.93        80.89224
751.35        80.73759
751.76        79.99689
752.18        79.70358
752.60        79.91434
753.01        80.06562
753.43        80.09914
753.85        80.19981
754.27        80.34164
754.68         80.5981
755.10        80.87191
755.52         80.7454
755.93        80.36284
756.35        80.30592
756.77        80.58508
757.18        80.77254
757.60        80.89624
758.02        81.07962
758.43        81.19296
758.85        81.74969
759.26        81.56344
759.68        81.29098
760.10        81.06567
760.51        80.91701
760.93         81.0473
761.34        80.71851
761.76        80.94183
762.18        81.15746
762.59         80.1086
763.01        79.83083
763.42        80.36286
763.84        81.01157
764.26        81.65827
764.67        81.61682
765.09        81.17055
765.50        81.34995
765.92        82.38484
766.33        82.64264
766.75         82.0871
767.16        81.53983
767.58        81.10345
768.00        80.54283
768.41        80.13398
768.83        80.37334
769.24        81.13232
769.66        82.04462
770.07        82.74555
770.49        82.53243
770.90          81.691
771.32        81.79216
771.73        82.72701
772.15         82.9293
772.56        82.36128
772.97        81.89603
773.39        81.62872
773.80        81.45747
774.22        81.34287
774.63        81.08726
775.05         80.7756
775.46        80.81909
775.88        81.21144
776.29        81.77286
776.70        82.28102
777.12        82.47292
777.53        82.28693
777.95        81.80445
778.36        81.24884
778.77        80.92142
779.19        80.98133
779.60        81.57627
780.02        82.38195
780.43        82.92639
780.84        83.12003
781.26        82.52044
781.67        81.90129
782.09        82.68035
782.50        84.48566
782.91        84.55594
783.33        83.06475
783.74        82.56204
784.15        83.12914
784.57        83.55479
784.98        83.59663
785.39        82.90301
785.81         81.7631
786.22        81.58521
786.63        82.27917
787.04        82.49988
787.46        82.21889
787.87         82.2031
788.28        82.49492
788.70        82.82767
789.11        82.98883
789.52         83.3119
789.93        83.66176
790.35        83.64115
790.76        83.34531
791.17        83.37465
791.58        83.68654
792.00        83.60022
792.41        83.12788
792.82        82.85808
793.23        82.72399
793.65        82.33309
794.06        82.01718
794.47        82.14666
794.88        82.37317
795.29        84.88472
795.71        83.81265
796.12        83.98856
796.53        84.19748
796.94        83.78452
797.35          83.075
797.76        82.89645
798.18        83.27477
798.59        83.47392
799.00          83.417
799.41        83.34306
799.82        83.44682
800.23        83.49668
800.64        83.53983
801.06        83.48533
801.47         83.4293
801.88        83.51205
802.29        83.73827
802.70        84.03867
803.11        84.28931
803.52         84.2756
803.93         83.9747
804.34        83.52468
804.75        83.07326
805.17        82.71429
805.58        82.89199
805.99        82.97577
806.40        83.10988
806.81        83.92599
807.22        84.95185
807.63        85.25452
808.04        83.60551
808.45        83.24793
808.86        83.95461
809.27         84.8375
809.68        85.59413
810.09        86.04848
810.50        86.06593
810.91        85.75236
811.32         85.2998
811.73        84.89105
812.14         84.5854
812.55        84.52027
812.96        84.58522
813.37        84.08447
813.78        83.25078
814.19        83.36207
814.60        84.23816
815.01         84.5694
815.42        84.27906
815.83        84.05889
816.24        84.03741
816.65        84.10638
817.05        84.30712
817.46        84.60884
817.87        84.92259
818.28         85.0641
818.69        85.01649
819.10        84.83816
819.51        84.63061
819.92        84.68382
820.33        85.08706
820.74        85.41149
821.14        85.62561
821.55        86.46563
821.96        87.62353
822.37        86.99474
822.78        85.90852
823.19        85.19038
823.60        85.34394
824.00        85.42292
824.41        85.29688
824.82        85.29116
825.23         85.3675
825.64         85.4756
826.04         85.5941
826.45        85.62965
826.86        85.58055
827.27        85.47209
827.68         85.3544
828.08        85.34361
828.49         85.4045
828.90        85.53721
829.31        85.70887
829.72        85.85645
830.12        85.96867
830.53        86.02665
830.94        86.02717
831.35        85.93171
831.75        85.77413
832.16         85.5274
832.57        85.28896
832.97        85.20493
833.38         85.2842
833.79        85.47983
834.20        85.72575
834.60        85.90649
835.01        86.00021
835.42         86.0508
835.82        86.03571
836.23        85.85839
836.64        85.54797
837.04        85.12048
837.45        84.73326
837.86        84.69458
838.26        85.07718
838.67        85.77032
839.08        86.51653
839.48        86.81431
839.89        86.53564
840.29        85.86619
840.70        85.17026
841.11        84.90284
841.51        85.18629
841.92        85.80249
842.33        86.61957
842.73        87.41263
843.14        87.95334
843.54        88.38387
843.95        88.54408
844.35        88.27142
844.76        87.59855
845.17        86.61141
845.57        85.62307
845.98         85.1452
846.38         85.2864
846.79        85.91754
847.19        86.84632
847.60        87.53298
848.00        87.85848
848.41        87.88615
848.81        87.81586
849.22        87.88531
849.62        88.20508
850.03        88.60834
850.43        89.03001
850.84        89.23754
851.24        89.23827
851.65        89.05923
852.05        88.81426
852.46        88.60916
852.86        88.50856
853.27        88.33366
853.67        88.09409
854.07        88.35325
854.48        88.89108
854.88        88.80682
855.29        88.10532
855.69        87.80933
856.10        87.90713
856.50        87.92426
856.90        87.77117
857.31        87.63304
857.71        87.59638
858.12        87.55733
858.52         87.5634
858.92        87.57243
859.33        87.54946
859.73        87.54144
860.13        87.57898
860.54        87.72167
860.94        88.04204
861.34        88.46346
861.75        88.78128
862.15        88.77972
862.55        88.37607
862.96        87.66942
863.36        86.90176
863.76        86.43674
864.17        86.37864
864.57         86.6431
864.97        87.08006
865.38        87.42603
865.78        87.64532
866.18        87.73546
866.58        87.69991
866.99        87.55544
867.39        87.38333
867.79        87.14384
868.19        86.75784
868.60        86.08801
869.00        85.10864
869.40        83.91472
869.80        82.85076
870.21        82.46944
870.61         82.9454
871.01        84.05756
871.41        85.29329
871.81        85.83419
872.22        85.50718
872.62        84.58547
873.02        83.47498
873.42        82.95681
873.82        83.11146
874.22        83.41303
874.63        83.80964
875.03        84.28695
875.43        84.70232
875.83         85.5798
876.23        85.45685
876.63         85.0398
877.03        84.07342
877.44         82.5172
877.84        116.5762
878.24        81.98635
878.64        82.66319
879.04        84.90672
879.44        83.16447
879.84        81.92012
880.24        83.86091
880.64        83.35564
881.04         81.0304
881.44        79.70322
881.84        79.91862
882.24        81.15633
882.65        82.70937
883.05        83.41502
883.45        82.87954
883.85        81.65804
884.25        80.36464
884.65        79.74632
885.05         80.0099
885.45        80.90186
885.85        82.02511
886.25        82.73257
886.65        82.81011
887.05        82.45584
887.45        81.96426
887.85        81.76534
888.25        81.97248
888.65        82.45024
889.04        82.97743
889.44        83.10313
889.84        82.76643
890.24        82.12458
890.64         81.4645
891.04        81.20147
891.44        81.38956
891.84        81.83718
892.24        82.30227
892.64        82.37619
893.04          81.964
893.44         81.2961
893.83        80.42892
894.23        79.47012
894.63        78.49282
895.03        77.47606
895.43        76.73376
895.83        76.79742
896.23         77.7244
896.63        79.33234
897.02        81.09993
897.42        82.04722
897.82        81.92104
898.22        81.01042
898.62        79.72959
899.01          78.732
899.41         78.2821
899.81        78.17612
900.21        78.38093
900.61        78.85571
901.00        79.51622
901.40        80.34707
901.80        81.19579
902.20        81.76443
902.59        81.97402
902.99        81.88068
903.39        81.51044
903.79        80.94069
904.18        80.25425
904.58        79.49712
904.98        78.92348
905.38        78.92116
905.77        79.51528
906.17        80.59556
906.57        81.75602
906.96        82.37234
907.36        82.25085
907.76        81.54436
908.15         80.6241
908.55        80.04192
908.95        79.97059
909.34        80.29855
909.74        80.66147
910.14        80.44547
910.53        79.52396
910.93        78.18387
911.33        76.97931
911.72        76.76518
912.12        77.65156
912.52        79.25677
912.91        80.97533
913.31        81.80978
913.70        81.57571
914.10        80.56029
914.49        79.10789
914.89        77.97483
915.29        77.50002
915.68          77.464
916.08        77.83711
916.47         78.5507
916.87        79.47846
917.26        80.60657
917.66        81.66159
918.05        82.21815
918.45        82.14283
918.84        81.59517
919.24        80.68176
919.64        79.62836
920.03        78.59637
920.42        77.58849
920.82        76.91904
921.21        76.99785
921.61         77.8025
922.00        79.23921
922.40        80.75471
922.79        81.65971
923.19        81.71208
923.58        80.96319
923.98        79.67394
924.37        78.78477
924.77        78.73257
925.16        77.03464
925.55        77.82834
925.95        77.68672
926.34        77.84089
926.74        78.16389
927.13        78.67249
927.52        79.22601
927.92         79.7439
928.31        80.30752
928.70         80.7382
929.10         80.7746
929.49        80.39214
929.89         79.6497
930.28        78.92751
930.67        78.83345
931.07        79.45551
931.46         80.6543
931.85        81.93941
932.24         82.5788
932.64        82.38175
933.03        81.47897
933.42        80.24356
933.82        79.47253
934.21        79.39715
934.60        79.80257
934.99        80.14198
935.39        79.82861
935.78        78.78043
936.17        76.83459
936.56        74.32121
936.96        74.70601
937.35        74.43024
937.74        76.16636
938.13        78.02274
938.53        79.32593
938.92        79.98412
939.31        80.25516
939.70        80.21513
940.09        79.90328
940.49        79.43456
940.88        78.82417
941.27        78.33514
941.66        78.39896
942.05        79.05251
942.44        80.15026
942.84        81.41044
943.23         82.3503
943.62         82.7774
944.01        82.86394
944.40        82.60378
944.79        82.01091
945.18        81.14998
945.57        79.95187
945.97        78.85701
946.36        78.63174
946.75        79.45229
947.14        81.06713
947.53        82.68113
947.92        83.17654
948.31        82.39852
948.70        80.69402
949.09        78.74482
949.48        77.76095
949.87        78.09954
950.26        79.37443
950.65        81.03142
951.04         82.1423
951.43        82.38543
951.82        82.04403
952.21        81.35888
952.60        80.70808
952.99        80.25207
953.38        79.86066
953.77        79.52451
954.16        79.26344
954.55         79.0685
954.94        78.97496
955.33        78.97829
955.72        79.02158
956.11        79.09506
956.50        79.22929
956.89        79.35992
957.28        79.38772
957.66        79.30777
958.05        79.06544
958.44        78.86618
958.83        78.99509
959.22        79.46818
959.61        80.21709
960.00        80.88206
960.39        80.81676
960.78        79.89249
961.16         78.3197
961.55        76.69369
961.94        75.78928
962.33        75.79711
962.72        76.51024
963.11        77.51348
963.49        78.09856
963.88        77.95542
964.27         77.3334
964.66        76.58393
965.04        76.28789
965.43        76.58328
965.82        77.27312
966.21        78.04906
966.60        78.43255
966.98        78.31509
967.37        77.84944
967.76        77.32825
968.15        77.18143
968.53        77.53548
968.92        78.16155
969.31        78.86438
969.69        79.32301
970.08        79.36887
970.47        79.14174
970.86        78.70161
971.24        78.11369
971.63        77.48996
972.02        76.83292
972.40        76.23701
972.79        75.87847
973.17        75.83595
973.56        75.96609
973.95        76.30042
974.33        76.83957
974.72        77.40668
975.11        78.00818
975.49        78.36996
975.88         78.0663
976.26         77.0877
976.65         75.6291
977.04        74.08982
977.42        73.17963
977.81        73.11644
978.19        73.67178
978.58        74.67778
978.96        75.87126
979.35        76.99409
979.74        78.21846
980.12        79.21409
980.51        79.14992
980.89        78.07853
981.28        76.20213
981.66        74.39787
982.05        73.93505
982.43        74.95619
982.82        77.09951
983.20        79.61246
983.59        80.78595
983.97        80.21238
984.35        78.26368
984.74        75.87214
985.12        74.42824
985.51        74.31036
985.89        75.15712
986.28        76.32814
986.66         76.6862
987.04        75.79966
987.43        74.29985
987.81        72.64731
988.20        71.32613
988.58         70.3679
988.96        69.48401
989.35        68.82295
989.73        68.96184
990.12        69.96288
990.50        71.71548
990.88        73.32066
991.27        73.80716
991.65        73.22309
992.03        71.73852
992.42        70.14401
992.80        70.03972
993.18        71.81902
993.56        74.77708
993.95        77.74689
994.33         79.4745
994.71        79.58154
995.10        78.53564
995.48        76.96394
995.86        75.72442
996.24        75.13201
996.63        75.01992
997.01        75.13488
997.39         74.9438
997.77        74.28938
998.15        73.38809
998.54        72.81911
998.92        73.21127
999.30        74.71449
999.68        77.43439
1000.06        80.44776
1000.45        80.72353
1000.83         77.3817
1001.21        72.05177
1001.59        67.29915
1001.97        65.02169
1002.35        65.03369
1002.73        66.74277
1003.12        69.33144
1003.50        70.98933
1003.88        70.68436
1004.26        69.04327
1004.64        66.89699
1005.02        65.39334
1005.40        64.89856
1005.78        65.02811
1006.16        65.74848
1006.54        66.97591
1006.92        68.32796
1007.30        69.59904
1007.69        70.60817
1008.07        71.36349
1008.45        71.91489
1008.83        72.46886
1009.21        72.55074
1009.59        70.85823
1009.97        66.80776
1010.35        60.85989
1010.73        56.11961
1011.11        56.04332
1011.49        60.30898
1011.86        67.59089
1012.24        74.03026
1012.62        75.61195
1013.00        72.16795
1013.38        65.35761
1013.76        57.55495
1014.14        53.01117
1014.52        53.07557
1014.90         56.3877
1015.28        61.29829
1015.66        65.08615
1016.04        66.67941
1016.41        66.86909
1016.79        65.51656
1017.17        62.86815
1017.55        59.72844
1017.93        56.34546
1018.31        53.52885
1018.69        51.95414
1019.06        51.43185
1019.44        51.58313
1019.82        52.15566
1020.20        52.38758
1020.58        51.92587
1020.95        51.03856
1021.33        49.53117
1021.71        46.42261
1022.09         40.7235
1022.46        29.43528
1022.84        12.12905
1023.22          5.7248
1023.60        20.51629
1023.97        38.29867
1024.35        48.75009
1024.73        52.72676
