SpectraSmart Spectrum 2.9.0.0
--------- Device Information -----------
Spectrum Name :  反射率_0
Saving Time :  2024/04/20 00:15:24
Spectro-Module Model Name : SE2030-DUVN
Spectro-Module Serial Number : OS361AC55029948
Wavelength Start : 200
Wavelength End : 1025
Wavelength Unit : Wavelength(nm)
Spectrum Unit : Reflectance(%)
-----------Spectrum Setting ------------
Integration Time : 30ms
Average : 10
Boxcar : 0
Background removal :  enabled
linearity correction :  enabled
SC :  disabled
Intensity correction :  disabled
DWT denoise :  enabled
savitzky-golay :  disabled
FFT :  disabled
Running average :  disabled
Kalman :  disabled
High pass :  disabled
---------------BEGIN--------------------
Wavelength(nm)             Reflectance(%)
200.29               0
200.75        51.39161
201.21        49.06887
201.67        47.71898
202.13         49.2646
202.58         54.5871
203.04         63.8285
203.50        74.01342
203.96        77.12016
204.42        72.15431
204.88        63.99604
205.34         56.2531
205.80        50.17258
206.26        44.68641
206.72        37.88345
207.18        29.46133
207.64        23.66558
208.10         25.4222
208.55        34.08047
209.01        43.37101
209.47         48.3808
209.93        49.26741
210.39        47.64401
210.85        45.36091
211.31        44.58101
211.77        45.72968
212.23        48.46974
212.69        52.09939
213.14        53.71183
213.60        51.86148
214.06        49.10934
214.52        47.14835
214.98        46.91284
215.44        48.17256
215.90         50.2205
216.36        53.11557
216.81        56.52341
217.27        59.56557
217.73        62.26744
218.19        63.16376
218.65        60.20183
219.11        53.11136
219.57        41.89391
220.02        28.85748
220.48        20.83729
220.94        20.42384
221.40        26.73439
221.86        35.64026
222.32        40.40283
222.77        39.34996
223.23        34.57415
223.69        29.50258
224.15        28.94931
224.61        32.76101
225.06        38.21419
225.52        42.53114
225.98        43.57659
226.44        41.38201
226.90        36.95465
227.36        31.72156
227.81        28.22504
228.27         27.6316
228.73        28.97339
229.19        30.93562
229.65        31.96251
230.10        31.86888
230.56        31.16884
231.02        30.64613
231.48        31.22795
231.93        32.88596
232.39        35.17836
232.85        37.20177
233.31        37.61558
233.77        36.18438
234.22          33.337
234.68        30.08511
235.14        28.10637
235.60         27.9224
236.05        29.08587
236.51        30.76534
236.97        31.63231
237.43        31.31344
237.88        30.17562
238.34        28.61837
238.80        28.14752
239.26        29.62807
239.71        32.37907
240.17        35.68362
240.63        39.07364
241.08        42.34129
241.54        45.57132
242.00        47.86639
242.46        47.45076
242.91        43.33989
243.37        34.25587
243.83        20.34222
244.28        9.145746
244.74        9.631209
245.20        22.07555
245.66        36.33783
246.11        42.32511
246.57        39.09203
247.03        27.82583
247.48        13.00832
247.94        13.19332
248.40          27.929
248.85        43.35788
249.31        53.70922
249.77        58.41682
250.22         59.1039
250.68        57.19711
251.14        53.46865
251.59        49.55369
252.05        46.89093
252.51        45.43951
252.96        44.30764
253.42        42.16499
253.88        39.05588
254.33        35.90567
254.79        35.05883
255.25        38.46957
255.70        45.28096
256.16         53.6515
256.62        60.47038
257.07        62.32148
257.53        59.55432
257.99        53.84734
258.44        47.64363
258.90        44.60477
259.35        44.34896
259.81        45.52455
260.27        46.35484
260.72        45.37223
261.18        42.93975
261.63        39.50174
262.09        36.37487
262.55        34.90707
263.00        35.13512
263.46        36.43998
263.91        37.65138
264.37        37.59483
264.83        36.24097
265.28        34.04589
265.74        32.05649
266.19        31.34696
266.65         32.0315
267.11        33.53507
267.56        35.03148
268.02          35.321
268.47        34.22722
268.93        32.16992
269.38        29.77054
269.84        28.26797
270.30        27.96685
270.75        28.49479
271.21        29.26831
271.66        29.42686
272.12        28.75184
272.57        27.54305
273.03        26.21726
273.48        25.33322
273.94        25.06681
274.39        25.17498
274.85        25.38152
275.31        25.29478
275.76        24.81774
276.22        24.11435
276.67        23.37384
277.13        22.94471
277.58         22.8413
278.04        22.95496
278.49         23.0389
278.95        22.79584
279.40        22.16774
279.86        21.34382
280.31        20.49411
280.77        19.96464
281.22        19.76324
281.68        19.78967
282.13        19.89283
282.59        19.87168
283.04         19.6768
283.50        19.40731
283.95        19.10239
284.41        18.83502
284.86        18.61965
285.32        18.44036
285.77        18.32509
286.22        18.37679
286.68        18.57958
287.13        18.87863
287.59        19.15503
288.04        19.22646
288.50        19.07991
288.95        18.75387
289.41        18.37441
289.86        18.06822
290.32        17.92214
290.77        17.89169
291.22        17.96292
291.68        18.07882
292.13        18.22693
292.59        18.43244
293.04        18.71597
293.50        19.11505
293.95        19.61606
294.40        20.17793
294.86         20.7429
295.31        21.23898
295.77        21.64928
296.22        22.00157
296.68        22.31686
297.13        22.60625
297.58        22.90136
298.04        23.21269
298.49          23.587
298.95        24.12891
299.40         24.8297
299.85        25.64229
300.31         26.4723
300.76        27.17706
301.21        27.71305
301.67        28.13995
302.12        28.46292
302.58        28.74228
303.03        28.98838
303.48        29.20122
303.94        29.45419
304.39        29.82635
304.84        30.32822
305.30        30.92322
305.75        31.49171
306.20        31.86288
306.66        32.02076
307.11        32.00976
307.57        31.93371
308.02        31.88683
308.47        31.92388
308.93        32.00477
309.38        32.12317
309.83        32.31352
310.29        32.55518
310.74        32.84082
311.19        33.06887
311.65        33.07429
312.10        32.83448
312.55        32.40575
313.00        31.93318
313.46        31.64237
313.91        31.57276
314.36         31.6748
314.82        31.84132
315.27         31.9154
315.72        31.83861
316.18        31.66918
316.63        31.45965
317.08        31.29593
317.53        31.19744
317.99        31.11891
318.44        31.03403
318.89        30.89757
319.35        30.69768
319.80        30.45917
320.25        30.19187
320.70        29.90746
321.16        29.61331
321.61        29.31123
322.06        29.01919
322.51        28.76993
322.97        28.56245
323.42        28.39249
323.87        28.22573
324.32        28.00935
324.78        27.72597
325.23        27.39934
325.68        27.04642
326.13        26.70195
326.59          26.387
327.04        26.11878
327.49        25.90351
327.94         25.7523
328.39        25.66114
328.85        25.60301
329.30        25.60552
329.75        25.67311
330.20        25.78568
330.66        25.90941
331.11        25.97669
331.56        25.83401
332.01        25.45496
332.46        24.87951
332.92         24.2343
333.37        23.74284
333.82        23.48455
334.27        23.42989
334.72        23.48214
335.17        23.46089
335.63        23.30272
336.08        23.05887
336.53        22.83099
336.98        22.79632
337.43        22.98382
337.88        23.32529
338.34        23.63127
338.79        23.64622
339.24        23.29938
339.69        22.67567
340.14         22.0005
340.59        21.65077
341.05        21.71027
341.50          22.071
341.95        22.52005
342.40         22.7247
342.85        22.60338
343.30        22.27466
343.75        21.86583
344.20        21.58304
344.66        21.48359
345.11        21.46101
345.56        21.49131
346.01        21.54005
346.46        21.57345
346.91        21.62657
347.36        21.59314
347.81        21.29577
348.26        20.73766
348.72        20.00679
349.17        19.29638
349.62        19.00921
350.07        19.22871
350.52        19.81152
350.97        20.52552
351.42        21.02042
351.87        21.19343
352.32        21.14069
352.77        20.93176
353.22        20.68461
353.67        20.45471
354.13        20.21292
354.58        19.97101
355.03        19.79239
355.48         19.6894
355.93        19.66849
356.38        19.69207
356.83        19.68318
357.28         19.6194
357.73        19.51267
358.18         19.3909
358.63        19.30608
359.08        19.26928
359.53        19.26033
359.98        19.24222
360.43        19.16109
360.88        19.00782
361.33        18.80196
361.78        18.58488
362.23        18.42437
362.68        18.33258
363.13         18.2793
363.58        18.22548
364.03        18.11051
364.48        17.91773
364.93        17.67373
365.38        17.38882
365.83         17.0814
366.28        16.77633
366.73         16.4792
367.18         16.2346
367.63        16.10923
368.08        16.10451
368.53        16.18962
368.98        16.30552
369.43        16.35806
369.88        16.32212
370.33        16.22798
370.78        16.08683
371.23        15.92486
371.68        15.76099
372.13        15.57967
372.58        15.43369
373.03        15.41277
373.48        15.52101
373.93        15.72689
374.38        15.92083
374.83         15.9323
375.28        15.72933
375.72        15.35653
376.17        14.93962
376.62        14.64322
377.07        14.52338
377.52         14.5342
377.97        14.61753
378.42        14.68196
378.87        14.69293
379.32        14.67103
379.77        14.64257
380.22        14.64235
380.67        14.67603
381.11        14.73356
381.56        14.75422
382.01        14.66091
382.46        14.44238
382.91        14.12039
383.36        13.80412
383.81        13.65444
384.26        13.69967
384.71        13.90454
385.15        14.11693
385.60        14.10213
386.05        13.82239
386.50        13.35067
386.95        12.88789
387.40        12.75043
387.85        12.98611
388.29        13.47159
388.74        13.97233
389.19         14.1646
389.64        13.98813
390.09        13.54953
390.54        13.03212
390.98        12.72391
391.43        12.71234
391.88         12.8864
392.33        13.10367
392.78        13.16205
393.23        13.02581
393.67        12.76957
394.12         12.5093
394.57        12.35147
395.02        12.32122
395.47        12.37472
395.91        12.46071
396.36        12.48166
396.81          12.416
397.26        12.29334
397.71        12.16748
398.15        12.10409
398.60        12.13038
399.05        12.21199
399.50        12.29144
399.95        12.28866
400.39        12.18673
400.84        12.00882
401.29        11.81973
401.74        11.73905
402.18        11.80261
402.63        11.96561
403.08        12.13836
403.53        12.17582
403.97        12.04903
404.42        11.81458
404.87        11.56722
405.32        11.46249
405.76        11.53512
406.21        11.72859
406.66        11.95787
407.11        12.09131
407.55        12.09433
408.00        12.01077
408.45        11.88533
408.90        11.76597
409.34        11.69111
409.79         11.6944
410.24        11.74318
410.68        11.73976
411.13         11.6768
411.58        11.61545
412.03        11.55803
412.47        11.49005
412.92        11.41636
413.37        11.33401
413.81        11.28458
414.26        11.34438
414.71          11.513
415.15        11.77288
415.60        12.01601
416.05        12.08666
416.49        11.94753
416.94        11.65338
417.39        11.31583
417.83        11.11852
418.28        11.11461
418.73        11.23979
419.17        11.41457
419.62        11.50093
420.07        11.46569
420.51        11.35609
420.96        11.21255
421.41        11.07899
421.85        10.97464
422.30        10.89651
422.74        10.84681
423.19        10.85316
423.64        10.90897
424.08        11.01108
424.53        11.12968
424.98        11.22902
425.42        11.29311
425.87        11.33067
426.31        11.32519
426.76        11.26535
427.21        11.14858
427.65        10.97243
428.10        10.80637
428.54        10.74972
428.99        10.82468
429.44        11.04819
429.88        11.29787
430.33        11.30504
430.77         11.0927
431.22        10.91515
431.66        10.84436
432.11        10.86802
432.56        10.98794
433.00        11.23489
433.45        11.46405
433.89        11.45388
434.34        11.26045
434.78         11.0215
435.23        10.76077
435.67        11.23243
436.12        10.87425
436.57        10.84345
437.01        10.71252
437.46        10.67396
437.90        10.73066
438.35        10.79468
438.79        10.83774
439.24        10.86475
439.68        10.86638
440.13        10.74835
440.57        10.57992
441.02         10.6425
441.46        10.83704
441.91        10.83147
442.35        10.36905
442.80        10.17091
443.24        10.12857
443.69        10.02515
444.13        9.866137
444.58        9.777177
445.02        9.767573
445.47        9.827948
445.91         9.91678
446.36        9.945045
446.80        9.890749
447.24        9.790788
447.69        9.679005
448.13        9.582934
448.58        9.521257
449.02        9.485025
449.47        9.459988
449.91        9.419199
450.36        9.363017
450.80        9.300506
451.25        9.260879
451.69        9.275294
452.13        9.348749
452.58        9.455694
453.02        9.568098
453.47        9.639783
453.91        9.660154
454.36        9.642574
454.80        9.590916
455.24        9.515868
455.69        9.433719
456.13        9.334884
456.58        9.255287
457.02        9.240676
457.46        9.294433
457.91        9.380554
458.35        9.466779
458.79        9.520468
459.24        9.530315
459.68        9.504921
460.13         9.49735
460.57        9.495346
461.01        9.499571
461.46        9.751442
461.90        9.854592
462.34        9.779243
462.79        9.845114
463.23        9.733904
463.68         9.62118
464.12        9.530286
464.56        9.557503
465.01        9.623215
465.45        9.700019
465.89        9.754383
466.34        9.779989
466.78        9.756543
467.22        9.714999
467.67        9.775253
468.11        9.914108
468.55        9.933104
468.99        9.845758
469.44        9.836769
469.88        9.914762
470.32        9.977213
470.77        9.999347
471.21        9.996907
471.65        9.965467
472.10        9.904887
472.54        9.841626
472.98        9.844095
473.42        9.921211
473.87        10.02367
474.31        10.11812
474.75         10.2114
475.20        10.27229
475.64        10.20571
476.08        10.07332
476.52        10.05924
476.97        10.17949
477.41        10.35572
477.85        10.52604
478.29        10.62001
478.74        10.61682
479.18        10.52067
479.62        10.40215
480.06        10.37379
480.50        10.44393
480.95        10.52811
481.39         10.5859
481.83        10.60827
482.27        10.58559
482.72        10.52133
483.16        10.44957
483.60        10.43313
484.04        10.47987
484.48        10.61877
484.93        10.86815
485.37        10.99672
485.81          11.005
486.25        11.44625
486.69        11.45634
487.14        11.06807
487.58         11.4248
488.02        12.11032
488.46        11.69227
488.90        11.68568
489.34        11.63398
489.79        11.74782
490.23         11.9759
490.67        12.14012
491.11        12.20389
491.55        12.16912
491.99        12.07012
492.43        12.02108
492.88        12.04673
493.32        12.05664
493.76        12.07962
494.20        12.21076
494.64        12.45382
495.08        12.76756
495.52        13.09466
495.96        13.35873
496.41        13.53617
496.85        13.62251
497.29        13.64989
497.73        13.73899
498.17        13.88779
498.61        13.94263
499.05        13.92622
499.49        14.01735
499.93        14.22805
500.37        14.43176
500.82        14.60443
501.26         14.8292
501.70        15.05853
502.14        15.09906
502.58         14.9907
503.02        14.97108
503.46        15.06198
503.90        15.14289
504.34        15.18759
504.78        15.20451
505.22        15.18911
505.66        15.15146
506.10        15.11341
506.54        15.10464
506.98        15.13698
507.42         15.2041
507.86        15.30289
508.30        15.42731
508.74        15.56676
509.18        15.71337
509.62         15.8553
510.06        15.97439
510.50        16.06627
510.94        16.13993
511.38        16.18412
511.82        16.18394
512.26        16.14339
512.70        16.06513
513.14        16.00109
513.58        16.02976
514.02        16.15502
514.46        16.35464
514.90        16.54978
515.34        16.55943
515.78        16.37571
516.22        16.13446
516.66        15.94674
517.10        15.63006
517.54        15.21766
517.98         15.8892
518.42        15.82842
518.86        16.12327
519.30        16.21029
519.74        16.27993
520.18        16.32082
520.62        16.29145
521.06         16.2153
521.50        16.08594
521.93        15.93626
522.37        15.83187
522.81         15.7879
523.25        15.79128
523.69         15.8223
524.13        15.84615
524.57        15.84865
525.01        15.83665
525.45        15.81103
525.89         15.7731
526.32        15.72426
526.76        15.66538
527.20        15.59406
527.64        15.51204
528.08        15.42197
528.52        15.32334
528.96        15.23377
529.40        15.17732
529.83        15.15629
530.27        15.16814
530.71        15.17649
531.15        15.12438
531.59        15.00469
532.03        14.83617
532.46        14.66891
532.90        14.59667
533.34        14.62862
533.78        14.73083
534.22        14.84639
534.66        14.88748
535.09        14.83074
535.53        14.71303
535.97        14.56644
536.41        14.43913
536.85        14.35245
537.28        14.30035
537.72        14.29276
538.16         14.3001
538.60        14.38733
539.04        14.48866
539.47        14.59708
539.91        14.70615
540.35        14.81653
540.79        14.80229
541.22        14.86537
541.66        14.91818
542.10        15.03596
542.54        14.97108
542.97        15.11954
543.41         15.2032
543.85        15.32897
544.29         15.4604
544.72        15.57563
545.16        15.68449
545.60        15.78107
546.04        15.81508
546.47        15.84096
546.91        16.04703
547.35        16.39289
547.79        16.65863
548.22        16.80467
548.66        16.88398
549.10        16.92755
549.53        17.05917
549.97        17.28813
550.41        17.31093
550.84        17.45042
551.28        17.53445
551.72        17.68777
552.15        17.89664
552.59        18.15848
553.03        18.46176
553.46        18.74215
553.90        18.91918
554.34        18.97929
554.77        18.95077
555.21        18.89283
555.65        18.89054
556.08        18.96564
556.52        19.09078
556.96        19.24214
557.39        19.40751
557.83         19.5654
558.27        19.67418
558.70         19.7331
559.14        19.77784
559.57        19.80716
560.01        19.82423
560.45        19.82909
560.88        19.79903
561.32        19.78219
561.75        19.82709
562.19        20.00078
562.63        20.12134
563.06        20.19812
563.50        20.28959
563.93        20.38847
564.37        20.51944
564.80        20.58674
565.24        20.67511
565.68        20.74879
566.11        20.82576
566.55        20.92283
566.98        20.99349
567.42        21.03632
567.85          21.314
568.29        21.27617
568.72         21.5697
569.16        21.95011
569.60        22.18589
570.03         22.2501
570.47        22.26977
570.90        22.17431
571.34        22.46312
571.77        22.43849
572.21        22.65046
572.64        22.81303
573.08        23.09875
573.51        23.28938
573.95        23.56252
574.38        23.63254
574.82        23.70523
575.25          23.716
575.69         23.7145
576.12        23.68198
576.56        23.68489
576.99        23.74818
577.42        23.77564
577.86         23.7024
578.29        23.78003
578.73        24.03121
579.16         23.6397
579.60        23.46292
580.03         23.6648
580.47        23.68898
580.90        23.40004
581.33        23.14045
581.77        23.00124
582.20        23.49062
582.64        23.07019
583.07        22.76901
583.51        22.92594
583.94        22.55459
584.37        22.42929
584.81         22.2173
585.24        22.09962
585.68        22.07787
586.11        21.93468
586.54         21.8993
586.98        21.84484
587.41        21.84375
587.85        21.82341
588.28        21.75289
588.71        21.59513
589.15        21.43861
589.58        21.12572
590.01        21.41727
590.45        21.70816
590.88        21.52544
591.31          21.442
591.75        21.29068
592.18        21.36058
592.61        21.16018
593.05        21.47155
593.48        21.54833
593.91        21.84576
594.35        21.57998
594.78        21.81091
595.21        22.10584
595.65        22.38465
596.08         22.1908
596.51        22.20173
596.94        22.34837
597.38         22.4805
597.81         22.6579
598.24        22.82489
598.68         23.3389
599.11        23.57753
599.54        24.34091
599.97        24.02219
600.41        24.17098
600.84        24.77458
601.27        25.14293
601.70        25.42327
602.14        25.76468
602.57        26.15001
603.00        26.68852
603.43        27.09004
603.87        27.36677
604.30        27.73671
604.73        28.21138
605.16        28.48326
605.60        28.84245
606.03        29.25611
606.46        29.72061
606.89        30.19311
607.32        30.60508
607.76        30.75894
608.19        31.11509
608.62        31.44598
609.05        31.57102
609.48        31.85019
609.92        32.13499
610.35        32.52649
610.78        32.96062
611.21        33.39284
611.64        33.30374
612.07        33.88089
612.50        34.03563
612.94        34.03614
613.37        34.57619
613.80        34.87105
614.23        35.16579
614.66        35.54483
615.09        35.65819
615.52         35.9336
615.96        36.22785
616.39        36.41704
616.82        36.53055
617.25        36.65636
617.68        36.85401
618.11        37.18134
618.54        37.58262
618.97        37.59903
619.40        37.25924
619.84         37.6327
620.27        37.59168
620.70        37.86719
621.13         38.0841
621.56        38.33183
621.99        38.63266
622.42        38.75562
622.85        38.75761
623.28        38.77003
623.71        38.80283
624.14        38.96461
624.57        38.84573
625.00        38.71746
625.43        38.72606
625.86        38.26828
626.29        38.19449
626.72        37.99371
627.15        37.91249
627.58        37.88658
628.01        37.86208
628.44        37.78403
628.87        37.63109
629.30        37.20192
629.73        37.04257
630.16        36.60601
630.59        36.43687
631.02        36.18922
631.45        35.95615
631.88        35.68882
632.31        35.37041
632.74        35.01758
633.17        34.62216
633.60        34.18011
634.03        33.70041
634.46        33.19191
634.89        32.68855
635.32        32.24385
635.75        31.87247
636.18        31.56395
636.61        31.28972
637.04        30.99833
637.47        30.67076
637.89        30.31911
638.32        29.95243
638.75         29.6049
639.18         29.2907
639.61        29.00586
640.04        28.73811
640.47        28.46564
640.90        28.18716
641.33        27.91501
641.76        27.67782
642.18        27.52174
642.61        27.45016
643.04        27.44729
643.47         27.4803
643.90        27.49499
644.33         27.4777
644.76        27.44795
645.18        27.42366
645.61        27.43906
646.04        27.50615
646.47        27.61375
646.90        27.77071
647.33        27.99158
647.75        28.27339
648.18        28.60757
648.61        28.96408
649.04        29.28926
649.47        29.57599
649.89         29.8445
650.32        30.12891
650.75        30.48701
651.18        30.94605
651.61         31.4549
652.03        32.00788
652.46        32.69905
652.89        33.44759
653.32         33.8596
653.74        34.02986
654.17        34.42392
654.60        35.15523
655.03        35.94732
655.46        35.82141
655.88         37.1382
656.31        38.07623
656.74        41.81249
657.16        40.23658
657.59        38.23748
658.02        38.60266
658.45        39.36156
658.87        40.00039
659.30        40.74703
659.73        41.17304
660.15        41.75784
660.58        41.55799
661.01        41.53797
661.44        41.57809
661.86        41.91719
662.29        42.50348
662.72        43.06704
663.14        43.49436
663.57        43.60719
664.00        43.50904
664.42        43.58142
664.85        43.87924
665.27        44.15758
665.70        44.36185
666.13        44.54595
666.55        44.70069
666.98        44.81212
667.41        44.90557
667.83        45.01418
668.26        45.14302
668.69        45.29153
669.11        45.44148
669.54        45.55629
669.96         45.6348
670.39        45.69619
670.82        45.76421
671.24        45.88408
671.67        46.09139
672.09         46.3485
672.52        46.55376
672.94        46.96392
673.37        46.80504
673.80        46.64321
674.22        46.38726
674.65        46.30782
675.07        46.45396
675.50        46.77508
675.92        47.06231
676.35        47.24006
676.77        47.22496
677.20        47.10353
677.62        46.96501
678.05        46.85493
678.47        46.78744
678.90        47.12397
679.32        47.18413
679.75        47.30592
680.17        47.48139
680.60        47.57854
681.02        47.66809
681.45        47.75637
681.87        47.86553
682.30        47.97347
682.72        48.06539
683.15         48.1224
683.57        48.15273
684.00        48.07413
684.42        48.09059
684.85        48.12107
685.27        48.22388
685.70        48.38012
686.12        48.54781
686.54        48.67859
686.97        48.75242
687.39        48.76661
687.82        48.73807
688.24        48.77351
688.66         48.8545
689.09        48.83796
689.51        48.75049
689.94        48.73557
690.36        48.82047
690.78        48.90254
691.21        48.95288
691.63        49.07653
692.06        49.28184
692.48        49.16165
692.90        49.20535
693.33        49.47686
693.75        49.26963
694.17        49.37473
694.60        49.49256
695.02        49.26698
695.44        48.80748
695.87        48.87686
696.29        49.39363
696.71         49.4719
697.14        49.21629
697.56        49.35092
697.98        49.94003
698.41        50.50636
698.83        50.11015
699.25        49.92463
699.68        49.77129
700.10         49.6797
700.52        49.69123
700.94        49.81445
701.37        49.98696
701.79        50.13017
702.21        50.19545
702.64        50.20291
703.06        50.20039
703.48        50.27102
703.90        50.43195
704.33        50.65113
704.75        50.84996
705.17          50.884
705.59        50.72959
706.01        50.42986
706.44        50.12324
706.86        50.03844
707.28         50.2165
707.70        50.53843
708.12        51.00139
708.55        51.16817
708.97        51.06777
709.39        50.97998
709.81        50.95059
710.23        50.87083
710.66        50.77048
711.08         50.7422
711.50        50.78955
711.92        50.87727
712.34        50.99928
712.76        51.17297
713.19         51.3409
713.61         51.4482
714.03        51.46815
714.45        51.39293
714.87        51.27615
715.29        51.29348
715.71        51.48609
716.13        51.46451
716.56          51.786
716.98        51.91513
717.40          51.993
717.82        51.99771
718.24        51.95819
718.66        51.96829
719.08        52.00721
719.50        51.93602
719.92        51.77808
720.34          51.691
720.76        51.68969
721.19        51.69578
721.61        51.70641
722.03        51.72234
722.45         51.7534
722.87         51.7874
723.29        51.83877
723.71        51.92392
724.13        52.04453
724.55        52.19064
724.97        52.34745
725.39        52.49218
725.81        52.61314
726.23        52.71027
726.65        52.78549
727.07        52.84566
727.49        52.89294
727.91        52.92418
728.33        52.93662
728.75        52.92628
729.17        52.89622
729.59         52.8561
730.01        52.81419
730.43        52.77975
730.85        52.75892
731.27        52.75071
731.69        52.76118
732.10        52.80814
732.52        52.88255
732.94        52.96831
733.36         53.0372
733.78        53.09628
734.20        53.17151
734.62        53.14867
735.04        52.98639
735.46        53.23569
735.88        53.29049
736.30        52.85109
736.72        53.06251
737.13         53.2573
737.55        53.68872
737.97        53.89824
738.39        53.84845
738.81        53.71734
739.23        53.57924
739.65        53.51849
740.06        53.66357
740.48        53.62154
740.90        53.42677
741.32        53.28576
741.74        53.25165
742.16        53.28725
742.57         53.4045
742.99        53.58953
743.41          53.803
743.83        53.95895
744.25         54.0301
744.67        54.03296
745.08         53.9796
745.50        53.86933
745.92        53.72828
746.34        53.56189
746.75        53.41207
747.17        53.32841
747.59        53.32506
748.01        53.44027
748.42        53.64402
748.84        53.76228
749.26        53.83187
749.68         54.0449
750.09        54.35294
750.51        54.60535
750.93        54.70684
751.35        54.47506
751.76        54.02635
752.18        53.79574
752.60        53.82954
753.01        53.91069
753.43        53.98357
753.85        54.07937
754.27        54.17341
754.68        54.27143
755.10        54.34185
755.52        54.33832
755.93        54.26369
756.35        54.13797
756.77        54.02158
757.18        54.04665
757.60        54.28571
758.02        54.54737
758.43        54.68024
758.85        55.10474
759.26        55.43176
759.68        54.48347
760.10        54.90016
760.51        54.54388
760.93        54.37167
761.34        53.96306
761.76        54.35265
762.18         54.3294
762.59        54.20595
763.01        54.20925
763.42         54.3878
763.84        54.60411
764.26         54.8118
764.67        54.77048
765.09        54.62749
765.50        54.82331
765.92        55.38092
766.33        55.65238
766.75        55.54951
767.16        55.28559
767.58        54.92431
768.00        54.65623
768.41        54.59681
768.83        54.62894
769.24        54.74938
769.66        55.18084
770.07        55.72922
770.49        55.75365
770.90        55.35492
771.32        55.35864
771.73         55.7524
772.15        55.81833
772.56        55.55978
772.97        55.41961
773.39        55.38258
773.80        55.23722
774.22        54.97541
774.63        54.67682
775.05        54.45412
775.46        54.49173
775.88        54.80077
776.29        55.35072
776.70        55.92006
777.12        56.15985
777.53        55.99451
777.95        55.49936
778.36        54.91951
778.77        54.67415
779.19        54.86871
779.60         55.4174
780.02        56.03595
780.43        56.42166
780.84        56.48607
781.26        55.97194
781.67        55.23404
782.09        55.72028
782.50        57.08272
782.91        57.14068
783.33        56.00058
783.74        55.63713
784.15        56.11413
784.57        56.40575
784.98        56.37074
785.39        56.01462
785.81        55.47346
786.22        55.36139
786.63        55.65199
787.04        55.74075
787.46        55.61566
787.87        55.64221
788.28        55.83561
788.70        55.98772
789.11        56.06848
789.52        56.22702
789.93        56.42062
790.35        56.33949
790.76        56.08677
791.17        56.20409
791.58        56.61496
792.00        56.67259
792.41        56.34901
792.82        56.08527
793.23        55.94636
793.65         55.7127
794.06        55.55491
794.47        55.78851
794.88        56.21487
795.29        56.70583
795.71        56.97874
796.12        55.92509
796.53        56.53048
796.94        56.17479
797.35        55.86207
797.76         55.8126
798.18        56.02372
798.59        56.19674
799.00        56.26202
799.41        56.42839
799.82        56.65694
800.23        56.80064
800.64        56.83561
801.06        56.76665
801.47        56.67535
801.88        56.64464
802.29         56.6953
802.70         56.7948
803.11        56.88063
803.52        56.85209
803.93        56.69749
804.34        56.46313
804.75        56.22036
805.17        56.11472
805.58        56.19768
805.99         56.2944
806.40        56.39034
806.81        56.77932
807.22        57.24483
807.63        57.17254
808.04        56.34456
808.45        56.19098
808.86        56.68555
809.27        57.25296
809.68        57.69688
810.09        57.94556
810.50        57.91044
810.91          57.611
811.32        57.17784
811.73        56.80179
812.14        56.54905
812.55        56.43747
812.96        56.41908
813.37         56.2599
813.78        56.00878
814.19        56.03375
814.60        56.28767
815.01        56.41791
815.42        56.39894
815.83        56.39487
816.24        56.44579
816.65        56.53978
817.05        56.69039
817.46        56.86872
817.87        57.01773
818.28        57.01304
818.69        56.84375
819.10         56.5482
819.51        56.25907
819.92        56.22159
820.33         56.4954
820.74        56.97373
821.14        57.51875
821.55        57.92804
821.96        58.11526
822.37        58.03486
822.78        57.77098
823.19         57.5678
823.60        57.48716
824.00        57.44229
824.41        57.38952
824.82        57.36156
825.23        57.34973
825.64        57.35752
826.04        57.40031
826.45        57.45112
826.86        57.51165
827.27        57.58545
827.68        57.62874
828.08        57.58955
828.49        57.42418
828.90        57.16903
829.31        56.92118
829.72        56.85272
830.12        57.01828
830.53        57.32783
830.94        57.66914
831.35        57.84541
831.75        57.82577
832.16        57.62996
832.57          57.357
832.97        57.15478
833.38        57.06889
833.79        57.06178
834.20        57.09955
834.60        57.12238
835.01        57.12595
835.42        57.13413
835.82        57.16032
836.23         57.1767
836.64        57.19096
837.04        57.18903
837.45        57.17575
837.86        57.20435
838.26        57.28786
838.67        57.39315
839.08        57.45807
839.48        57.35336
839.89         57.0697
840.29        56.68378
840.70        56.34871
841.11        56.23169
841.51         56.3819
841.92        56.69661
842.33        57.14682
842.73        57.67963
843.14        58.16475
843.54        58.65077
843.95        58.97353
844.35        58.93892
844.76        58.54302
845.17        57.88202
845.57        57.18865
845.98        56.83411
846.38        56.90604
846.79        57.29476
847.19        57.90775
847.60        58.45594
848.00        58.86079
848.41        59.14132
848.81        59.32167
849.22        59.36601
849.62         59.3194
850.03        59.13052
850.43        58.89913
850.84        58.76159
851.24        58.79739
851.65        58.94603
852.05        59.15353
852.46        59.21641
852.86        59.09962
853.27        58.87897
853.67        58.60489
854.07         58.4583
854.48        58.45319
854.88        58.56544
855.29         58.6727
855.69        58.68633
856.10        58.50941
856.50        58.23769
856.90        57.95583
857.31        57.83421
857.71        57.98014
858.12        58.27777
858.52        58.62761
858.92        58.76985
859.33        58.63571
859.73        58.31223
860.13        57.91899
860.54        57.69783
860.94         57.7609
861.34        58.00428
861.75        58.25656
862.15        58.32813
862.55        58.13237
862.96        57.78714
863.36        57.37996
863.76        57.04214
864.17        56.82651
864.57        56.69915
864.97        56.71963
865.38        56.97161
865.78        57.48552
866.18        58.17328
866.58        58.79993
866.99        58.95314
867.39         58.5549
867.79        57.70765
868.19        56.61374
868.60        55.59472
869.00        54.73864
869.40        54.02906
869.80        53.56927
870.21        53.49722
870.61         53.8615
871.01        54.59233
871.41        55.42966
871.81        55.94327
872.22          56.062
872.62        55.88101
873.02        55.52205
873.42        55.52443
873.82        55.69529
874.22        55.15105
874.63        54.26604
875.03        53.90187
875.43        54.21939
875.83        56.48809
876.23        56.16826
876.63        55.20924
877.03        52.82046
877.44        49.24084
877.84        147.0056
878.24        49.84096
878.64         52.2298
879.04        58.48346
879.44        53.82173
879.84        51.37344
880.24        58.11449
880.64        58.67773
881.04        54.62454
881.44        51.99342
881.84        51.70591
882.24        52.78469
882.65        54.55441
883.05        55.46461
883.45        55.04889
883.85        54.27097
884.25        53.58122
884.65        53.23141
885.05         53.3613
885.45        53.81636
885.85        54.39927
886.25        54.83848
886.65        55.02168
887.05          55.026
887.45        54.95237
887.85        54.94171
888.25        55.03615
888.65        55.19337
889.04        55.33237
889.44        55.27024
889.84        55.00924
890.24        54.62146
890.64        54.26299
891.04        54.15842
891.44        54.32998
891.84        54.67251
892.24        55.03675
892.64        55.16396
893.04        54.98624
893.44        54.63143
893.83        54.13164
894.23        53.54171
894.63        52.90547
895.03         52.1994
895.43        51.61644
895.83        51.48259
896.23        51.84216
896.63        52.61189
897.02        53.45814
897.42        53.76361
897.82        53.39555
898.22        52.55788
898.62        51.61187
899.01        51.11629
899.41        51.22611
899.81        51.73188
900.21        52.45156
900.61        53.12075
901.00        53.62104
901.40        53.99674
901.80        54.24126
902.20        54.31944
902.59        54.24481
902.99        54.03823
903.39        53.69724
903.79        53.23658
904.18        52.71038
904.58        52.19144
904.98        51.88638
905.38        52.10136
905.77        52.84461
906.17         53.9813
906.57        55.17003
906.96        55.89864
907.36         55.9795
907.76        55.53828
908.15        54.84233
908.55        54.28073
908.95        54.00251
909.34        53.94337
909.74        53.90275
910.14        53.50783
910.53        52.69657
910.93        51.67142
911.33        50.84827
911.72         50.8721
912.12        51.78376
912.52        53.28883
912.91        54.84506
913.31        55.52688
913.70        55.17443
914.10        54.05216
914.49         52.5118
914.89        51.41599
915.29        51.08327
915.68        51.27869
916.08        51.83937
916.47        52.54308
916.87        53.23008
917.26        53.96586
917.66        54.59719
918.05        54.89308
918.45        54.79707
918.84        54.41431
919.24        53.80342
919.64        53.09962
920.03        52.40261
920.42        51.69596
920.82        51.27806
921.21        51.56225
921.61        52.51339
922.00        54.03687
922.40        55.49315
922.79        56.06995
923.19        55.61703
923.58        54.05381
923.98        51.82529
924.37        50.87653
924.77        51.89874
925.16        49.36116
925.55        52.25148
925.95         52.6856
926.34        53.23858
926.74        53.72751
927.13        54.25991
927.52         54.7275
927.92        55.06031
928.31        55.34838
928.70        55.43097
929.10        55.11876
929.49         54.4061
929.89        53.37552
930.28        52.44138
930.67        52.25109
931.07        52.88378
931.46         54.2015
931.85         55.5915
932.24        56.12712
932.64        55.59526
933.03        54.12212
933.42        52.28198
933.82        51.25366
934.21        51.36991
934.60        52.30075
934.99         53.1492
935.39        53.12751
935.78        52.13981
936.17        49.59809
936.56        45.91748
936.96        47.58716
937.35         46.8635
937.74        49.67942
938.13        52.42167
938.53        54.03135
938.92        54.37885
939.31        53.86831
939.70        52.97498
940.09        52.38105
940.49        52.39536
940.88        52.79934
941.27        53.39483
941.66        53.94232
942.05        54.33916
942.44        54.64761
942.84         54.9393
943.23        55.30449
943.62        55.73273
944.01        56.20902
944.40        56.45866
944.79        56.06205
945.18        54.96867
945.57        53.28435
945.97        51.64188
946.36        51.08548
946.75        51.93427
947.14        53.77419
947.53        55.76471
947.92        56.76191
948.31        56.55044
948.70        55.48705
949.09        54.03987
949.48        53.03743
949.87        52.76565
950.26        52.95107
950.65        53.37706
951.04        53.69316
951.43        53.76192
951.82        53.74536
952.21        53.63286
952.60        53.37214
952.99        52.98204
953.38        52.43193
953.77         51.8768
954.16         51.5906
954.55        51.61813
954.94        51.90728
955.33        52.22836
955.72        52.18054
956.11        51.67871
956.50        50.84101
956.89        49.95842
957.28        49.58976
957.66        49.91648
958.05        50.65048
958.44        51.51064
958.83        52.12394
959.22        52.39018
959.61        52.43412
960.00        52.23506
960.39        51.76799
960.78         51.0874
961.16        50.17734
961.55        49.31663
961.94        48.82916
962.33        48.77754
962.72        49.10708
963.11         49.5447
963.49        49.60884
963.88        49.11805
964.27        48.24481
964.66          47.321
965.04        46.89558
965.43        47.10576
965.82        47.79392
966.21        48.65218
966.60        49.17577
966.98        49.24091
967.37        48.98106
967.76        48.67739
968.15        48.76638
968.53        49.34549
968.92         50.1497
969.31        50.93982
969.69        51.33869
970.08        51.16934
970.47        50.59529
970.86        49.67463
971.24        48.45356
971.63        47.09979
972.02         45.6721
972.40        44.36939
972.79        43.57506
973.17        43.40756
973.56        43.71882
973.95        44.49424
974.33        45.64612
974.72         46.9197
975.11        48.26643
975.49        49.27576
975.88        49.34452
976.26        48.41619
976.65        46.70945
977.04        44.72287
977.42        43.35052
977.81        42.92444
978.19        43.21022
978.58        44.00952
978.96        44.90779
979.35        45.67241
979.74        46.51309
980.12        47.30389
980.51        47.58593
980.89        47.41111
981.28        46.76983
981.66        46.16315
982.05        46.33086
982.43        47.35645
982.82        48.96427
983.20         50.6883
983.59        51.40403
983.97        50.85749
984.35        49.33469
984.74        47.36489
985.12        45.65495
985.51        44.46108
985.89        43.51165
986.28        42.83536
986.66        42.48878
987.04        42.44629
987.43        42.76873
987.81        43.02417
988.20        42.54723
988.58        41.13165
988.96        38.65749
989.35        35.71531
989.73        34.03956
990.12        34.61414
990.50        36.92877
990.88        39.52496
991.27        40.68286
991.65        40.40806
992.03        39.15998
992.42        37.85306
992.80         38.0989
993.18        40.33622
993.56        43.64426
993.95        47.04269
994.33        49.71417
994.71        51.23244
995.10        51.93547
995.48        51.85532
995.86        50.89894
996.24        49.14124
996.63        46.54254
997.01        43.47241
997.39         41.3395
997.77        40.82827
998.15        41.61804
998.54        42.90529
998.92        43.71666
999.30         43.7866
999.68        43.34565
1000.06        42.20628
1000.45        40.38868
1000.83        38.46698
1001.21        36.66481
1001.59        35.43235
1001.97        35.01938
1002.35         35.2257
1002.73        35.97302
1003.12        36.87883
1003.50        36.93394
1003.88        35.79084
1004.26        33.92288
1004.64        31.79896
1005.02        30.00492
1005.40        28.73673
1005.78        27.72381
1006.16        27.57639
1006.54        29.32939
1006.92        32.54488
1007.30        36.27121
1007.69        39.10389
1008.07        39.86347
1008.45        38.19717
1008.83        33.95895
1009.21        26.57459
1009.59         17.5258
1009.97        9.913176
1010.35        5.078353
1010.73        4.507606
1011.11        8.002387
1011.49        14.21914
1011.86         22.8506
1012.24        30.40691
1012.62        33.62718
1013.00        32.38122
1013.38        27.74186
1013.76        21.88291
1014.14        18.74984
1014.52        19.52136
1014.90        23.13205
1015.28        27.61287
1015.66        29.61712
1016.04        27.99827
1016.41        23.43654
1016.79        17.53512
1017.17        14.06497
1017.55        14.62738
1017.93        17.61327
1018.31        20.91465
1018.69        22.64039
1019.06        22.50731
1019.44        20.75935
1019.82        18.04609
1020.20        15.82146
1020.58        14.81319
1020.95        14.85511
1021.33        14.24497
1021.71        9.351236
1022.09       -2.524258
1022.46       -27.59157
1022.84       -67.50775
1023.22        -85.1513
1023.60        -54.9911
1023.97       -16.63716
1024.35        5.961887
1024.73        13.68125
