SpectraSmart Spectrum 2.9.0.0
--------- Device Information -----------
Spectrum Name :  反射率_0
Saving Time :  2024/04/20 00:40:12
Spectro-Module Model Name : SE2030-DUVN
Spectro-Module Serial Number : OS361AC55029948
Wavelength Start : 200
Wavelength End : 1025
Wavelength Unit : Wavelength(nm)
Spectrum Unit : Reflectance(%)
-----------Spectrum Setting ------------
Integration Time : 30ms
Average : 10
Boxcar : 0
Background removal :  enabled
linearity correction :  enabled
SC :  disabled
Intensity correction :  disabled
DWT denoise :  enabled
savitzky-golay :  disabled
FFT :  disabled
Running average :  disabled
Kalman :  disabled
High pass :  disabled
---------------BEGIN--------------------
Wavelength(nm)             Reflectance(%)
200.29               0
200.75        58.71553
201.21        57.66518
201.67        58.56497
202.13        62.60867
202.58         70.2257
203.04        81.76123
203.50        93.53941
203.96        96.30232
204.42        89.46661
204.88        78.80132
205.34        69.30785
205.80        63.17237
206.26        59.33802
206.72        56.27881
207.18        53.65535
207.64        52.07724
208.10        52.58382
208.55         55.6436
209.01        58.94981
209.47        61.17931
209.93        62.23892
210.39        62.27473
210.85        61.68838
211.31        61.03027
211.77        60.32483
212.23        59.41616
212.69        57.97971
213.14        56.05806
213.60          54.142
214.06        53.23915
214.52        53.32117
214.98        54.29963
215.44        56.04247
215.90        58.32111
216.36         61.3204
216.81        64.83334
217.27        68.08578
217.73         71.0249
218.19        72.38676
218.65        70.52435
219.11        65.31583
219.57        56.77646
220.02        47.05313
220.48        42.29321
220.94        44.52418
221.40        52.62167
221.86        62.47009
222.32        67.58849
222.77        66.43243
223.23        61.23722
223.69         55.0956
224.15        52.49129
224.61        53.78231
225.06        56.72999
225.52        59.45596
225.98        60.48962
226.44        59.76948
226.90        58.05518
227.36        55.92023
227.81        54.23675
228.27        53.69755
228.73        53.86674
229.19        54.51505
229.65        55.40429
230.10        56.34011
230.56        57.34555
231.02         58.3555
231.48        59.34089
231.93        60.21267
232.39        60.96087
232.85        61.39151
233.31        61.25632
233.77        60.53738
234.22        59.34928
234.68        57.91743
235.14         56.5638
235.60        55.49931
236.05        54.74893
236.51        54.35798
236.97        54.32191
237.43        54.66622
237.88        55.63647
238.34        57.15401
238.80        59.11557
239.26        61.09676
239.71        62.74795
240.17        63.77051
240.63        64.56551
241.08        65.33785
241.54        65.90128
242.00        65.87485
242.46        64.39297
242.91        60.89917
243.37        54.54943
243.83        45.59719
244.28        39.08641
244.74        40.49718
245.20        49.56515
245.66        59.14206
246.11         62.4043
246.57        58.51102
247.03        48.04483
247.48        33.64048
247.94        29.90611
248.40        38.54038
248.85        49.12467
249.31        56.95414
249.77        61.45066
250.22        63.71823
250.68         64.9967
251.14         65.5032
251.59        65.09528
252.05        64.01381
252.51        62.35706
252.96        60.34063
253.42        58.81849
253.88        58.23697
254.33        58.43262
254.79        60.23985
255.25        64.14471
255.70        69.47907
256.16        75.31372
256.62        80.03058
257.07        81.82421
257.53        80.97477
257.99        78.31065
258.44        74.59167
258.90        71.69827
259.35           69.63
259.81        68.51358
260.27        67.67358
260.72        66.53783
261.18        65.31762
261.63        63.75966
262.09        62.50352
262.55        61.86305
263.00        61.72782
263.46        62.03912
263.91        62.07755
264.37        61.33729
264.83        59.79838
265.28        57.66889
265.74        55.76376
266.19        54.74004
266.65        54.74417
267.11        55.35143
267.56        56.00022
268.02        55.88133
268.47        54.84452
268.93        53.19756
269.38        51.28474
269.84        49.88841
270.30        49.20378
270.75        48.99153
271.21         48.9897
271.66        48.78892
272.12        48.25457
272.57        47.50869
273.03        46.65926
273.48        45.77068
273.94        44.94914
274.39        44.13372
274.85         43.3616
275.31        42.63491
275.76        41.92461
276.22        41.25644
276.67        40.62723
277.13        40.15248
277.58        39.76814
278.04        39.48823
278.49        39.12023
278.95        38.48306
279.40        37.53101
279.86        36.43507
280.31        35.33918
280.77        34.61017
281.22        34.22562
281.68        34.09629
282.13        34.03693
282.59         33.8287
283.04        33.39984
283.50        32.86874
283.95         32.2668
284.41        31.68571
284.86        31.14069
285.32        30.64166
285.77        30.21994
286.22        30.00123
286.68        29.98699
287.13         30.1028
287.59        30.25959
288.04        30.28968
288.50        30.17321
288.95        29.91924
289.41        29.59211
289.86         29.2131
290.32        28.85929
290.77        28.52207
291.22        28.25685
291.68        28.11108
292.13        28.09733
292.59        28.22262
293.04        28.48638
293.50        28.89908
293.95        29.43236
294.40        30.06161
294.86        30.72051
295.31        31.31983
295.77        31.83423
296.22        32.27539
296.68        32.67818
297.13        33.08436
297.58        33.52315
298.04         33.9984
298.49        34.49711
298.95        35.03914
299.40        35.60617
299.85        36.18487
300.31        36.78475
300.76        37.40971
301.21        38.04394
301.67        38.70221
302.12        39.27301
302.58        39.66148
303.03        39.84093
303.48        39.87286
303.94         39.9254
304.39        40.21397
304.84        40.77956
305.30        41.52936
305.75        42.26958
306.20        42.72805
306.66        42.86543
307.11        42.76376
307.57        42.56031
308.02        42.38073
308.47        42.30159
308.93         42.2703
309.38        42.29608
309.83        42.45132
310.29        42.71589
310.74        43.06848
311.19         43.3602
311.65         43.3471
312.10        42.98725
312.55        42.35976
313.00        41.66142
313.46        41.19968
313.91        41.03191
314.36        41.08574
314.82        41.21164
315.27        41.18652
315.72        40.93888
316.18        40.56163
316.63        40.14454
317.08        39.83009
317.53        39.65147
317.99        39.54128
318.44        39.45354
318.89        39.31215
319.35        39.08812
319.80        38.80841
320.25        38.48251
320.70        38.12256
321.16        37.73624
321.61        37.33033
322.06        36.91173
322.51        36.49836
322.97        36.09483
323.42        35.71006
323.87        35.35466
324.32        35.04714
324.78        34.78002
325.23        34.55576
325.68        34.33014
326.13        34.03619
326.59        33.66049
327.04        33.24585
327.49        32.83597
327.94        32.50812
328.39        32.28339
328.85        32.12065
329.30        32.03803
329.75         32.0119
330.20        32.02073
330.66        32.04612
331.11        32.05621
331.56        31.94398
332.01        31.68588
332.46        31.29709
332.92        30.84526
333.37        30.46645
333.82        30.20696
334.27        30.05653
334.72        29.95552
335.17        29.79496
335.63        29.53841
336.08        29.22552
336.53        28.94839
336.98        28.86739
337.43        29.00878
337.88        29.32339
338.34        29.62014
338.79        29.63675
339.24        29.29956
339.69        28.68401
340.14         28.0319
340.59        27.75145
341.05        27.92376
341.50         28.4248
341.95        28.98874
342.40        29.20522
342.85        28.98257
343.30         28.4665
343.75        27.85074
344.20        27.44946
344.66        27.35192
345.11        27.42612
345.56        27.59415
346.01        27.73288
346.46         27.7821
346.91        27.79842
347.36        27.72155
347.81        27.44334
348.26        26.98004
348.72        26.39679
349.17          25.826
349.62        25.57167
350.07        25.69983
350.52        26.10255
350.97        26.63414
351.42        27.07232
351.87        27.33515
352.32        27.47305
352.77        27.46973
353.22        27.30702
353.67        27.00735
354.13        26.58969
354.58        26.13087
355.03        25.79707
355.48        25.63363
355.93        25.61949
356.38        25.68278
356.83        25.69524
357.28        25.61626
357.73        25.46853
358.18        25.30864
358.63        25.23134
359.08        25.25265
359.53        25.33734
359.98        25.38891
360.43        25.26665
360.88        24.95306
361.33         24.4987
361.78        24.03542
362.23        23.77698
362.68        23.76412
363.13        23.91627
363.58        24.09752
364.03        24.09735
364.48         23.8624
364.93         23.4654
365.38        22.98062
365.83        22.53699
366.28        22.19328
366.73        21.91344
367.18         21.7112
367.63        21.60654
368.08        21.58541
368.53        21.64373
368.98        21.71564
369.43        21.69054
369.88        21.54722
370.33        21.31498
370.78        21.04997
371.23        20.85728
371.68         20.7712
372.13        20.75612
372.58        20.79322
373.03        20.85039
373.48        20.90012
373.93        20.94347
374.38        20.94571
374.83        20.85168
375.28        20.65524
375.72        20.36655
376.17        20.04527
376.62         19.7509
377.07        19.51638
377.52        19.33391
377.97        19.21409
378.42        19.16796
378.87        19.18218
379.32        19.24123
379.77        19.30801
380.22        19.32436
380.67        19.27466
381.11        19.17893
381.56        19.03004
382.01        18.84002
382.46        18.62557
382.91        18.38534
383.36        18.17467
383.81        18.07497
384.26        18.09324
384.71         18.2088
385.15        18.33001
385.60        18.31676
386.05        18.14286
386.50        17.85303
386.95        17.54746
387.40        17.38744
387.85        17.40633
388.29        17.54408
388.74         17.7099
389.19        17.77264
389.64        17.70051
390.09         17.5302
390.54        17.32292
390.98        17.16793
391.43        17.10785
391.88        17.10525
392.33        17.10316
392.78        17.02163
393.23        16.85507
393.67        16.62668
394.12        16.42933
394.57        16.33219
395.02        16.34733
395.47          16.447
395.91        16.57044
396.36        16.59405
396.81        16.49377
397.26        16.30114
397.71        16.09634
398.15        15.98467
398.60        16.00619
399.05         16.1174
399.50        16.23393
399.95        16.23466
400.39        16.09656
400.84        15.85231
401.29        15.60196
401.74        15.52697
402.18        15.67412
402.63        15.97273
403.08         16.2784
403.53        16.36501
403.97        16.18704
404.42        15.82878
404.87        15.43014
405.32        15.22045
405.76        15.25622
406.21        15.46025
406.66        15.72069
407.11        15.86325
407.55        15.84111
408.00        15.71453
408.45        15.54315
408.90        15.38879
409.34        15.30146
409.79        15.32552
410.24        15.41036
410.68        15.41794
411.13        15.33651
411.58        15.24331
412.03         15.1576
412.47        15.08864
412.92        15.04493
413.37        15.01418
413.81         15.0146
414.26        15.08869
414.71        15.22838
415.15        15.42768
415.60        15.59725
416.05        15.61607
416.49         15.4578
416.94        15.16622
417.39        14.84161
417.83        14.64771
418.28        14.63265
418.73        14.74209
419.17        14.89952
419.62         14.9715
420.07        14.92768
420.51        14.81168
420.96        14.67175
421.41        14.56345
421.85        14.50136
422.30        14.47393
422.74        14.46735
423.19        14.49036
423.64        14.53006
424.08        14.59255
424.53        14.64409
424.98        14.65047
425.42        14.60601
425.87        14.52446
426.31        14.41632
426.76        14.30708
427.21        14.19848
427.65        14.07942
428.10        13.98959
428.54        13.97174
428.99        14.03437
429.44        14.22463
429.88        14.43477
430.33        14.39936
430.77        14.15924
431.22        14.01055
431.66        14.00966
432.11        14.08329
432.56        14.21663
433.00        14.46644
433.45        14.67488
433.89        14.60308
434.34        14.34092
434.78        14.06225
435.23        13.77661
435.67        14.35211
436.12        13.90144
436.57         13.8202
437.01        13.61051
437.46        13.53358
437.90         13.5996
438.35        13.68747
438.79        13.75281
439.24        13.79075
439.68        13.78676
440.13        13.62862
440.57        13.40667
441.02        13.48194
441.46        13.73074
441.91        13.72766
442.35        13.15384
442.80         12.9303
443.24        12.92121
443.69         12.8461
444.13        12.69576
444.58        12.60211
445.02        12.57337
445.47        12.60621
445.91        12.66884
446.36        12.68136
446.80        12.62514
447.24        12.53774
447.69        12.44496
448.13         12.3572
448.58        12.29026
449.02        12.23947
449.47        12.19745
449.91        12.14746
450.36        12.09207
450.80        12.03469
451.25        11.99881
451.69         12.0049
452.13        12.05715
452.58        12.13647
453.02        12.21786
453.47        12.26137
453.91        12.25849
454.36        12.21952
454.80         12.1544
455.24        12.08256
455.69        12.02086
456.13         11.9547
456.58        11.90575
457.02        11.89754
457.46        11.93074
457.91        11.97088
458.35        12.00583
458.79        12.04317
459.24        12.07462
459.68        12.09387
460.13        12.13931
460.57        12.15202
461.01        12.12167
461.46        12.37733
461.90        12.42779
462.34        12.26322
462.79        12.29378
463.23        12.11307
463.68         11.9494
464.12        11.85017
464.56        11.92995
465.01        12.08011
465.45        12.23971
465.89        12.33114
466.34        12.34182
466.78        12.25924
467.22        12.13716
467.67        12.14986
468.11        12.27871
468.55        12.27075
468.99        12.15112
469.44        12.15927
469.88         12.3027
470.32         12.4503
470.77        12.54719
471.21        12.57264
471.65        12.51398
472.10        12.38142
472.54        12.22931
472.98        12.17671
473.42        12.24491
473.87        12.36159
474.31        12.48017
474.75         12.6022
475.20         12.6843
475.64        12.61439
476.08        12.45586
476.52        12.41465
476.97        12.50992
477.41        12.65035
477.85        12.78597
478.29        12.87482
478.74         12.8998
479.18        12.85102
479.62        12.78596
480.06        12.79748
480.50        12.88582
480.95        12.96425
481.39        12.99831
481.83        12.99731
482.27        12.95738
482.72        12.87901
483.16        12.80278
483.60        12.78956
484.04        12.85048
484.48        13.03055
484.93        13.34065
485.37        13.44549
485.81        13.44512
486.25        13.80387
486.69        14.45996
487.14        13.75846
487.58        13.79821
488.02         14.5374
488.46        14.10396
488.90          14.141
489.34          13.938
489.79        14.03596
490.23        14.35195
490.67        14.51963
491.11        14.51167
491.55        14.43022
491.99        14.32472
492.43        14.27635
492.88         14.3133
493.32        14.36638
493.76        14.44045
494.20        14.58118
494.64        14.78518
495.08        15.02714
495.52        15.27707
495.96        15.50334
496.41        15.69305
496.85        15.82234
497.29        15.90194
497.73        16.02978
498.17        16.19029
498.61        16.21734
499.05        16.15016
499.49        16.21711
499.93         16.4396
500.37        16.66331
500.82        16.85833
501.26        17.11749
501.70        17.38453
502.14        17.43938
502.58        17.32584
503.02        17.31323
503.46        17.42621
503.90          17.526
504.34        17.58523
504.78        17.61997
505.22        17.62471
505.66        17.60583
506.10        17.58473
506.54        17.59021
506.98        17.63316
507.42        17.70856
507.86        17.80858
508.30        17.91931
508.74        18.03122
509.18        18.14102
509.62        18.24945
510.06        18.35793
510.50        18.46585
510.94        18.57536
511.38        18.66377
511.82        18.69665
512.26        18.67125
512.70         18.5957
513.14        18.52422
513.58        18.53963
514.02        18.64832
514.46         18.8257
514.90        18.99967
515.34        18.99754
515.78        18.82037
516.22        18.59572
516.66        18.42283
517.10        18.10608
517.54        17.67516
517.98        18.28037
518.42        18.17837
518.86        18.45902
519.30        18.58017
519.74        18.71664
520.18        18.82878
520.62        18.83162
521.06        18.73771
521.50        18.55299
521.93        18.33936
522.37        18.20935
522.81        18.18952
523.25        18.25275
523.69        18.34869
524.13        18.39567
524.57        18.36956
525.01        18.29195
525.45        18.19591
525.89        18.13291
526.32        18.11541
526.76        18.12824
527.20        18.13408
527.64           18.08
528.08        17.95645
528.52        17.78083
528.96        17.60627
529.40        17.51062
529.83        17.50789
530.27        17.57904
530.71         17.6556
531.15        17.63029
531.59        17.48534
532.03        17.25837
532.46        17.02884
532.90        16.93673
533.34        17.00081
533.78        17.16828
534.22         17.3599
534.66        17.45513
535.09        17.41976
535.53        17.30179
535.97         17.1399
536.41        16.99159
536.85         16.8841
537.28         16.8109
537.72         16.7857
538.16        16.77844
538.60        16.86781
539.04        16.97639
539.47        17.09965
539.91        17.23495
540.35        17.38194
540.79        17.39008
541.22        17.48653
541.66        17.55366
542.10        17.67681
542.54        17.56997
542.97        17.70734
543.41        17.77693
543.85        17.90871
544.29        18.05531
544.72        18.18711
545.16        18.30954
545.60        18.41225
546.04        18.43775
546.47        18.44923
546.91        18.66408
547.35         19.0367
547.79        19.31498
548.22        19.45245
548.66         19.5104
549.10        19.52457
549.53        19.63539
549.97        19.86421
550.41          19.882
550.84        20.06103
551.28        20.19912
551.72        20.41177
552.15        20.63263
552.59        20.85311
553.03        21.09654
553.46        21.29714
553.90        21.44852
554.34        21.53608
554.77        21.57067
555.21        21.58912
555.65        21.64021
556.08        21.73466
556.52        21.85823
556.96        21.99339
557.39        22.14013
557.83        22.28267
558.27        22.36874
558.70        22.40997
559.14         22.4691
559.57        22.54434
560.01        22.62961
560.45        22.70346
560.88        22.70517
561.32        22.68049
561.75        22.69654
562.19        22.83938
562.63        22.91691
563.06        22.94905
563.50        23.00047
563.93        23.07001
564.37        23.19732
564.80        23.27455
565.24        23.39353
565.68        23.50532
566.11        23.61517
566.55        23.73775
566.98        23.82667
567.42        23.87745
567.85         24.1842
568.29        24.12667
568.72        24.44243
569.16        24.87109
569.60         25.1702
570.03        25.29955
570.47        25.41301
570.90        25.42511
571.34        25.78944
571.77        25.67204
572.21        26.09061
572.64        26.32231
573.08        26.43542
573.51        26.53879
573.95        27.14204
574.38        27.33241
574.82        27.57013
575.25        27.57582
575.69        27.42829
576.12        27.44689
576.56        27.38623
576.99        27.34874
577.42        27.72151
577.86        27.62562
578.29        27.69761
578.73        28.15603
579.16        27.73376
579.60        27.52804
580.03        27.26209
580.47        27.57748
580.90        27.25011
581.33        27.09198
581.77        27.20287
582.20        27.54601
582.64         27.1164
583.07        26.72139
583.51        26.71371
583.94        26.34628
584.37        26.15225
584.81         25.7713
585.24        25.70148
585.68        25.83324
586.11        25.65845
586.54        25.38033
586.98        25.28598
587.41        25.41768
587.85        25.48892
588.28        25.44121
588.71        25.21936
589.15        24.88677
589.58        24.90195
590.01        24.91517
590.45        25.29217
590.88        25.13054
591.31        24.93726
591.75        24.57911
592.18        24.70924
592.61        24.71354
593.05        25.17704
593.48        25.07094
593.91        25.37313
594.35        25.10691
594.78        25.40184
595.21        25.66664
595.65        25.73814
596.08        25.80876
596.51        25.79684
596.94        25.85589
597.38        25.99376
597.81        26.25694
598.24        26.41953
598.68        26.92878
599.11        27.16019
599.54        27.94412
599.97        27.98142
600.41        28.49246
600.84        28.80473
601.27        29.46802
601.70        29.76019
602.14        29.88193
602.57        30.31456
603.00        31.06426
603.43        31.68602
603.87        32.11142
604.30        32.55769
604.73        33.08458
605.16        33.34925
605.60        33.92743
606.03        34.48319
606.46        35.09515
606.89        35.51301
607.32        36.30228
607.76        36.41387
608.19        36.95123
608.62         37.3589
609.05        37.71194
609.48         38.0096
609.92        38.24684
610.35        38.57313
610.78        39.68756
611.21        40.26577
611.64        40.23492
612.07        40.76813
612.50        40.85825
612.94        41.25459
613.37        41.68629
613.80        42.18713
614.23        42.69025
614.66        43.21252
615.09        43.50148
615.52         43.9199
615.96        44.32668
616.39        44.69396
616.82        45.09745
617.25        44.84786
617.68        45.44616
618.11        45.83851
618.54        46.34475
618.97        46.52187
619.40        46.41394
619.84         46.4764
620.27        46.44626
620.70        46.89179
621.13        47.58101
621.56        47.88253
621.99        47.88667
622.42        48.02416
622.85        48.34116
623.28         48.4951
623.71        48.50048
624.14        48.59512
624.57        48.53826
625.00        48.45555
625.43        48.60611
625.86        47.88128
626.29        47.98011
626.72        47.71569
627.15        47.58236
627.58        47.46912
628.01        47.32427
628.44        47.24929
628.87        46.84688
629.30         46.4751
629.73        46.06851
630.16        45.56247
630.59        45.30552
631.02        44.80751
631.45        44.50668
631.88        44.05325
632.31        43.54552
632.74         42.9875
633.17        42.39619
633.60        41.79953
634.03        41.20712
634.46        40.61995
634.89        40.03713
635.32        39.45525
635.75        38.87915
636.18        38.32175
636.61        37.78564
637.04        37.26767
637.47        36.76391
637.89        36.27071
638.32        35.79218
638.75        35.35932
639.18        34.97857
639.61        34.64752
640.04        34.32936
640.47        33.96133
640.90        33.53523
641.33        33.07438
641.76        32.63913
642.18        32.33046
642.61        32.16733
643.04        32.12169
643.47        32.13998
643.90         32.1323
644.33        32.07362
644.76         31.9941
645.18        31.92559
645.61         31.9225
646.04        32.00266
646.47        32.14703
646.90        32.34927
647.33        32.60438
647.75        32.90569
648.18        33.24422
648.61        33.61177
649.04        34.00602
649.47        34.41957
649.89         34.8241
650.32        35.24046
650.75        35.74682
651.18        36.37233
651.61        37.02624
652.03        37.70665
652.46        38.65496
652.89        39.78649
653.32        40.38907
653.74        40.52178
654.17        41.51361
654.60        41.99241
655.03        43.19761
655.46        43.17856
655.88        45.24702
656.31        46.43664
656.74        54.30655
657.16        52.23967
657.59        48.59154
658.02        48.53819
658.45        48.64625
658.87        49.87522
659.30        50.64736
659.73        51.36577
660.15        52.30474
660.58        52.60114
661.01        52.72307
661.44        52.61621
661.86        53.00751
662.29         53.8893
662.72        54.86591
663.14        55.73332
663.57        56.05447
664.00        55.94938
664.42        56.13192
664.85        56.67443
665.27        57.09911
665.70        57.38288
666.13        57.69084
666.55        58.15759
666.98        58.59966
667.41        59.02538
667.83        59.37149
668.26        59.61826
668.69        59.80546
669.11        59.95937
669.54        60.12337
669.96        60.32255
670.39        60.53081
670.82        60.77503
671.24        61.13487
671.67        61.60566
672.09        62.08029
672.52        62.43517
672.94        62.89042
673.37        62.74391
673.80        62.59743
674.22        62.38968
674.65        62.35189
675.07        62.54781
675.50        62.91365
675.92        63.33807
676.35        63.58075
676.77        63.59352
677.20        63.46622
677.62        63.30912
678.05        63.27628
678.47        63.40564
678.90        63.74508
679.32        64.05264
679.75        64.35824
680.17        64.56161
680.60        64.72517
681.02        64.87637
681.45        64.92272
681.87        64.92363
682.30        65.16827
682.72        65.56691
683.15        65.52847
683.57        65.15983
684.00        65.12817
684.42        65.56219
684.85        65.82593
685.27        65.94144
685.70        66.20826
686.12        66.54308
686.54        66.78017
686.97           66.91
687.39        66.63277
687.82        66.54349
688.24        66.58483
688.66        66.86262
689.09        66.88178
689.51        66.72037
689.94        66.72138
690.36        66.92432
690.78        67.06855
691.21        67.12435
691.63        67.29513
692.06        67.59309
692.48        67.54323
692.90         67.6007
693.33        68.00753
693.75        67.75152
694.17        67.85787
694.60        67.95389
695.02        67.84954
695.44        67.55451
695.87        67.49689
696.29        67.67209
696.71        67.50031
697.14        67.19418
697.56        67.66905
697.98        68.67191
698.41        69.49598
698.83        69.14205
699.25        68.95197
699.68        68.80155
700.10        68.70129
700.52        68.71522
700.94        68.84592
701.37        69.02335
701.79        69.19225
702.21        69.30088
702.64        69.29221
703.06         69.3465
703.48        69.41553
703.90        69.55862
704.33        69.74453
704.75        69.90914
705.17        69.91724
705.59        69.74683
706.01        69.44584
706.44        69.16649
706.86        69.12565
707.28         69.3564
707.70        69.84903
708.12        70.42822
708.55        70.65225
708.97        70.53152
709.39        70.52116
709.81        70.65693
710.23        70.66797
710.66        70.57654
711.08        70.57372
711.50         70.6609
711.92         70.7589
712.34        70.86581
712.76        71.01582
713.19        71.16889
713.61        71.31208
714.03        71.40902
714.45        71.46278
714.87        71.50995
715.29        71.61521
715.71        71.78587
716.13        72.00021
716.56        72.20832
716.98        72.35338
717.40        72.37729
717.82        72.40939
718.24        72.50038
718.66        72.16368
719.08        72.31831
719.50        72.23159
719.92        72.17851
720.34        72.14331
720.76        72.13447
721.19        72.14654
721.61         72.1729
722.03        72.18578
722.45        72.20023
722.87        72.20671
723.29         72.2366
723.71        72.33073
724.13        72.49758
724.55        72.72388
724.97        72.97323
725.39        73.18673
725.81        73.34316
726.23         73.4481
726.65        73.53387
727.07        73.65828
727.49        73.83123
727.91         74.0321
728.33        74.21185
728.75        74.28957
729.17        74.25355
729.59        74.13791
730.01        73.98714
730.43        73.93194
730.85        74.01659
731.27         74.0843
731.69         74.0812
732.10        74.58527
732.52        74.56871
732.94        74.69164
733.36        74.67384
733.78        74.70266
734.20        74.82561
734.62        74.85488
735.04        74.73211
735.46        74.87668
735.88        75.09872
736.30        74.21533
736.72        74.57696
737.13        74.56414
737.55        74.80753
737.97        75.19783
738.39        75.54733
738.81        75.45323
739.23        74.85809
739.65        74.68668
740.06        74.83759
740.48         75.3236
740.90        75.63563
741.32        74.81081
741.74        74.88563
742.16        74.68752
742.57        74.89095
742.99        75.08186
743.41        75.22588
743.83        75.36688
744.25        75.45654
744.67        75.48481
745.08        75.46568
745.50        75.39365
745.92        75.29659
746.34        75.18165
746.75        75.07099
747.17        74.99651
747.59        74.97267
748.01        75.01434
748.42        75.12859
748.84        75.27927
749.26        75.47788
749.68        75.69473
750.09        75.90909
750.51        76.18112
750.93        76.40813
751.35        76.30743
751.76        75.96588
752.18        75.64169
752.60        75.67044
753.01        75.69446
753.43        75.63545
753.85        75.71733
754.27        75.86032
754.68        76.30537
755.10        76.95418
755.52        76.54823
755.93         76.6295
756.35        76.47369
756.77        76.59082
757.18        76.68175
757.60        76.80746
758.02        77.09283
758.43        77.35793
758.85        77.48201
759.26        77.60048
759.68        76.67484
760.10        76.73605
760.51        76.52166
760.93        76.57025
761.34        76.07908
761.76        76.59926
762.18        76.35294
762.59        75.87034
763.01        75.56236
763.42        76.30582
763.84        76.88604
764.26        77.35678
764.67        77.23291
765.09        76.79713
765.50        77.10987
765.92        78.01248
766.33        78.35149
766.75        77.93244
767.16        77.23343
767.58        76.47566
768.00        75.97782
768.41        75.96404
768.83        76.50202
769.24        77.35065
769.66        77.97465
770.07        78.18901
770.49        78.01146
770.90         77.6377
771.32        77.64433
771.73        78.01555
772.15        78.15241
772.56        78.01679
772.97        77.85184
773.39        77.62945
773.80        77.55692
774.22        77.19267
774.63        76.85998
775.05        76.54962
775.46        76.54082
775.88        76.84465
776.29        77.42178
776.70        78.03373
777.12        78.30217
777.53        78.14525
777.95        77.63051
778.36        77.02322
778.77        76.78083
779.19        77.02106
779.60        77.66438
780.02        78.35954
780.43        78.76675
780.84         78.7961
781.26        78.03837
781.67        76.99182
782.09        77.74619
782.50        79.78344
782.91        79.93332
783.33        78.34122
783.74        77.89599
784.15        78.69181
784.57        79.12996
784.98        79.03275
785.39        78.68221
785.81        78.17879
786.22        77.90438
786.63         77.9168
787.04        77.91375
787.46        77.90417
787.87        78.10205
788.28        78.48238
788.70         78.8186
789.11        78.99104
789.52        79.28346
789.93        79.59699
790.35        79.39429
790.76        78.83989
791.17        78.84225
791.58        79.35102
792.00        79.34931
792.41        78.81129
792.82         78.6329
793.23        78.73299
793.65        78.16815
794.06          77.346
794.47         77.5396
794.88        78.45984
795.29        80.01515
795.71        79.92537
796.12         79.3904
796.53        79.80201
796.94        79.22535
797.35        78.47631
797.76        78.27122
798.18        78.62766
798.59        78.81763
799.00        78.77644
799.41        79.02208
799.82        79.46313
800.23        79.67439
800.64        79.59928
801.06        79.32123
801.47        79.02142
801.88        78.93059
802.29        79.10345
802.70         79.4418
803.11        79.80067
803.52        79.94666
803.93        79.83127
804.34        79.55332
804.75        79.20606
805.17        79.00195
805.58        79.01845
805.99        78.96352
806.40        78.92006
806.81        79.50448
807.22        80.32424
807.63        80.67105
808.04        79.27441
808.45        78.99489
808.86        79.58144
809.27        80.36652
809.68        81.09045
810.09        81.51791
810.50        81.53029
810.91        81.27988
811.32        80.90302
811.73        80.48051
812.14        80.07143
812.55        79.81091
812.96        79.67286
813.37        79.24511
813.78         78.6974
814.19        78.87215
814.60         79.5739
815.01        79.81713
815.42        79.52409
815.83        79.16879
816.24        78.92395
816.65        78.89026
817.05        79.14628
817.46        79.60938
817.87        80.10535
818.28        80.32114
818.69        80.20763
819.10        79.86037
819.51        79.47655
819.92        79.48366
820.33        79.99358
820.74        80.63441
821.14        81.26439
821.55        82.14695
821.96        82.95964
822.37        82.62152
822.78        81.38295
823.19        80.71095
823.60        80.78903
824.00        80.88043
824.41        80.82249
824.82        80.80323
825.23        80.78301
825.64        80.73791
826.04         80.7328
826.45        80.80604
826.86        80.97095
827.27        81.20488
827.68         81.4173
828.08        81.48891
828.49        81.32807
828.90         80.9997
829.31        80.62488
829.72         80.4196
830.12        80.46517
830.53         80.6673
830.94        80.91204
831.35         80.9851
831.75        80.86471
832.16        80.58267
832.57        80.27226
832.97        80.13609
833.38        80.20756
833.79        80.40653
834.20        80.66294
834.60        80.86639
835.01        80.99243
835.42        81.09234
835.82        81.13071
836.23        80.98521
836.64        80.68069
837.04        80.24191
837.45        79.84566
837.86         79.8323
838.26        80.27821
838.67        81.05703
839.08        81.89695
839.48        82.27328
839.89        82.04362
840.29        81.39935
840.70        80.68175
841.11        80.31579
841.51        80.42573
841.92        80.80823
842.33        81.38112
842.73        82.00953
843.14        82.50039
843.54         82.9707
843.95        83.22531
844.35        83.02917
844.76        82.39096
845.17        81.42184
845.57         80.4389
845.98        79.95708
846.38        80.09169
846.79        80.70245
847.19        81.62193
847.60        82.37165
848.00        82.82806
848.41         83.0276
848.81        83.10623
849.22        83.20104
849.62        83.40226
850.03        83.59125
850.43         83.7325
850.84        83.66294
851.24        83.42171
851.65        83.02743
852.05        82.66059
852.46        82.47765
852.86        82.52768
853.27        82.75793
853.67        83.01807
854.07        83.25355
854.48        83.38591
854.88        83.41866
855.29        83.30324
855.69        83.21042
856.10        83.08524
856.50        82.86032
856.90        82.54495
857.31        82.48746
857.71        82.68208
858.12        82.47688
858.52        82.00541
858.92        81.86839
859.33        82.07704
859.73        82.31928
860.13        82.54233
860.54        82.83697
860.94        83.22475
861.34        83.59502
861.75        83.82372
862.15        83.83672
862.55        83.58067
862.96        83.12663
863.36        82.58258
863.76        82.09024
864.17        81.72629
864.57        81.50259
864.97         81.4655
865.38        81.65019
865.78        82.08791
866.18        82.68423
866.58        83.28763
866.99        83.62442
867.39        83.65092
867.79        83.39705
868.19        82.85036
868.60        81.99335
869.00        80.85068
869.40        79.48033
869.80        78.23339
870.21        77.68713
870.61        78.02457
871.01        79.04036
871.41        80.22924
871.81        80.76543
872.22        80.46818
872.62        79.60136
873.02        78.52477
873.42        77.98194
873.82         78.0175
874.22        78.04044
874.63        78.09595
875.03        78.37997
875.43        78.82584
875.83        80.08475
876.23        80.10623
876.63        79.84452
877.03        78.96042
877.44        77.48701
877.84        120.7983
878.24        77.80864
878.64        78.81702
879.04        81.52891
879.44           79.29
879.84        77.78944
880.24        80.34582
880.64        79.98351
881.04        77.39733
881.44         75.7448
881.84        75.61188
882.24        76.47566
882.65        77.73561
883.05        78.31194
883.45        77.83667
883.85        76.88245
884.25        75.97729
884.65        75.70081
885.05        76.20302
885.45        77.25553
885.85        78.43871
886.25        79.07624
886.65        78.96863
887.05        78.33932
887.45        77.54831
887.85        77.12173
888.25        77.21316
888.65        77.68533
889.04        78.32071
889.44        78.66669
889.84        78.62262
890.24        78.29509
890.64        77.93951
891.04        77.93552
891.44        78.31877
891.84        78.92117
892.24        79.39479
892.64        79.16868
893.04        78.17473
893.44        76.73315
893.83         75.1876
894.23        74.04488
894.63         73.4164
895.03        73.12983
895.43        73.20442
895.83        73.67303
896.23        74.45412
896.63        75.53084
897.02        76.54794
897.42        76.83425
897.82        76.28194
898.22        75.09239
898.62        73.74315
899.01        72.98557
899.41        73.03479
899.81        73.63619
900.21         74.5367
900.61        75.34294
901.00        75.90008
901.40        76.29658
901.80        76.53848
902.20        76.61279
902.59          76.547
902.99        76.32441
903.39        75.96634
903.79        75.53274
904.18        75.06968
904.58        74.63428
904.98        74.37859
905.38          74.519
905.77         75.0613
906.17        75.94637
906.57        76.87229
906.96        77.39476
907.36        77.36184
907.76        76.85441
908.15        76.20795
908.55        75.92065
908.95        76.12907
909.34        76.74167
909.74        77.31544
910.14        77.08945
910.53        75.93093
910.93          74.192
911.33        72.58354
911.72        72.20704
912.12        73.22267
912.52        75.16306
912.91        77.32957
913.31        78.58665
913.70        78.69271
914.10        77.96467
914.49        76.69736
914.89        75.56377
915.29        74.89126
915.68        74.49564
916.08         74.4352
916.47        74.76732
916.87        75.40101
917.26        76.31194
917.66        77.23409
918.05        77.73978
918.45        77.69201
918.84        77.25513
919.24         76.5023
919.64        75.59919
920.03         74.6796
920.42        73.73526
920.82        73.10355
921.21        73.24409
921.61        74.14393
922.00        75.70324
922.40        77.31177
922.79        78.18869
923.19        78.09165
923.58        77.07069
923.98        75.49539
924.37        74.59901
924.77        74.87376
925.16        73.35459
925.55         74.7138
925.95        74.71865
926.34        74.73486
926.74        74.72357
927.13        74.83049
927.52        75.07876
927.92        75.44083
928.31        75.96004
928.70        76.45861
929.10        76.67809
929.49        76.56313
929.89        76.15549
930.28        75.77784
930.67        75.94774
931.07        76.71439
931.46        77.94452
931.85        79.13591
932.24        79.54827
932.64        79.01041
933.03        77.66477
933.42        75.96796
933.82        74.88943
934.21        74.72765
934.60        75.22508
934.99        75.74593
935.39        75.62137
935.78        74.73756
936.17        72.87599
936.56        70.32863
936.96        70.86914
937.35        70.33888
937.74        71.94935
938.13        73.65581
938.53        74.83733
938.92         75.4161
939.31        75.62933
939.70        75.64692
940.09        75.64299
940.49        75.71797
940.88        75.80843
941.27        75.93985
941.66        76.21073
942.05        76.60893
942.44        77.08325
942.84        77.57496
943.23        77.99765
943.62          78.281
944.01        78.48664
944.40        78.45564
944.79        77.93626
945.18        76.91732
945.57        75.44463
945.97         74.0227
946.36        73.52272
946.75        74.19206
947.14        75.71415
947.53        77.35964
947.92        78.12298
948.31        77.82668
948.70        76.77818
949.09        75.44716
949.48        74.66647
949.87         74.6989
950.26         75.2642
950.65        76.06312
951.04        76.60658
951.43        76.71989
951.82        76.59158
952.21        76.29723
952.60        75.93094
952.99        75.56796
953.38        75.16367
953.77        74.81826
954.16        74.71764
954.55        74.87637
954.94        75.23772
955.33        75.66483
955.72        75.90985
956.11        75.90171
956.50        75.71886
956.89        75.38731
957.28        74.99321
957.66        74.62885
958.05        74.22011
958.44        73.92477
958.83        73.93622
959.22        74.25558
959.61        74.86135
960.00        75.44902
960.39        75.46358
960.78        74.77911
961.16        73.52348
961.55        72.23521
961.94        71.62521
962.33        71.85045
962.72        72.72903
963.11        73.75753
963.49        74.08504
963.88          73.409
964.27        72.03535
964.66        70.56049
965.04        69.95376
965.43         70.4468
965.82        71.74911
966.21        73.28735
966.60        74.13514
966.98        74.05276
967.37        73.29456
967.76        72.36945
968.15        72.06992
968.53        72.60323
968.92        73.61552
969.31        74.68855
969.69        75.14354
970.08        74.74475
970.47        73.78975
970.86        72.56872
971.24        71.50166
971.63        70.81066
972.02        70.37962
972.40        70.19864
972.79        70.27092
973.17        70.57815
973.56        71.03452
973.95        71.59677
974.33        72.13932
974.72        72.48881
975.11        72.68586
975.49        72.62036
975.88        72.14021
976.26        71.28835
976.65        70.16874
977.04        69.07553
977.42        68.52165
977.81        68.64815
978.19        69.29126
978.58        70.23938
978.96        71.14832
979.35         71.7832
979.74         72.3298
980.12        72.68326
980.51        72.42856
980.89        71.70206
981.28        70.55975
981.66        69.57736
982.05        69.61456
982.43        70.72734
982.82        72.62565
983.20        74.72279
983.59        75.62934
983.97        75.03096
984.35        73.23401
984.74        70.93113
985.12        69.11347
985.51        68.09542
985.89        67.62901
986.28        67.50468
986.66        67.42808
987.04        67.21095
987.43        67.07317
987.81        66.93757
988.20        66.67448
988.58        66.20686
988.96        65.43584
989.35        64.46188
989.73        63.82082
990.12        63.78489
990.50        64.35384
990.88        65.07013
991.27        65.37273
991.65        65.31989
992.03        65.03433
992.42        64.94359
992.80        65.78249
993.18        67.63541
993.56        70.01419
993.95        72.22307
994.33        73.71691
994.71        74.22455
995.10        73.95097
995.48        73.14651
995.86        72.10561
996.24        70.97819
996.63        69.73604
997.01        68.37267
997.39        67.07268
997.77        66.08099
998.15         65.4599
998.54        65.38513
998.92        66.00121
999.30        67.34192
999.68        69.60926
1000.06        72.15836
1000.45        72.71307
1000.83        70.54522
1001.21        66.74504
1001.59        63.27794
1001.97        61.70501
1002.35         61.9049
1002.73        63.38268
1003.12        65.47543
1003.50        66.72391
1003.88        66.28062
1004.26        64.70507
1004.64        62.56434
1005.02        60.57344
1005.40        59.00562
1005.78        57.60662
1006.16        56.76982
1006.54        57.29868
1006.92        59.04995
1007.30        61.41581
1007.69        63.60746
1008.07        65.07629
1008.45        65.76653
1008.83        65.91049
1009.21         65.1908
1009.59        63.09712
1009.97        59.69821
1010.35        55.36822
1010.73        52.10246
1011.11        51.93443
1011.49        54.58045
1011.86        59.36937
1012.24        63.73252
1012.62        65.23975
1013.00        63.76467
1013.38        60.34821
1013.76        56.23429
1014.14        53.67541
1014.52        53.40363
1014.90        54.57613
1015.28        56.67006
1015.66        58.84922
1016.04        60.71199
1016.41        62.77372
1016.79        64.05154
1017.17        62.63316
1017.55        58.59377
1017.93        53.10629
1018.31        48.42027
1018.69        46.62771
1019.06        47.58294
1019.44        50.49136
1019.82        54.19632
1020.20        55.71101
1020.58         53.7191
1020.95        49.18091
1021.33        43.34012
1021.71        36.98812
1022.09        29.53349
1022.46        17.58306
1022.84        1.585358
1023.22       -1.541059
1023.60        15.59283
1023.97        34.23972
1024.35        44.85295
1024.73        48.97245
