SpectraSmart Spectrum 2.9.0.0
--------- Device Information -----------
Spectrum Name :  反射率_0
Saving Time :  2024/04/20 01:02:03
Spectro-Module Model Name : SE2030-DUVN
Spectro-Module Serial Number : OS361AC55029948
Wavelength Start : 200
Wavelength End : 1025
Wavelength Unit : Wavelength(nm)
Spectrum Unit : Reflectance(%)
-----------Spectrum Setting ------------
Integration Time : 30ms
Average : 10
Boxcar : 0
Background removal :  enabled
linearity correction :  enabled
SC :  disabled
Intensity correction :  disabled
DWT denoise :  enabled
savitzky-golay :  disabled
FFT :  disabled
Running average :  disabled
Kalman :  disabled
High pass :  disabled
---------------BEGIN--------------------
Wavelength(nm)             Reflectance(%)
200.29               0
200.75        80.06441
201.21        81.08434
201.67        84.87991
202.13        92.53756
202.58        104.2795
203.04        120.4079
203.50        135.1717
203.96         135.635
204.42         122.598
204.88        105.0683
205.34        90.92001
205.80        83.90669
206.26        82.74583
206.72        86.17395
207.18        94.59348
207.64        104.2009
208.10        109.1409
208.55        110.1447
209.01        107.7034
209.47        103.9795
209.93        99.99754
210.39        95.07011
210.85        91.04259
211.31        90.30067
211.77         93.0503
212.23        99.63678
212.69        108.1063
213.14        110.3175
213.60        103.5781
214.06        94.04681
214.52        86.80608
214.98        84.49033
215.44        86.27336
215.90        90.70737
216.36        97.14494
216.81        103.2813
217.27        107.2436
217.73         110.023
218.19        111.0609
218.65        109.6278
219.11        106.0555
219.57        100.0248
220.02        94.31286
220.48        95.85301
220.94        106.4514
221.40         124.278
221.86         143.287
222.32         154.474
222.77        155.8309
223.23        150.5477
223.69        142.7365
224.15        138.5075
224.61        139.0429
225.06        141.6949
225.52        145.2071
225.98        148.1945
226.44        150.5233
226.90        152.7552
227.36        154.9419
227.81        156.6137
228.27        157.7636
228.73        158.2124
229.19        157.7853
229.65        156.3729
230.10        154.1538
230.56        151.9147
231.02        150.0608
231.48        149.3346
231.93        149.5843
232.39        150.5035
232.85        151.6986
233.31        152.7063
233.77        153.3151
234.22        153.8001
234.68        153.5915
235.14        151.7276
235.60        148.2615
236.05        143.5173
236.51        138.9774
236.97        136.8699
237.43        137.6975
237.88        141.6654
238.34        146.9353
238.80        149.1416
239.26        145.4142
239.71        136.9736
240.17        126.2486
240.63        117.4042
241.08        111.6741
241.54        108.0501
242.00        105.9783
242.46        104.1616
242.91        101.9761
243.37        99.29449
243.83        96.71925
244.28        96.94582
244.74        101.2384
245.20        107.6153
245.66         112.231
246.11        112.8253
246.57        108.8531
247.03          99.985
247.48        86.28178
247.94        76.58622
248.40        75.93523
248.85        79.14058
249.31        82.66133
249.77        85.08865
250.22        86.68163
250.68        88.27895
251.14        89.98017
251.59        91.45107
252.05        92.62636
252.51        93.62677
252.96        94.61783
253.42        96.24976
253.88        98.70801
254.33        101.5105
254.79        105.3427
255.25        110.6271
255.70        116.8668
256.16        123.4009
256.62        129.3442
257.07         133.719
257.53        136.7779
257.99        138.7894
258.44        138.8373
258.90          137.13
259.35        133.9074
259.81        131.1528
260.27        129.2873
260.72        128.7383
261.18        129.7902
261.63         131.206
262.09        133.0514
262.55        134.4594
263.00        134.9535
263.46        135.1529
263.91        134.4746
264.37         133.063
264.83        130.9088
265.28        128.0887
265.74        125.5309
266.19        123.6769
266.65         122.876
267.11        122.7189
267.56        122.7917
268.02        122.6391
268.47        122.0343
268.93        121.1729
269.38        120.1134
269.84        119.1546
270.30        118.3436
270.75         117.553
271.21        116.7135
271.66        115.6416
272.12        114.3335
272.57        112.8137
273.03         111.242
273.48        109.6937
273.94        108.3327
274.39        107.0631
274.85        105.9264
275.31        104.7675
275.76        103.4982
276.22        102.2255
276.67         100.942
277.13        99.92601
277.58        99.05115
278.04        98.33746
278.49        97.45527
278.95        96.20886
279.40        94.46999
279.86         92.5532
280.31        90.54835
280.77        88.91274
281.22        87.58557
281.68        86.53917
282.13        85.61174
282.59        84.75571
283.04        83.84839
283.50        82.98663
283.95        82.03755
284.41        80.96795
284.86        79.70507
285.32        78.35771
285.77        76.96583
286.22        75.74459
286.68        74.78169
287.13        73.96774
287.59        73.30585
288.04          72.643
288.50        71.98463
288.95        71.28805
289.41        70.59541
289.86        69.85083
290.32        69.11662
290.77        68.36173
291.22        67.62823
291.68        66.95016
292.13         66.3167
292.59        65.77122
293.04         65.3214
293.50        65.03558
293.95        64.89764
294.40        64.89314
294.86        64.98206
295.31        65.09784
295.77        65.21797
296.22        65.34553
296.68        65.47227
297.13        65.57806
297.58        65.66185
298.04        65.72669
298.49        65.78423
298.95        65.91428
299.40        66.09782
299.85        66.31709
300.31        66.53018
300.76        66.63391
301.21        66.62663
301.67        66.58813
302.12        66.50368
302.58        66.46734
303.03        66.45649
303.48        66.48292
303.94        66.60523
304.39        66.84748
304.84        67.21249
305.30        67.66202
305.75        68.06698
306.20        68.28416
306.66        68.30688
307.11        68.15025
307.57        67.90416
308.02        67.59227
308.47        67.27776
308.93        66.95018
309.38        66.64671
309.83        66.50298
310.29        66.52687
310.74        66.68249
311.19        66.80846
311.65        66.63651
312.10         66.1157
312.55        65.33652
313.00        64.53652
313.46        64.08202
313.91        64.02707
314.36         64.2709
314.82        64.58093
315.27        64.61052
315.72        64.25566
316.18        63.65656
316.63        62.97417
317.08        62.47689
317.53        62.23344
317.99        62.14341
318.44        62.12449
318.89        62.03146
319.35        61.81475
319.80        61.52992
320.25        61.21036
320.70        60.90589
321.16         60.6269
321.61        60.35838
322.06         60.0808
322.51        59.77946
322.97        59.44007
323.42        59.08471
323.87        58.72219
324.32        58.37158
324.78        58.03213
325.23        57.73173
325.68        57.43705
326.13        57.10506
326.59        56.73055
327.04        56.35393
327.49        56.03811
327.94        55.89881
328.39        55.94784
328.85        56.11257
329.30        56.34036
329.75        56.44143
330.20        56.35699
330.66        56.11863
331.11        55.80584
331.56        55.47745
332.01        55.17355
332.46        54.87752
332.92        54.62127
333.37        54.50245
333.82        54.52723
334.27         54.6945
334.72         54.9309
335.17        55.09834
335.63        55.13547
336.08        55.08726
336.53        55.00472
336.98        55.01588
337.43        55.14622
337.88        55.34956
338.34        55.51455
338.79        55.51643
339.24        55.30764
339.69        54.94304
340.14        54.54348
340.59         54.3053
341.05        54.27741
341.50         54.4136
341.95        54.61161
342.40        54.71202
342.85        54.67337
343.30         54.5493
343.75        54.40282
344.20        54.33421
344.66        54.36607
345.11        54.43982
345.56        54.52451
346.01        54.57259
346.46        54.56308
346.91        54.52272
347.36        54.43129
347.81        54.24959
348.26        53.99187
348.72        53.69833
349.17         53.4213
349.62         53.3126
350.07        53.39748
350.52        53.61206
350.97        53.87983
351.42        54.08709
351.87        54.18646
352.32        54.20192
352.77        54.10498
353.22        53.85598
353.67        53.47446
354.13        53.00462
354.58        52.51408
355.03        52.16151
355.48        51.98722
355.93        51.95695
356.38        52.01594
356.83        52.06829
357.28        52.07098
357.73        52.03477
358.18        51.95321
358.63        51.82167
359.08        51.64177
359.53        51.41174
359.98        51.13081
360.43        50.80162
360.88        50.43404
361.33        50.03714
361.78        49.65387
362.23        49.35119
362.68        49.14196
363.13        49.00501
363.58        48.88108
364.03        48.67462
364.48          48.355
364.93        47.93861
365.38         47.4671
365.83        47.02039
366.28        46.62987
366.73        46.28236
367.18         45.9464
367.63        45.56888
368.08        45.14485
368.53        44.70327
368.98         44.2914
369.43        43.97144
369.88        43.75231
370.33        43.61156
370.78        43.49864
371.23         43.3329
371.68        43.09443
372.13        42.80488
372.58        42.51754
373.03        42.32559
373.48        42.24556
373.93        42.23322
374.38        42.23066
374.83        42.15094
375.28        41.96706
375.72        41.69925
376.17        41.38102
376.62        41.02678
377.07        40.66384
377.52        40.29565
377.97         39.9678
378.42        39.74997
378.87        39.64684
379.32        39.63235
379.77        39.64972
380.22        39.60661
380.67        39.47768
381.11        39.29338
381.56        39.05538
382.01        38.80203
382.46        38.54932
382.91        38.27511
383.36        38.01362
383.81        37.81514
384.26        37.68339
384.71        37.62355
385.15        37.54139
385.60        37.30418
386.05        36.89527
386.50        36.35984
386.95        35.86091
387.40        35.65674
387.85        35.78397
388.29        36.13285
388.74        36.51869
389.19        36.63931
389.64        36.43419
390.09        35.98321
390.54        35.45411
390.98        35.10762
391.43        35.03688
391.88        35.14175
392.33        35.26532
392.78        35.18217
393.23        34.87008
393.67         34.4077
394.12        33.99484
394.57        33.79053
395.02        33.82777
395.47        34.03765
395.91        34.32486
396.36        34.48629
396.81        34.47151
397.26        34.33033
397.71        34.14494
398.15        34.01578
398.60        34.00806
399.05        34.06297
399.50        34.11451
399.95        34.07166
400.39        33.91652
400.84        33.67241
401.29        33.41635
401.74        33.28749
402.18        33.32644
402.63         33.4817
403.08        33.63812
403.53        33.60613
403.97        33.35167
404.42        32.95407
404.87        32.54702
405.32        32.35182
405.76        32.41433
406.21        32.65678
406.66        32.95891
407.11        33.13211
407.55        33.12648
408.00        33.01022
408.45        32.83399
408.90        32.60277
409.34        32.38759
409.79        32.33749
410.24        32.40365
410.68        32.37428
411.13        32.24242
411.58        32.12807
412.03        32.05235
412.47        32.00422
412.92        31.98338
413.37        31.98656
413.81        32.01706
414.26        32.10008
414.71        32.22456
415.15        32.39075
415.60        32.52483
416.05        32.54744
416.49        32.43777
416.94         32.2154
417.39        31.95749
417.83        31.78808
418.28        31.74516
418.73        31.79297
419.17        31.85233
419.62        31.79348
420.07        31.59806
420.51        31.31554
420.96        31.04692
421.41        30.91558
421.85        30.93833
422.30        31.08679
422.74        31.28231
423.19        31.45749
423.64        31.57472
424.08        31.66735
424.53        31.71651
424.98        31.74116
425.42        31.75265
425.87        31.73627
426.31        31.69186
426.76        31.63217
427.21        31.54843
427.65        31.43624
428.10        31.32464
428.54        31.23995
428.99        31.20213
429.44        31.29624
429.88        31.40792
430.33        31.24526
430.77        30.86657
431.22        30.67288
431.66        30.70871
432.11        30.83963
432.56        31.02205
433.00        31.31721
433.45        31.53409
433.89        31.41722
434.34        31.10344
434.78        30.89639
435.23        30.74074
435.67        31.49153
436.12        30.76213
436.57        30.62012
437.01        30.41891
437.46        30.37188
437.90        30.53337
438.35        30.31234
438.79        30.65386
439.24        30.65001
439.68        30.58322
440.13        30.23329
440.57        29.82319
441.02        30.10937
441.46        30.82297
441.91        31.14746
442.35         30.2524
442.80        29.91566
443.24        29.89237
443.69        29.85776
444.13         29.7855
444.58        29.71063
445.02        29.65334
445.47        29.75916
445.91        29.96439
446.36        30.02436
446.80        29.90518
447.24        29.71903
447.69        29.53556
448.13        29.40257
448.58        29.35194
449.02        29.35469
449.47        29.37965
449.91         29.3683
450.36        29.31285
450.80        29.23021
451.25        29.14897
451.69        29.08271
452.13        29.04837
452.58        29.03427
453.02        29.03926
453.47        29.07484
453.91        29.13436
454.36        29.20759
454.80        29.27373
455.24        29.28266
455.69        29.23387
456.13        29.14087
456.58        29.04095
457.02         28.9186
457.46        28.81296
457.91        28.77386
458.35        28.78765
458.79        28.81153
459.24        28.83059
459.68        28.90194
460.13        29.06929
460.57        29.09761
461.01        28.94399
461.46        29.43296
461.90        29.44699
462.34        29.07819
462.79        29.30966
463.23        29.13735
463.68        29.01152
464.12        28.90423
464.56         29.0497
465.01         29.2468
465.45        29.41672
465.89        29.46978
466.34        29.39767
466.78        29.15223
467.22        28.85434
467.67        28.85022
468.11        29.11234
468.55        29.18352
468.99         29.0444
469.44        29.02656
469.88        29.12774
470.32        29.13927
470.77        29.06941
471.21        29.04103
471.65        29.06597
472.10        29.10406
472.54        29.14189
472.98        29.21331
473.42        29.30894
473.87        29.33868
474.31        29.31316
474.75        29.43222
475.20        29.63837
475.64        29.60149
476.08        29.38672
476.52        29.35647
476.97        29.52488
477.41         29.7162
477.85        29.85989
478.29        29.92944
478.74        29.91131
479.18        29.76622
479.62        29.59955
480.06        29.58328
480.50        29.71115
480.95         29.8019
481.39         29.8153
481.83        29.82792
482.27        29.83555
482.72        29.80793
483.16        29.77794
483.60        29.79497
484.04        29.87234
484.48        30.05256
484.93        30.35616
485.37        30.37348
485.81        30.54518
486.25        30.67167
486.69        32.24215
487.14        31.35845
487.58        30.40014
488.02        31.17957
488.46        30.89629
488.90        31.17087
489.34         30.8333
489.79        30.91152
490.23        31.31615
490.67        31.45966
491.11        31.37928
491.55        31.38896
491.99        31.49484
492.43        31.52555
492.88        31.48464
493.32        31.44422
493.76        31.45021
494.20        31.54326
494.64        31.73387
495.08        32.03268
495.52        32.35857
495.96        32.53737
496.41        32.58054
496.85        32.60929
497.29        32.67107
497.73        32.86237
498.17        33.14404
498.61        33.23932
499.05        33.17406
499.49         33.2933
499.93        33.61196
500.37        33.83332
500.82        33.95395
501.26        34.25635
501.70        34.65296
502.14        34.67381
502.58        34.38667
503.02        34.29524
503.46        34.43848
503.90        34.55837
504.34        34.61023
504.78        34.63749
505.22         34.6297
505.66        34.58256
506.10         34.5389
506.54        34.56176
506.98        34.66484
507.42        34.83357
507.86        35.01756
508.30        35.13367
508.74        35.16154
509.18        35.12253
509.62        35.07398
510.06        35.10653
510.50        35.24163
510.94        35.45515
511.38        35.67733
511.82        35.79541
512.26         35.7826
512.70         35.6701
513.14        35.54345
513.58        35.53207
514.02        35.65647
514.46         35.8804
514.90        36.11112
515.34        36.12523
515.78        35.96311
516.22        35.70557
516.66        35.48213
517.10        35.19057
517.54        34.86906
517.98        35.40884
518.42        35.40434
518.86        35.67685
519.30        35.78522
519.74        35.87912
520.18        35.94249
520.62        35.93122
521.06        35.86272
521.50        35.73573
521.93        35.58636
522.37        35.48488
522.81        35.44979
523.25        35.46679
523.69        35.51635
524.13        35.56458
524.57        35.59494
525.01        35.61042
525.45        35.60992
525.89        35.59086
526.32        35.55352
526.76        35.50446
527.20        35.43198
527.64        35.32475
528.08        35.18649
528.52        35.01917
528.96        34.87099
529.40         34.8128
529.83        34.84948
530.27        34.96759
530.71        35.07948
531.15        35.04959
531.59        34.85695
532.03        34.54869
532.46         34.2267
532.90        34.07475
533.34        34.12162
533.78        34.30548
534.22        34.53212
534.66        34.65604
535.09        34.63325
535.53        34.52231
535.97        34.36837
536.41        34.23803
536.85        34.15738
537.28        34.11876
537.72        34.12743
538.16        34.09077
538.60        34.16884
539.04        34.21889
539.47        34.26175
539.91        34.34209
540.35        34.47859
540.79        34.36894
541.22        34.47018
541.66        34.55836
542.10        34.79538
542.54        34.61326
542.97        34.92052
543.41        35.05858
543.85         35.2703
544.29        35.46521
544.72         35.6004
545.16        35.71432
545.60        35.79383
546.04        35.72403
546.47        35.61794
546.91        35.87578
547.35        36.41263
547.79        36.76057
548.22        36.85939
548.66        36.86575
549.10        36.84518
549.53        37.04384
549.97        37.47125
550.41        37.46741
550.84        37.72115
551.28        37.85722
551.72         38.0934
552.15        38.31349
552.59        38.51886
553.03        38.72773
553.46        38.90258
553.90        39.02994
554.34        39.10193
554.77        39.12211
555.21        39.13826
555.65        39.20995
556.08        39.34446
556.52        39.52271
556.96        39.70055
557.39        39.85675
557.83        39.96686
558.27        39.94736
558.70        39.85804
559.14        39.87695
559.57        40.01006
560.01        40.22356
560.45        40.44255
560.88         40.4933
561.32        40.43425
561.75        40.42578
562.19        40.62954
562.63        40.66727
563.06         40.6086
563.50        40.67838
563.93        40.84473
564.37        41.03474
564.80        41.04583
565.24        41.11795
565.68        41.18887
566.11        41.27098
566.55        41.39709
566.98         41.4911
567.42        41.51402
567.85        41.93008
568.29        41.65492
568.72        41.98313
569.16        42.53305
569.60        42.89793
570.03        43.00134
570.47         43.2709
570.90        43.50312
571.34        43.62295
571.77        43.34307
572.21        43.82165
572.64        43.99982
573.08        44.21831
573.51        43.88102
573.95        44.67756
574.38        45.22566
574.82        45.27941
575.25        45.29694
575.69        45.14245
576.12         45.0582
576.56        45.09549
576.99        45.23554
577.42        45.53692
577.86        45.45331
578.29        45.29469
578.73        46.14508
579.16          45.663
579.60        45.23857
580.03        45.07177
580.47        45.13406
580.90        45.00409
581.33        44.74619
581.77        44.72175
582.20        45.78534
582.64        45.20138
583.07        44.10296
583.51        44.30318
583.94        43.93123
584.37        43.78039
584.81          43.665
585.24        43.73587
585.68        43.99593
586.11         43.7305
586.54        43.54012
586.98        43.08323
587.41        43.55663
587.85        43.59866
588.28        43.44688
588.71        43.22483
589.15        43.00968
589.58        42.65662
590.01        42.69859
590.45        43.05947
590.88        43.01177
591.31         42.9445
591.75        42.60084
592.18        42.88902
592.61        42.83812
593.05        43.23927
593.48        43.02858
593.91        44.00294
594.35        43.49668
594.78        43.43591
595.21         43.6752
595.65        44.13955
596.08        44.14539
596.51        44.19238
596.94        44.17369
597.38        44.20223
597.81         44.3245
598.24        44.73351
598.68        45.34727
599.11        45.23286
599.54        46.82275
599.97         46.6025
600.41        46.22423
600.84        46.81892
601.27        47.46516
601.70        48.02841
602.14        48.15411
602.57        48.52436
603.00        49.09701
603.43        49.96711
603.87        50.07027
604.30         50.5715
604.73        51.20685
605.16        51.18951
605.60        51.79941
606.03        52.29084
606.46        52.79641
606.89        53.83258
607.32         54.1239
607.76        53.94902
608.19        54.79142
608.62        55.45781
609.05        55.62434
609.48        55.91115
609.92        56.18967
610.35        56.11435
610.78        57.52092
611.21        58.12029
611.64         57.7069
612.07        58.44696
612.50        58.49886
612.94        58.68073
613.37        59.28098
613.80         59.6975
614.23        60.09781
614.66        60.77054
615.09        61.11199
615.52        61.57305
615.96        61.87025
616.39        62.31627
616.82        62.59795
617.25        62.33181
617.68        62.72433
618.11        63.31792
618.54        63.73159
618.97        63.82915
619.40        63.46771
619.84        63.64906
620.27        63.28979
620.70        63.90992
621.13        64.93154
621.56        65.25854
621.99         65.0015
622.42        65.01341
622.85        65.40681
623.28        65.49244
623.71        65.27959
624.14        65.63148
624.57        65.39221
625.00        65.37344
625.43        65.74036
625.86        64.73859
626.29        64.93256
626.72         64.8868
627.15        64.68115
627.58        64.69544
628.01        64.59347
628.44        64.76649
628.87        64.55734
629.30        63.63681
629.73        63.38846
630.16        63.07951
630.59        62.75092
631.02        62.43011
631.45        61.98938
631.88        61.56448
632.31        61.12862
632.74        60.60071
633.17        60.00601
633.60        59.43485
634.03        58.90592
634.46        58.39705
634.89        57.88835
635.32        57.34705
635.75        56.77247
636.18        56.18926
636.61        55.62705
637.04        55.12412
637.47        54.68571
637.89        54.29865
638.32        53.93321
638.75        53.57586
639.18        53.21961
639.61        52.87836
640.04        52.53911
640.47        52.16441
640.90        51.75459
641.33        51.34662
641.76        50.99799
642.18        50.68159
642.61        50.60671
643.04        50.58872
643.47        50.63453
643.90        50.64862
644.33        50.60793
644.76        50.54161
645.18        50.47445
645.61        50.45289
646.04        50.49521
646.47        50.58133
646.90         50.7251
647.33        50.95454
647.75        51.26429
648.18         51.6346
648.61        52.02223
649.04        52.35677
649.47        52.63251
649.89        52.87415
650.32         53.1282
650.75         53.5151
651.18        54.09158
651.61        54.67978
652.03        55.29001
652.46        56.40423
652.89        57.82552
653.32        58.26321
653.74        57.86484
654.17        58.74057
654.60        59.33755
655.03        60.66528
655.46        59.57051
655.88        62.27473
656.31          63.637
656.74         73.4918
657.16        69.18786
657.59        62.73045
658.02        63.52086
658.45        65.20876
658.87        66.34891
659.30        66.86685
659.73        67.25802
660.15         68.7739
660.58        68.40295
661.01        68.39298
661.44        68.05328
661.86        68.48663
662.29        69.58298
662.72        70.65656
663.14        71.43275
663.57        71.40367
664.00        70.84055
664.42        70.80198
664.85        71.40402
665.27         71.9736
665.70        72.38182
666.13        72.77732
666.55        73.12872
666.98        73.38956
667.41        73.59457
667.83        73.79496
668.26        73.99571
668.69        74.19145
669.11        74.39022
669.54        74.59054
669.96        74.79659
670.39        75.05698
670.82        75.35751
671.24        75.54877
671.67        75.67657
672.09        75.98576
672.52        76.41513
672.94        76.69621
673.37        76.77838
673.80        76.63419
674.22        76.40071
674.65        76.38428
675.07        76.64877
675.50         77.0322
675.92         77.4213
676.35        77.64185
676.77        77.65021
677.20        77.53055
677.62         77.4058
678.05        77.39852
678.47        77.51656
678.90        78.04543
679.32        78.40631
679.75         78.7446
680.17        78.81609
680.60        79.36841
681.02        79.48895
681.45        79.28492
681.87        79.42812
682.30        79.51591
682.72        79.77975
683.15        79.94098
683.57        80.02193
684.00        80.05074
684.42        80.10099
684.85        80.47544
685.27        80.55156
685.70        80.84617
686.12        81.10445
686.54        81.30988
686.97        81.44831
687.39        81.40395
687.82        81.37357
688.24        81.53898
688.66        81.88348
689.09        81.98306
689.51        81.87692
689.94        81.95734
690.36        82.25138
690.78        82.43167
691.21        82.46704
691.63        82.67099
692.06        83.07934
692.48        82.95218
692.90        83.09707
693.33        83.65298
693.75        83.42227
694.17        83.61804
694.60        83.77679
695.02        83.62585
695.44        83.21236
695.87         83.2438
696.29        83.67884
696.71        83.51271
697.14         83.0234
697.56        83.62341
697.98        84.99419
698.41        85.94122
698.83        85.53472
699.25        85.08808
699.68        84.91739
700.10        84.74139
700.52        84.75298
700.94        84.95039
701.37        85.23776
701.79        85.50057
702.21        85.66122
702.64        85.76249
703.06        85.84711
703.48         86.0126
703.90        86.28343
704.33         86.5692
704.75        86.81213
705.17        86.98861
705.59        87.02648
706.01        86.74242
706.44        86.34562
706.86        86.29593
707.28        86.63388
707.70        87.27851
708.12        88.08514
708.55        88.09905
708.97         88.5006
709.39        88.36423
709.81        88.15084
710.23        87.98719
710.66        87.94761
711.08        87.98006
711.50        88.05057
711.92        88.16357
712.34        88.30769
712.76        88.50137
713.19        88.69646
713.61        88.87933
714.03        89.00299
714.45        89.07155
714.87        89.12868
715.29        89.25144
715.71        89.45172
716.13        89.70332
716.56        89.93494
716.98        90.11804
717.40        90.17683
717.82        90.20082
718.24        90.24311
718.66        90.16496
719.08        89.93812
719.50        90.45399
719.92         90.1432
720.34         90.2457
720.76        90.29333
721.19        90.33105
721.61         90.3632
722.03         90.3772
722.45         90.4146
722.87        90.44327
723.29        90.49211
723.71        90.58807
724.13        90.73223
724.55        90.94599
724.97        91.21642
725.39        91.43455
725.81        91.56525
726.23        91.95273
726.65        92.01585
727.07         92.2773
727.49        92.55978
727.91        92.86012
728.33        93.11646
728.75        93.24104
729.17        93.22678
729.59        93.09846
730.01        92.91036
730.43         92.8428
730.85        92.94894
731.27        93.00897
731.69        92.94357
732.10        93.58783
732.52        93.39957
732.94        93.57964
733.36        93.63905
733.78        93.69788
734.20        93.81854
734.62        93.63888
735.04        93.36367
735.46         93.9061
735.88        93.71941
736.30        93.13628
736.72        93.36806
737.13        93.65649
737.55        94.28198
737.97        94.87687
738.39        95.24496
738.81        94.90859
739.23        94.14888
739.65        94.15041
740.06        94.76038
740.48        95.23248
740.90        95.26489
741.32        94.39556
741.74        94.37611
742.16        94.56808
742.57        94.56339
742.99        94.90157
743.41        95.21651
743.83        95.44289
744.25        95.51585
744.67        95.47427
745.08        95.37551
745.50        95.25039
745.92        95.14011
746.34        95.01402
746.75        94.91563
747.17        94.87737
747.59        94.91084
748.01        95.17584
748.42         95.5643
748.84        95.57935
749.26        95.37012
749.68        95.47344
750.09        95.92603
750.51        96.68845
750.93        97.44972
751.35        97.31026
751.76         96.4332
752.18        96.03394
752.60        96.18683
753.01        96.18884
753.43        96.02525
753.85        96.07027
754.27        96.32325
754.68        96.76124
755.10        97.25737
755.52        97.29969
755.93        97.25079
756.35          97.087
756.77        96.99579
757.18        96.91813
757.60         97.3001
758.02        97.46537
758.43        97.29199
758.85        98.36206
759.26        98.35542
759.68        97.55623
760.10        97.87074
760.51        97.71545
760.93        97.21683
761.34        96.58087
761.76        97.13456
762.18        96.82269
762.59        96.39767
763.01         96.1328
763.42        97.57958
763.84        98.41807
764.26         98.8665
764.67        98.68292
765.09        98.18397
765.50        98.47085
765.92        99.39074
766.33        99.44942
766.75        98.60616
767.16         98.2001
767.58        98.25267
768.00        97.94937
768.41         97.5514
768.83        97.70693
769.24        98.80366
769.66         99.7212
770.07        100.2688
770.49        100.0147
770.90        99.20421
771.32        99.00919
771.73        99.45671
772.15        99.55647
772.56        99.30409
772.97        99.18253
773.39         99.1818
773.80        99.38175
774.22        99.59846
774.63        99.20404
775.05        98.41908
775.46         98.2637
775.88         98.8021
776.29        99.58051
776.70         100.255
777.12          100.49
777.53        100.1938
777.95        99.44267
778.36        98.59854
778.77        98.26819
779.19        98.59489
779.60        99.45359
780.02        100.4242
780.43        101.0524
780.84        101.1993
781.26        100.5216
781.67        99.50992
782.09        100.1717
782.50         102.035
782.91        102.0729
783.33        100.4637
783.74        100.0594
784.15        100.9532
784.57        101.5767
784.98        101.6774
785.39        101.4333
785.81        100.8764
786.22        100.2839
786.63        99.84577
787.04        99.58939
787.46        99.58198
787.87        99.91699
788.28        100.4696
788.70        100.9146
789.11        101.1623
789.52        101.2994
789.93        101.3859
790.35        101.5273
790.76        101.6973
791.17        101.7978
791.58        101.8448
792.00        101.6164
792.41        101.0904
792.82        101.5215
793.23        101.2234
793.65        100.6127
794.06        99.76334
794.47        100.0669
794.88        101.0163
795.29        103.3553
795.71        102.4836
796.12        101.5455
796.53        102.6329
796.94        102.0677
797.35        101.0951
797.76        100.8792
798.18        101.4554
798.59        101.8842
799.00        102.0023
799.41        101.9829
799.82        102.1095
800.23        102.1724
800.64        102.2541
801.06         102.172
801.47        102.0293
801.88        102.0238
802.29        102.1661
802.70        102.3589
803.11        102.5094
803.52        102.4739
803.93        102.2583
804.34        101.9721
804.75         101.649
805.17        101.4773
805.58        101.5574
805.99         101.321
806.40        101.0097
806.81        102.1824
807.22        104.2554
807.63        104.5217
808.04        103.1777
808.45        102.4022
808.86        102.9534
809.27        103.8121
809.68        104.7904
810.09         105.263
810.50         105.066
810.91        104.6826
811.32        104.3118
811.73        103.9215
812.14        103.5709
812.55        103.5182
812.96        103.6317
813.37        103.1247
813.78        102.2156
814.19        102.1919
814.60        102.9169
815.01        103.1635
815.42        102.8652
815.83        102.6771
816.24        102.6922
816.65        102.7447
817.05        102.8625
817.46        103.0404
817.87        103.2188
818.28        103.2395
818.69        103.0984
819.10        102.8469
819.51        102.6314
819.92        102.7839
820.33        103.3773
820.74        104.0782
821.14         104.768
821.55        105.7165
821.96        106.6204
822.37        106.4312
822.78        105.3625
823.19        104.7741
823.60        104.8273
824.00        104.8471
824.41        104.6621
824.82        104.4701
825.23        104.2582
825.64        104.0342
826.04        103.8815
826.45         103.854
826.86        103.9751
827.27        104.2074
827.68        104.5048
828.08        104.8304
828.49        105.0625
828.90        105.2387
829.31        105.3221
829.72          105.26
830.12        105.0781
830.53        104.7683
830.94        104.4119
831.35        104.0908
831.75        103.8711
832.16        103.6973
832.57        103.6315
832.97        103.7416
833.38        103.9841
833.79         104.322
834.20        104.6639
834.60        104.8597
835.01        104.8927
835.42         104.825
835.82        104.6703
836.23        104.3887
836.64        104.0394
837.04        103.6204
837.45        103.3141
837.86        103.4762
838.26        104.1729
838.67        105.2609
839.08        106.3674
839.48        106.7796
839.89        106.3224
840.29        105.2651
840.70        104.1281
841.11        103.5736
841.51        103.7815
841.92        104.4589
842.33         105.447
842.73        106.4687
843.14        107.2332
843.54        107.9195
843.95        108.2704
844.35        107.9801
844.76        107.0733
845.17        105.6828
845.57        104.2748
845.98        103.6125
846.38        103.8538
846.79        104.7938
847.19        106.1331
847.60        107.0894
848.00        107.4683
848.41        107.3881
848.81        107.1178
849.22        106.9898
849.62        107.1683
850.03        107.4585
850.43        107.7955
850.84        107.9054
851.24        107.8017
851.65        107.5018
852.05         107.214
852.46        107.1055
852.86        107.2274
853.27        107.5417
853.67        107.8263
854.07        107.9428
854.48        107.8055
854.88        107.4798
855.29        107.0363
855.69        106.8295
856.10        106.8246
856.50        107.0611
856.90        107.3126
857.31        107.2456
857.71        106.8906
858.12           106.3
858.52        105.7425
858.92        105.5036
859.33        105.6251
859.73        106.0836
860.13        106.7251
860.54        107.2692
860.94         107.683
861.34        107.9354
861.75        107.9953
862.15         107.955
862.55        107.7961
862.96        107.5162
863.36        107.1444
863.76        106.6799
864.17        106.1707
864.57        105.6884
864.97        105.3595
865.38         105.329
865.78        105.6691
866.18        106.2521
866.58        106.9049
866.99        107.3042
867.39        107.4129
867.79        107.2733
868.19         106.852
868.60        106.0872
869.00        105.0064
869.40        103.6518
869.80        102.4316
870.21        102.0294
870.61        102.6431
871.01        104.0072
871.41        105.4873
871.81        106.0588
872.22         105.489
872.62        104.1423
873.02        102.5536
873.42        101.5734
873.82        101.4744
874.22        102.0313
874.63        102.9995
875.03        103.9661
875.43        104.6516
875.83        105.0001
876.23        105.5495
876.63        106.1761
877.03        107.0004
877.44        107.8433
877.84        92.66343
878.24        107.6461
878.64        106.8765
879.04        105.5324
879.44        105.4825
879.84        104.7359
880.24        102.9738
880.64        101.7236
881.04        100.8245
881.44        100.5521
881.84        101.1156
882.24        102.4188
882.65        103.7709
883.05        104.3541
883.45        103.8458
883.85        102.4294
884.25        100.8786
884.65        100.3971
885.05        101.2268
885.45         103.014
885.85        105.0225
886.25         105.995
886.65        105.6011
887.05        104.2728
887.45        102.7289
887.85         102.035
888.25        102.4605
888.65        103.6705
889.04        105.1882
889.44        106.0812
889.84        106.0981
890.24        105.5081
890.64        104.6921
891.04        104.2061
891.44        104.1622
891.84        104.3292
892.24        104.4428
892.64        104.0859
893.04        103.2191
893.44        102.1527
893.83        101.0534
894.23        100.1909
894.63        99.62901
895.03        99.26603
895.43        99.29517
895.83         100.054
896.23        101.5015
896.63        103.4623
897.02        105.3866
897.42         106.245
897.82        105.8116
898.22        104.4063
898.62        102.5342
899.01        100.9818
899.41        100.0903
899.81        99.65359
900.21        99.66887
900.61        100.1135
901.00         100.896
901.40        102.0032
901.80        103.2024
902.20        104.0604
902.59        104.4597
902.99          104.45
903.39        104.1366
903.79        103.7435
904.18        103.3593
904.58        102.9534
904.98        102.6613
905.38        102.7003
905.77         103.072
906.17        103.7767
906.57        104.4826
906.96        104.6786
907.36        104.2415
907.76        103.2955
908.15        102.2808
908.55        101.8555
908.95        102.1828
909.34        103.1162
909.74        104.1086
910.14        104.2503
910.53        103.3346
910.93        101.7513
911.33        100.1772
911.72        99.66676
912.12        100.4203
912.52         101.976
912.91        103.7702
913.31        104.8986
913.70        105.1603
914.10        104.7981
914.49        103.9767
914.89        103.0119
915.29        102.1587
915.68        101.3567
916.08        100.8335
916.47        100.8356
916.87        101.3443
917.26        102.2363
917.66        103.2537
918.05        103.9951
918.45        104.2792
918.84        104.2614
919.24        103.8487
919.64        102.9398
920.03        101.6327
920.42        100.0235
920.82        98.66787
921.21        98.33957
921.61        99.12248
922.00        100.8464
922.40        102.8125
922.79        104.0723
923.19        104.2302
923.58        103.5656
923.98        102.5111
924.37         101.727
924.77        101.5315
925.16        101.8879
925.55        102.1986
925.95        102.2831
926.34        101.9595
926.74         101.405
927.13        100.9783
927.52          101.14
927.92         101.948
928.31        103.2804
928.70        104.6981
929.10        105.4337
929.49        105.2978
929.89        104.4976
930.28        103.5238
930.67        103.1603
931.07        103.5746
931.46        104.5203
931.85        105.6222
932.24         106.346
932.64        106.5056
933.03        106.2738
933.42        105.7008
933.82        104.9634
934.21        104.1865
934.60        103.3828
934.99        102.6148
935.39        101.8732
935.78        101.1418
936.17        100.5079
936.56        100.0348
936.96        99.88798
937.35        100.1366
937.74        100.6278
938.13         101.271
938.53        102.0039
938.92        102.8326
939.31        103.7612
939.70        104.5633
940.09        104.8081
940.49        104.4027
940.88        103.5425
941.27        102.6365
941.66        102.3113
942.05        102.6922
942.44        103.5798
942.84         104.695
943.23        105.6132
943.62        106.1299
944.01        106.3869
944.40        106.3934
944.79        106.1733
945.18        105.7649
945.57        105.0972
945.97        104.3703
946.36        104.0029
946.75        104.1069
947.14        104.5973
947.53        105.1129
947.92        105.1107
948.31        104.5162
948.70        103.5085
949.09        102.4301
949.48        101.8885
949.87        102.0535
950.26        102.7084
950.65        103.5692
951.04        104.1713
951.43        104.3338
951.82        104.1839
952.21        103.7859
952.60        103.2414
952.99        102.6434
953.38         101.998
953.77        101.3897
954.16         100.964
954.55        100.7579
954.94        100.7357
955.33         100.916
955.72        101.2966
956.11        101.8524
956.50        102.6048
956.89        103.3147
957.28        103.5511
957.66        103.2165
958.05        102.3702
958.44        101.4733
958.83        101.1582
959.22        101.5017
959.61        102.3375
960.00        103.1588
960.39        103.0511
960.78         101.819
961.16         99.7944
961.55        97.68863
961.94         96.4259
962.33        96.24162
962.72        96.85722
963.11        97.87019
963.49        98.60968
963.88        98.72482
964.27        98.46762
964.66        98.05164
965.04        97.82582
965.43         97.8977
965.82        98.16653
966.21        98.51382
966.60        98.77956
966.98        98.93662
967.37        99.00835
967.76        99.18944
968.15        99.75715
968.53        100.7327
968.92        101.8828
969.31        102.8964
969.69        103.2633
970.08        102.8085
970.47        101.7912
970.86        100.4298
971.24        99.05391
971.63         97.8961
972.02        96.93096
972.40        96.38854
972.79        96.60868
973.17        97.66154
973.56        99.28912
973.95        101.1701
974.33        102.6796
974.72        103.4291
975.11        103.5788
975.49        103.1145
975.88        102.0586
976.26        100.5821
976.65        98.79366
977.04        97.11243
977.42        96.27226
977.81        96.45584
978.19         97.4657
978.58        99.05638
978.96        100.8551
979.35        102.4991
979.74         104.151
980.12        105.3779
980.51         105.172
980.89        103.6098
981.28        101.0128
981.66        98.44302
982.05        97.46596
982.43        98.25126
982.82        100.3764
983.20        103.0518
983.59        104.4405
983.97         104.101
984.35        102.4278
984.74        100.2989
985.12        99.03353
985.51        98.98501
985.89        99.85485
986.28         101.052
986.66        101.6974
987.04        101.3289
987.43        100.4759
987.81        99.49841
988.20        98.88986
988.58        98.72858
988.96        98.84959
989.35        99.09434
989.73        99.52918
990.12        99.86342
990.50        100.2257
990.88        100.4099
991.27        100.2378
991.65        99.74417
992.03        98.97625
992.42        98.14854
992.80        97.84346
993.18        98.22203
993.56        99.07463
993.95         100.038
994.33        100.8781
994.71         101.353
995.10        101.4744
995.48        101.3556
995.86        101.1258
996.24        100.8762
996.63        100.6818
997.01        100.2803
997.39        99.01223
997.77        96.95905
998.15        94.48711
998.54        92.86565
998.92        93.45385
999.30        96.57754
999.68        102.5085
1000.06        109.8636
1000.45        112.9984
1000.83        109.5102
1001.21        101.9505
1001.59        94.56216
1001.97        90.73325
1002.35        90.37596
1002.73        92.39484
1003.12        95.86317
1003.50        98.90776
1003.88        100.0883
1004.26        99.95928
1004.64        98.96191
1005.02        97.69934
1005.40        96.46779
1005.78        95.03011
1006.16        93.44588
1006.54        92.19077
1006.92        91.57423
1007.30         91.5443
1007.69        92.22698
1008.07        93.92296
1008.45        96.89618
1008.83        101.8018
1009.21         108.632
1009.59        114.6294
1009.97        116.3916
1010.35        113.0663
1010.73        107.2743
1011.11        103.6977
1011.49        103.2669
1011.86        104.8949
1012.24        106.4849
1012.62        105.9127
1013.00        103.0154
1013.38        98.75154
1013.76        94.42574
1014.14        92.28227
1014.52        92.93923
1014.90        95.56728
1015.28        98.85271
1015.66        100.6662
1016.04        100.2482
1016.41        98.18467
1016.79         94.7373
1017.17         91.5954
1017.55        89.80984
1017.93        88.85571
1018.31        88.71117
1018.69        89.33546
1019.06        90.59612
1019.44        92.63562
1019.82        94.67754
1020.20        94.71795
1020.58        92.09048
1020.95        87.22596
1021.33        81.98344
1021.71        78.53307
1022.09         77.4775
1022.46        79.26302
1022.84         85.3351
1023.22        91.95379
1023.60         92.4221
1023.97         89.7821
1024.35        87.81387
1024.73        87.72745
