SpectraSmart Spectrum 2.9.0.0
--------- Device Information -----------
Spectrum Name :  反射率_0
Saving Time :  2024/04/20 01:00:24
Spectro-Module Model Name : SE2030-DUVN
Spectro-Module Serial Number : OS361AC55029948
Wavelength Start : 200
Wavelength End : 1025
Wavelength Unit : Wavelength(nm)
Spectrum Unit : Reflectance(%)
-----------Spectrum Setting ------------
Integration Time : 30ms
Average : 10
Boxcar : 0
Background removal :  enabled
linearity correction :  enabled
SC :  disabled
Intensity correction :  disabled
DWT denoise :  enabled
savitzky-golay :  disabled
FFT :  disabled
Running average :  disabled
Kalman :  disabled
High pass :  disabled
---------------BEGIN--------------------
Wavelength(nm)             Reflectance(%)
200.29               0
200.75        56.13002
201.21        56.68784
201.67        58.93412
202.13          62.866
202.58        68.31842
203.04        75.48772
203.50        82.28635
203.96        83.61865
204.42        79.43979
204.88        73.03349
205.34        67.42348
205.80        64.03542
206.26        62.23823
206.72        61.11658
207.18        60.51114
207.64         60.2797
208.10        60.35826
208.55        61.43963
209.01        61.76957
209.47        60.39407
209.93        57.68554
210.39        54.29434
210.85        51.30029
211.31        49.91924
211.77        50.20608
212.23         51.7846
212.69        54.50097
213.14          56.935
213.60        57.47409
214.06        57.32513
214.52        56.76124
214.98        55.94069
215.44        54.84428
215.90        52.90199
216.36        51.10991
216.81        51.84439
217.27        55.47578
217.73        61.19495
218.19        65.72538
218.65        64.57142
219.11        56.97588
219.57         43.5477
220.02        27.71567
220.48        18.74296
220.94         20.1751
221.40        30.23895
221.86        43.33512
222.32        50.63914
222.77        49.94278
223.23        44.13707
223.69        37.34044
224.15        35.35703
224.61        38.41642
225.06        43.48543
225.52        47.74743
225.98        49.00911
226.44        47.29224
226.90        43.71411
227.36        39.58511
227.81        37.12407
228.27         37.3006
228.73         39.0605
229.19        41.32703
229.65        42.88651
230.10        43.51888
230.56        43.67197
231.02        43.70852
231.48        44.05547
231.93        44.72609
232.39        45.52724
232.85        46.17271
233.31        46.27324
233.77        45.78419
234.22        44.90415
234.68        43.93742
235.14        43.28813
235.60        43.14185
236.05        43.39999
236.51        44.05432
236.97        45.12363
237.43        46.68934
237.88        49.07478
238.34        52.08112
238.80        54.92846
239.26         56.6968
239.71        57.05157
240.17        56.29618
240.63        55.76091
241.08        55.92579
241.54        56.54527
242.00        56.88375
242.46        55.36793
242.91        51.11609
243.37        43.21652
243.83        32.33207
244.28        25.71673
244.74        30.54113
245.20        45.23268
245.66        59.58611
246.11        64.88541
246.57         60.4248
247.03        46.95166
247.48        27.46581
247.94        20.37038
248.40        29.32092
248.85         41.6058
249.31        51.10283
249.77        56.84708
250.22        60.11096
250.68        62.49743
251.14        64.21563
251.59        64.75974
252.05        64.14733
252.51        62.46988
252.96        60.08725
253.42         58.3064
253.88        57.72903
254.33        58.00101
254.79         60.0563
255.25        64.48257
255.70        70.55616
256.16        77.33882
256.62        82.83085
257.07        84.78153
257.53        83.54703
257.99        80.15572
258.44        75.87095
258.90         73.1571
259.35         71.8098
259.81        71.56702
260.27        71.34948
260.72        70.26917
261.18          68.647
261.63        66.40263
262.09        64.45538
262.55        63.48442
263.00        63.40208
263.46         63.9832
263.91        64.27734
264.37        63.52595
264.83        61.71032
265.28        59.17217
265.74        56.87991
266.19        55.68417
266.65        55.74895
267.11         56.5383
267.56        57.40192
268.02        57.42573
268.47        56.41689
268.93          54.713
269.38        52.64152
269.84        50.95706
270.30        49.88228
270.75        49.21972
271.21        48.77106
271.66        48.21485
272.12        47.44116
272.57        46.54568
273.03        45.66166
273.48        44.88173
273.94        44.28458
274.39        43.78484
274.85        43.28718
275.31        42.60943
275.76        41.70685
276.22         40.6671
276.67        39.64897
277.13        39.01104
277.58        38.73114
278.04         38.7369
278.49        38.69175
278.95          38.206
279.40         37.1977
279.86        35.91402
280.31        34.61094
280.77        33.80647
281.22        33.50703
281.68        33.56927
282.13        33.72124
282.59        33.61743
283.04        33.16707
283.50        32.53933
283.95        31.85355
284.41        31.32556
284.86        30.98731
285.32        30.79432
285.77        30.69484
286.22        30.68985
286.68        30.75319
287.13        30.85684
287.59        30.96738
288.04        30.99552
288.50        30.94424
288.95        30.79457
289.41          30.597
289.86        30.35046
290.32        30.12176
290.77        29.91415
291.22        29.77577
291.68        29.73912
292.13        29.82009
292.59         30.0345
293.04        30.40207
293.50        30.96915
293.95        31.71184
294.40        32.59072
294.86        33.53028
295.31        34.42297
295.77        35.23878
296.22        36.00311
296.68        36.72594
297.13         37.4112
297.58        38.07787
298.04        38.72058
298.49        39.39127
298.95        40.21934
299.40        41.19214
299.85        42.26277
300.31        43.30907
300.76        44.12613
301.21        44.68208
301.67        45.08299
302.12        45.38838
302.58        45.76752
303.03        46.23733
303.48        46.76869
303.94        47.39657
304.39        48.12438
304.84        48.93671
305.30        49.81017
305.75        50.60838
306.20        51.15336
306.66        51.44004
307.11        51.51025
307.57        51.49202
308.02         51.4937
308.47        51.58567
308.93        51.72231
309.38         51.9108
309.83         52.2251
310.29        52.64308
310.74        53.13892
311.19        53.54276
311.65        53.57681
312.10        53.19934
312.55        52.51144
313.00        51.75859
313.46        51.32219
313.91        51.27485
314.36        51.52047
314.82        51.87185
315.27        52.04392
315.72        51.93503
316.18        51.65164
316.63        51.28238
317.08        50.98005
317.53        50.78551
317.99        50.62746
318.44        50.47304
318.89        50.26648
319.35        49.99049
319.80        49.68051
320.25        49.34376
320.70        48.98518
321.16         48.6067
321.61        48.21047
322.06        47.81398
322.51        47.45414
322.97        47.12929
323.42        46.84224
323.87        46.55111
324.32        46.19355
324.78        45.74952
325.23        45.25611
325.68        44.74681
326.13        44.28947
326.59        43.90834
327.04        43.61349
327.49         43.3825
327.94        43.18491
328.39        43.00233
328.85        42.81206
329.30        42.66362
329.75        42.57222
330.20        42.53127
330.66         42.5035
331.11        42.44526
331.56        42.22682
332.01        41.82687
332.46        41.28344
332.92        40.68789
333.37        40.22305
333.82         39.9466
334.27        39.83529
334.72        39.82509
335.17        39.79632
335.63        39.69422
336.08        39.55981
336.53        39.44072
336.98        39.43543
337.43        39.55433
337.88        39.75443
338.34        39.89518
338.79        39.80658
339.24        39.43684
339.69        38.84279
340.14          38.211
340.59        37.85406
341.05        37.83952
341.50        38.08628
341.95         38.3994
342.40         38.4698
342.85        38.23016
343.30        37.79375
343.75         37.3038
344.20        36.99406
344.66        36.92443
345.11        36.97844
345.56        37.10495
346.01        37.22527
346.46        37.28788
346.91        37.33152
347.36        37.26043
347.81        36.91565
348.26        36.30669
348.72        35.51791
349.17        34.73561
349.62        34.34783
350.07        34.44191
350.52        34.88483
350.97        35.47542
351.42        35.90686
351.87        36.07551
352.32        36.05412
352.77        35.87103
353.22        35.57922
353.67         35.2206
354.13        34.79628
354.58        34.33421
355.03        33.93074
355.48         33.6181
355.93        33.39719
356.38        33.25963
356.83        33.17317
357.28        33.11467
357.73        33.07765
358.18        33.03528
358.63        32.94763
359.08        32.80152
359.53        32.60395
359.98        32.35596
360.43        32.06349
360.88        31.73756
361.33        31.38205
361.78        31.03819
362.23        30.77341
362.68         30.5999
363.13        30.49604
363.58        30.40771
364.03        30.24687
364.48        29.98615
364.93        29.64433
365.38        29.25236
365.83        28.87042
366.28        28.52531
366.73        28.20624
367.18        27.90405
367.63        27.60205
368.08        27.29729
368.53        27.00296
368.98        26.73123
369.43        26.49092
369.88         26.2841
370.33        26.11136
370.78        25.95323
371.23        25.78218
371.68        25.59348
372.13        25.38509
372.58        25.20476
373.03        25.13452
373.48        25.17718
373.93        25.29461
374.38        25.38728
374.83        25.30497
375.28        25.02007
375.72        24.57484
376.17        24.08467
376.62        23.69751
377.07        23.46732
377.52        23.35367
377.97        23.31591
378.42        23.28793
378.87        23.23975
379.32        23.18672
379.77        23.12921
380.22        23.06165
380.67        22.98362
381.11        22.89811
381.56        22.77993
382.01        22.61597
382.46         22.4096
382.91        22.16118
383.36        21.93499
383.81        21.82392
384.26        21.83794
384.71        21.95875
385.15        22.06771
385.60        21.98715
386.05        21.69147
386.50        21.23976
386.95        20.79765
387.40        20.62815
387.85        20.77299
388.29        21.12613
388.74        21.51002
389.19        21.66435
389.64        21.53456
390.09        21.19943
390.54        20.78813
390.98        20.49992
391.43        20.41222
391.88         20.4521
392.33         20.5228
392.78         20.4868
393.23        20.32508
393.67        20.08127
394.12        19.87281
394.57        19.79082
395.02         19.8514
395.47        20.01259
395.91        20.20019
396.36        20.26491
396.81        20.17562
397.26        19.97447
397.71        19.74665
398.15        19.60306
398.60        19.59289
399.05        19.66778
399.50        19.75716
399.95        19.75982
400.39        19.65475
400.84        19.47182
401.29        19.28526
401.74         19.2285
402.18        19.33865
402.63        19.56064
403.08        19.79033
403.53        19.86247
403.97        19.74358
404.42        19.49839
404.87         19.2315
405.32        19.11584
405.76        19.19007
406.21        19.39273
406.66        19.63423
407.11         19.7754
407.55        19.77897
408.00        19.69367
408.45        19.56074
408.90        19.40138
409.34        19.26335
409.79        19.22917
410.24         19.2616
410.68        19.22196
411.13        19.10621
411.58         18.9978
412.03        18.91615
412.47        18.86572
412.92        18.85125
413.37        18.86151
413.81        18.90956
414.26        19.03115
414.71         19.2155
415.15        19.45706
415.60        19.66315
416.05        19.71262
416.49        19.57778
416.94        19.29767
417.39         18.9792
417.83        18.79621
418.28        18.79981
418.73        18.93815
419.17        19.11798
419.62        19.18097
420.07        19.09618
420.51         18.9166
420.96        18.72855
421.41        18.64273
421.85        18.67808
422.30        18.80281
422.74        18.95488
423.19         19.0782
423.64        19.14507
424.08        19.18342
424.53         19.1888
424.98        19.18569
425.42        19.18785
425.87        19.18826
426.31        19.17483
426.76        19.14096
427.21         19.0754
427.65        18.97464
428.10        18.88654
428.54        18.86199
428.99        18.91582
429.44        19.11501
429.88        19.32854
430.33        19.22654
430.77        18.86967
431.22        18.65041
431.66        18.63955
432.11         18.7301
432.56        18.90238
433.00        19.23763
433.45        19.52671
433.89        19.45817
434.34        19.15211
434.78        18.81138
435.23        18.45026
435.67        19.34423
436.12        18.79286
436.57        18.79743
437.01        18.60959
437.46        18.54187
437.90        18.60076
438.35        18.63997
438.79        18.63744
439.24        18.64053
439.68        18.64682
440.13        18.48954
440.57         18.2731
441.02        18.46383
441.46        18.88445
441.91        18.95576
442.35        18.22951
442.80        17.97106
443.24        17.99885
443.69         17.9181
444.13        17.72574
444.58        17.61961
445.02        17.61531
445.47        17.70524
445.91         17.8335
446.36         17.8668
446.80         17.7782
447.24        17.63107
447.69         17.4779
448.13         17.3614
448.58        17.30716
449.02        17.29612
449.47         17.3064
449.91         17.2967
450.36        17.26089
450.80        17.20911
451.25        17.16536
451.69        17.14614
452.13        17.16102
452.58        17.19549
453.02        17.23519
453.47        17.26105
453.91        17.26872
454.36        17.26225
454.80        17.24576
455.24        17.22543
455.69        17.20972
456.13        17.17609
456.58        17.14249
457.02        17.12718
457.46        17.12973
457.91        17.10764
458.35        17.05602
458.79        17.01013
459.24         16.9686
459.68        16.92805
460.13        16.93955
460.57        16.91995
461.01        16.85346
461.46        17.19965
461.90        17.28408
462.34         17.1128
462.79        17.25295
463.23        17.12484
463.68        17.00799
464.12        16.90719
464.56         16.9724
465.01         17.0783
465.45         17.1765
465.89        17.21273
466.34        17.18157
466.78        17.04505
467.22        16.87673
467.67        16.91537
468.11        17.12845
468.55        17.16807
468.99        17.03569
469.44        17.01298
469.88        17.10517
470.32        17.14747
470.77         17.1214
471.21        17.08605
471.65        17.04401
472.10         16.9784
472.54        16.91964
472.98        16.95347
473.42        17.08383
473.87        17.23417
474.31        17.35619
474.75         17.4816
475.20        17.56154
475.64        17.43118
476.08        17.18201
476.52        17.10518
476.97        17.22759
477.41        17.42316
477.85        17.61946
478.29        17.74901
478.74        17.78481
479.18        17.71628
479.62        17.61957
480.06        17.61884
480.50        17.71463
480.95         17.7877
481.39        17.80404
481.83        17.79593
482.27        17.76442
482.72        17.70887
483.16        17.66143
483.60        17.67242
484.04        17.73706
484.48        17.90069
484.93        18.21151
485.37         18.3334
485.81        18.39603
486.25         19.0545
486.69        19.57278
487.14        18.94114
487.58        18.44871
488.02        19.26019
488.46        18.86793
488.90        19.08118
489.34        18.94199
489.79         19.0593
490.23        19.36167
490.67        19.49491
491.11        19.47598
491.55        19.45604
491.99        19.46514
492.43        19.48031
492.88        19.51911
493.32        19.58263
493.76        19.68974
494.20         19.8685
494.64        20.11768
495.08        20.42732
495.52        20.74487
495.96        20.98429
496.41        21.13937
496.85        21.23322
497.29        21.29923
497.73        21.45428
498.17        21.67971
498.61        21.76892
499.05        21.74624
499.49        21.85919
499.93        22.12345
500.37        22.34807
500.82        22.51833
501.26        22.79486
501.70        23.11473
502.14        23.17581
502.58        23.02532
503.02        23.00323
503.46        23.13714
503.90        23.24911
504.34        23.31232
504.78        23.36186
505.22        23.39179
505.66        23.40294
506.10         23.4094
506.54         23.4283
506.98        23.46905
507.42        23.53177
507.86        23.61822
508.30        23.72988
508.74        23.86089
509.18        24.00181
509.62         24.1475
510.06           24.29
510.50        24.42391
510.94        24.55325
511.38        24.65156
511.82        24.67841
512.26        24.63216
512.70        24.52491
513.14        24.41991
513.58        24.41334
514.02        24.51644
514.46        24.70353
514.90        24.90067
515.34        24.92423
515.78        24.78724
516.22        24.59493
516.66        24.44461
517.10        24.15468
517.54        23.75389
517.98        24.30855
518.42         24.2024
518.86        24.44414
519.30        24.53305
519.74        24.63123
520.18        24.71371
520.62        24.71928
521.06        24.66097
521.50        24.53899
521.93        24.38778
522.37        24.27487
522.81        24.21767
523.25        24.20209
523.69        24.20919
524.13         24.2066
524.57        24.18191
525.01        24.14281
525.45        24.09485
525.89         24.0453
526.32        23.99602
526.76        23.94652
527.20        23.88529
527.64        23.80031
528.08         23.6902
528.52        23.55595
528.96        23.42563
529.40        23.33984
529.83        23.30343
530.27        23.31267
530.71        23.31548
531.15        23.23099
531.59        23.05079
532.03        22.80495
532.46        22.56731
532.90        22.47145
533.34        22.53201
533.78        22.69917
534.22         22.8931
534.66        22.99071
535.09        22.95678
535.53        22.84077
535.97        22.67928
536.41        22.52793
536.85        22.41276
537.28        22.32685
537.72        22.29074
538.16        22.26968
538.60        22.36845
539.04        22.48287
539.47        22.59816
539.91        22.69782
540.35        22.78552
540.79         22.6785
541.22        22.69702
541.66        22.72215
542.10        22.87241
542.54        22.76444
542.97        23.00246
543.41        23.16452
543.85        23.40696
544.29        23.66752
544.72        23.88987
545.16        24.05693
545.60        24.15327
546.04        24.11154
546.47        24.03919
546.91        24.25969
547.35        24.72621
547.79        25.10225
548.22        25.31334
548.66        25.41749
549.10        25.45293
549.53        25.60938
549.97        25.91562
550.41        25.94624
550.84        26.18809
551.28        26.37035
551.72        26.64058
552.15         26.9137
552.59        27.18176
553.03        27.45569
553.46        27.69497
553.90        27.86707
554.34        27.96532
554.77        27.99913
555.21         28.0169
555.65        28.08379
556.08        28.21113
556.52        28.37901
556.96        28.55288
557.39        28.71265
557.83         28.8379
558.27        28.87195
558.70        28.84817
559.14        28.87686
559.57         28.9606
560.01         29.0813
560.45        29.20595
560.88        29.23242
561.32        29.20936
561.75         29.2724
562.19        29.51532
562.63        29.56348
563.06        29.49021
563.50        29.60629
563.93        29.87419
564.37        30.10127
564.80        30.12981
565.24        30.20368
565.68        30.28177
566.11        30.35806
566.55        30.45946
566.98        30.52753
567.42        30.54552
567.85         30.8776
568.29        30.73021
568.72        31.04653
569.16        31.51094
569.60        31.83908
570.03        31.98212
570.47        32.13265
570.90        32.15604
571.34        32.59887
571.77        32.41879
572.21        32.92147
572.64        32.93769
573.08        33.26335
573.51        33.53712
573.95        33.87406
574.38        34.14892
574.82        34.34443
575.25        34.38593
575.69        34.47152
576.12        34.26052
576.56        34.16717
576.99        34.14451
577.42        34.37383
577.86         34.4646
578.29        34.46554
578.73        34.93299
579.16        34.42104
579.60        34.14552
580.03        34.00191
580.47        34.10222
580.90        33.78047
581.33        33.62461
581.77        33.58884
582.20        34.24646
582.64        33.88276
583.07        33.27638
583.51        33.31437
583.94        32.56093
584.37        32.35613
584.81        32.25348
585.24        32.33116
585.68        32.40886
586.11        32.51836
586.54        32.18964
586.98        31.88895
587.41        31.75999
587.85        31.79859
588.28        31.97893
588.71        31.81325
589.15        31.35631
589.58        31.04843
590.01        31.17241
590.45        31.32262
590.88        31.49034
591.31        31.46958
591.75        31.10562
592.18        31.23668
592.61        31.11583
593.05        31.57203
593.48        31.63184
593.91        32.07185
594.35        31.76203
594.78        31.82493
595.21        32.08958
595.65        32.54919
596.08        32.58395
596.51        32.59931
596.94        32.52664
597.38        32.59406
597.81        32.88461
598.24        33.11072
598.68        33.81999
599.11        33.91058
599.54        34.99139
599.97        34.79671
600.41        35.01834
600.84        35.72239
601.27        36.19815
601.70        36.67864
602.14        36.82682
602.57        37.34772
603.00        37.74584
603.43        38.43176
603.87        38.80359
604.30        39.38762
604.73         40.0811
605.16        40.07676
605.60        40.64256
606.03        41.11856
606.46         41.9511
606.89        42.64434
607.32         43.0668
607.76         43.3657
608.19        43.65165
608.62        44.34782
609.05        44.15087
609.48        44.49186
609.92        45.05462
610.35        44.90081
610.78        45.85116
611.21        46.74642
611.64        46.31519
612.07        46.78132
612.50        47.09857
612.94        47.06078
613.37        47.55736
613.80        48.03854
614.23        48.56081
614.66         48.7202
615.09        49.29899
615.52        49.67558
615.96        50.03453
616.39        50.29662
616.82        50.52128
617.25        50.55769
617.68        50.67742
618.11        51.26099
618.54         51.6995
618.97        51.77936
619.40         51.3494
619.84          51.546
620.27        51.12342
620.70        51.56668
621.13        52.31115
621.56        52.53798
621.99        52.34239
622.42        52.37084
622.85        52.71507
623.28        52.85883
623.71        52.77887
624.14        53.00527
624.57        52.90189
625.00        52.66728
625.43        52.96037
625.86        52.26506
626.29        52.23402
626.72        52.10847
627.15        51.97256
627.58        51.83401
628.01        51.46335
628.44        51.80259
628.87        51.52672
629.30        50.69858
629.73        50.77613
630.16        50.37476
630.59        50.09294
631.02        49.75119
631.45        49.39082
631.88        49.03838
632.31        48.67186
632.74        48.27264
633.17        47.82291
633.60        47.31907
634.03        46.76411
634.46        46.16687
634.89        45.55199
635.32        44.95693
635.75        44.40099
636.18        43.88813
636.61        43.41362
637.04        42.96152
637.47        42.52265
637.89        42.09929
638.32          41.693
638.75        41.33194
639.18        41.02024
639.61         40.7534
640.04        40.49085
640.47        40.16686
640.90        39.77388
641.33        39.33601
641.76        38.92166
642.18        38.64603
642.61        38.52831
643.04        38.53515
643.47        38.60291
643.90        38.62401
644.33        38.57028
644.76        38.48148
645.18        38.39335
645.61        38.36572
646.04        38.42149
646.47        38.53722
646.90        38.72448
647.33        39.00797
647.75        39.38553
648.18        39.83553
648.61        40.30043
649.04         40.7466
649.47        41.15812
649.89        41.41895
650.32        41.59495
650.75        42.23249
651.18        42.84091
651.61        43.56548
652.03        44.22183
652.46        45.14118
652.89        46.21655
653.32        46.70438
653.74         46.7348
654.17        47.68263
654.60        48.12918
655.03        49.77056
655.46        49.11357
655.88        51.43839
656.31        52.37083
656.74        60.79319
657.16        57.32545
657.59        52.53867
658.02        53.21355
658.45         53.9361
658.87        54.60779
659.30        55.42495
659.73        55.98317
660.15        56.82867
660.58        56.91004
661.01        56.76767
661.44        56.39459
661.86        56.59593
662.29        57.35719
662.72        58.28464
663.14        59.09703
663.57        59.09775
664.00        58.51867
664.42        58.49575
664.85        59.12426
665.27        59.68547
665.70        60.04975
666.13        60.38847
666.55        60.67188
666.98        60.84522
667.41        60.95373
667.83        61.07399
668.26        61.22015
668.69        61.37799
669.11        61.54402
669.54        61.71032
669.96        61.88213
670.39        62.06694
670.82        62.24982
671.24        62.42986
671.67        62.60374
672.09        62.66307
672.52        62.64938
672.94        62.86496
673.37        63.20724
673.80        63.09746
674.22        62.64535
674.65        62.50995
675.07        62.75524
675.50        63.01216
675.92        63.20396
676.35        63.32922
676.77        63.36407
677.20        63.31519
677.62        63.24099
678.05        63.24292
678.47        63.34354
678.90        63.52121
679.32        63.73693
679.75        63.93218
680.17        64.08056
680.60        64.19139
681.02        64.28886
681.45        64.37521
681.87        64.46386
682.30        64.60323
682.72        64.75726
683.15        64.70279
683.57        64.52001
684.00        64.50972
684.42        64.79273
684.85        64.97455
685.27        65.07854
685.70        65.27197
686.12        65.49294
686.54        65.64381
686.97        65.71728
687.39         65.4722
687.82        65.43621
688.24        65.38365
688.66        65.45974
689.09        65.52163
689.51        65.55988
689.94        65.61328
690.36        65.68708
690.78        65.70651
691.21         65.6712
691.63        65.76583
692.06        66.02607
692.48        65.90357
692.90        66.01479
693.33        66.41446
693.75        66.16385
694.17        66.23567
694.60        66.28838
695.02        66.24173
695.44        66.07269
695.87        66.02114
696.29         66.0751
696.71        65.84779
697.14        65.56467
697.56        65.95358
697.98        66.74964
698.41        67.71365
698.83        67.15988
699.25        66.97123
699.68        66.80887
700.10        66.68543
700.52        66.65456
700.94        66.73435
701.37        66.87948
701.79        67.03916
702.21        67.17582
702.64        67.26804
703.06        67.30881
703.48        67.42764
703.90        67.65026
704.33        67.43403
704.75         67.7354
705.17        67.63439
705.59        67.39336
706.01        67.46117
706.44        67.14771
706.86        67.19137
707.28        67.36492
707.70        67.66554
708.12        67.99268
708.55        68.16933
708.97        68.17669
709.39         68.1207
709.81        68.04202
710.23         67.9572
710.66        67.89893
711.08        67.89095
711.50        67.92305
711.92          67.978
712.34        68.05173
712.76        68.15367
713.19        68.26086
713.61        68.39069
714.03        68.50893
714.45        68.60906
714.87        68.69061
715.29        68.75859
715.71         68.8151
716.13        68.86067
716.56        68.87579
716.98        68.90987
717.40        68.94399
717.82        68.97601
718.24        69.01614
718.66        69.08006
719.08        69.16416
719.50        69.25592
719.92        69.33247
720.34         69.3558
720.76        69.31873
721.19        69.23509
721.61        69.12862
722.03        69.00331
722.45        68.89462
722.87        68.79144
723.29        68.73154
723.71        68.76277
724.13        68.89175
724.55        69.10343
724.97        69.35071
725.39        69.55308
725.81        69.68153
726.23        69.74785
726.65        69.77875
727.07        69.82417
727.49        69.89941
727.91        69.98975
728.33        70.07486
728.75        70.12213
729.17         70.1254
729.59        70.10104
730.01        70.07607
730.43         70.0891
730.85        70.14773
731.27        70.23542
731.69        70.32794
732.10        70.39851
732.52         70.4287
732.94        70.42277
733.36        70.36572
733.78        70.33011
734.20        70.36557
734.62        70.26656
735.04        69.98527
735.46        70.44971
735.88        70.36755
736.30        70.06499
736.72        70.43488
737.13        70.53933
737.55        70.68625
737.97        71.00681
738.39        71.38882
738.81        71.26197
739.23        70.73729
739.65        70.64635
740.06        70.95052
740.48        71.08558
740.90        70.98153
741.32        70.72549
741.74        70.61406
742.16        70.59995
742.57        70.78024
742.99        71.00647
743.41        71.21734
743.83        71.35496
744.25        71.38878
744.67        71.31767
745.08        71.18625
745.50        71.07247
745.92        71.00167
746.34         70.8726
746.75        70.71406
747.17        70.64816
747.59        70.69131
748.01        70.70455
748.42        70.99538
748.84        70.92416
749.26        70.70753
749.68        70.80091
750.09        71.19962
750.51        71.58509
750.93         71.7954
751.35        71.69965
751.76        71.41904
752.18        70.95414
752.60        71.22979
753.01          71.224
753.43        71.18299
753.85        71.22466
754.27        71.34602
754.68        71.61075
755.10        71.90089
755.52        71.82736
755.93        71.48033
756.35        71.44179
756.77        71.73626
757.18        71.92568
757.60        72.03338
758.02        72.27848
758.43        72.54544
758.85        72.67673
759.26        72.88467
759.68        72.10892
760.10         72.1823
760.51        71.85789
760.93        71.75446
761.34        71.37563
761.76        71.80908
762.18        71.53134
762.59        71.02967
763.01        71.08099
763.42        71.73112
763.84        72.20895
764.26        72.41464
764.67        72.46027
765.09        72.45155
765.50         72.6833
765.92        73.07481
766.33        73.00759
766.75        72.45806
767.16        72.05466
767.58        71.86732
768.00        71.61246
768.41         71.4259
768.83        71.72765
769.24        72.38939
769.66        72.88897
770.07        73.08371
770.49        72.99325
770.90        72.74025
771.32        72.76337
771.73        73.03299
772.15        73.00249
772.56        72.68095
772.97        72.44672
773.39        72.30116
773.80        72.13309
774.22        71.90887
774.63        71.58414
775.05        71.27309
775.46        71.27431
775.88        71.59507
776.29        72.14322
776.70        72.68215
777.12        72.87764
777.53        72.66251
777.95        72.11296
778.36        71.48383
778.77        71.21178
779.19        71.40266
779.60        71.96788
780.02         72.6259
780.43         73.0731
780.84        73.20474
781.26        72.80705
781.67        72.20387
782.09        72.65517
782.50        73.87589
782.91        74.00995
783.33         73.1019
783.74        72.81027
784.15        73.17924
784.57        73.24442
784.98        72.97994
785.39        72.78246
785.81        72.67473
786.22        72.58124
786.63        72.50066
787.04        72.44094
787.46         72.4078
787.87        72.40491
788.28        72.47743
788.70        72.65493
789.11        72.91835
789.52        73.27753
789.93        73.63617
790.35        73.76791
790.76        73.66564
791.17        73.50813
791.58        73.35715
792.00         73.1078
792.41        72.81465
792.82        72.77023
793.23        72.85945
793.65        72.55461
794.06         72.1296
794.47        72.33332
794.88        72.87309
795.29        74.43813
795.71         73.5951
796.12        73.44729
796.53        73.63702
796.94         73.1719
797.35         72.4193
797.76        72.31352
798.18        72.84151
798.59        73.11979
799.00        73.07925
799.41        73.25459
799.82         73.5959
800.23        73.75723
800.64        73.70387
801.06         73.4898
801.47        73.26231
801.88        73.20927
802.29        73.36557
802.70        73.63909
803.11        73.90499
803.52        73.96502
803.93        73.79103
804.34        73.48062
804.75        73.09157
805.17        72.83891
805.58        72.82982
805.99        72.57942
806.40        72.23679
806.81        73.11319
807.22        74.72212
807.63        74.57738
808.04        72.98209
808.45          72.592
808.86        73.58499
809.27         74.4584
809.68         74.9196
810.09        75.19377
810.50        75.17393
810.91        74.80187
811.32        74.26297
811.73        73.82935
812.14        73.58653
812.55         73.5758
812.96         73.7077
813.37        73.58134
813.78        73.25681
814.19        73.30477
814.60          73.661
815.01        73.79914
815.42        73.68989
815.83        73.58662
816.24        73.55916
816.65        73.61042
817.05        73.76387
817.46        73.97459
817.87        74.15781
818.28        74.13183
818.69        73.88687
819.10        73.49394
819.51        73.09637
819.92        73.02751
820.33        73.38004
820.74        73.81462
821.14        74.27094
821.55        75.14796
821.96        76.13558
822.37         76.0734
822.78        75.11615
823.19        74.61127
823.60        74.69597
824.00        74.64082
824.41        74.37041
824.82        74.22828
825.23        74.22292
825.64        74.29266
826.04        74.41296
826.45        74.48212
826.86        74.48318
827.27         74.4373
827.68        74.36928
828.08        74.34474
828.49        74.32793
828.90        74.33414
829.31           74.34
829.72        74.30709
830.12        74.24937
830.53        74.15089
830.94        74.06322
831.35         74.0321
831.75        74.08779
832.16        74.17049
832.57        74.27197
832.97         74.3522
833.38        74.37443
833.79        74.35104
834.20         74.2937
834.60        74.21391
835.01        74.13725
835.42        74.06991
835.82        74.00901
836.23        73.89593
836.64        73.74867
837.04        73.57924
837.45        73.45358
837.86        73.52097
838.26        73.81212
838.67        74.24799
839.08        74.67701
839.48        74.80239
839.89        74.55712
840.29        74.06955
840.70        73.57411
841.11         73.3437
841.51        73.46369
841.92        73.78443
842.33        74.28329
842.73        74.92214
843.14        75.54134
843.54        76.20618
843.95        76.66978
844.35        76.61588
844.76        76.02363
845.17        75.02689
845.57        73.96985
845.98        73.40215
846.38         73.4521
846.79        73.97166
847.19        74.78468
847.60        75.41335
848.00        75.74113
848.41        75.83157
848.81         75.8322
849.22        75.89121
849.62        76.09942
850.03        76.33259
850.43        76.56327
850.84        76.66269
851.24        76.64651
851.65        76.50569
852.05        76.34169
852.46        76.19891
852.86        76.11446
853.27         76.0807
853.67        76.01257
854.07        75.97242
854.48         75.8986
854.88        75.68899
855.29        75.37578
855.69        75.28854
856.10        75.39153
856.50        75.64629
856.90        75.88916
857.31        75.91195
857.71        75.73452
858.12        75.35785
858.52          74.977
858.92        74.77976
859.33        74.80061
859.73        75.02616
860.13        75.35164
860.54        75.58546
860.94        75.71406
861.34        75.74951
861.75        75.69848
862.15          75.678
862.55        75.68154
862.96        75.69337
863.36        75.71363
863.76        75.72272
864.17        75.70911
864.57        75.70096
864.97        75.72822
865.38        75.81145
865.78        75.99705
866.18        76.20325
866.58         76.3307
866.99        76.22139
867.39        75.88818
867.79        75.36562
868.19        74.68009
868.60        73.84722
869.00        72.87886
869.40        71.83369
869.80        70.94737
870.21        70.59549
870.61        70.90504
871.01        71.71181
871.41        72.65975
871.81        73.17036
872.22        73.12484
872.62        72.71053
873.02        72.11839
873.42        71.87363
873.82        71.91709
874.22        71.60615
874.63        71.19607
875.03        71.29929
875.43        71.96231
875.83        73.90871
876.23        74.21602
876.63        73.81345
877.03        72.15761
877.44          69.356
877.84        129.1353
878.24        68.45673
878.64        69.99484
879.04        74.24962
879.44        71.79249
879.84        70.41493
880.24        74.26543
880.64        74.15442
881.04        71.10056
881.44        69.14748
881.84        69.02216
882.24        70.03047
882.65        71.53651
883.05        72.32481
883.45        71.99075
883.85        71.21418
884.25        70.48592
884.65          70.276
885.05        70.72302
885.45        71.61406
885.85        72.58727
886.25        73.07706
886.65        72.91749
887.05         72.3093
887.45         71.5491
887.85        71.06171
888.25        70.98016
888.65        71.20042
889.04        71.58696
889.44        71.82927
889.84        71.86805
890.24        71.78051
890.64        71.71585
891.04        71.90137
891.44        72.33708
891.84        72.87336
892.24        73.28873
892.64        73.22636
893.04        72.63262
893.44        71.73236
893.83          70.647
894.23        69.56206
894.63        68.56133
895.03        67.60274
895.43         66.9398
895.83        66.98802
896.23         67.7821
896.63        69.19554
897.02        70.73133
897.42        71.46986
897.82        71.18748
898.22        70.14125
898.62        68.82343
899.01        68.01357
899.41        67.94947
899.81        68.36877
900.21        69.03801
900.61        69.60661
901.00        69.94494
901.40         70.1516
901.80        70.27617
902.20        70.36195
902.59        70.43999
902.99        70.47693
903.39        70.41843
903.79        70.19666
904.18        69.81857
904.58        69.36604
904.98         69.0379
905.38        69.13496
905.77        69.68265
906.17        70.58081
906.57        71.51685
906.96         72.0294
907.36        71.95972
907.76        71.41803
908.15         70.7113
908.55        70.28171
908.95         70.2725
909.34        70.61203
909.74        70.96179
910.14        70.73433
910.53        69.81898
910.93        68.48072
911.33        67.30043
911.72        67.18383
912.12        68.23072
912.52        70.04168
912.91         71.9417
913.31        72.82277
913.70        72.46985
914.10        71.18824
914.49        69.37613
914.89        67.94391
915.29        67.28088
915.68        67.14816
916.08        67.42854
916.47        67.92461
916.87        68.49006
917.26        69.18684
917.66        69.84241
918.05        70.18839
918.45        70.14392
918.84        69.80865
919.24        69.24196
919.64        68.58919
920.03          67.952
920.42        67.32074
920.82        66.96148
921.21        67.23109
921.61        68.09583
922.00        69.47119
922.40        70.82293
922.79        71.50761
923.19        71.34937
923.58         70.3329
923.98        68.75018
924.37        67.85568
924.77        68.16849
925.16        66.03259
925.55        67.55653
925.95        67.61996
926.34        68.00458
926.74        68.52409
927.13        69.18453
927.52        69.79541
927.92        70.26546
928.31        70.70251
928.70        70.95184
929.10        70.80822
929.49        70.27459
929.89        69.41791
930.28        68.64385
930.67        68.59473
931.07        69.35315
931.46        70.76478
931.85        72.27732
932.24        73.06705
932.64        72.91754
933.03        71.94897
933.42        70.56969
933.82        69.65334
934.21        69.46367
934.60        69.78649
934.99        69.99898
935.39        69.48818
935.78        68.18367
936.17        65.74694
936.56        62.56295
936.96        63.41465
937.35        63.02412
937.74        65.38802
938.13        67.84876
938.53         69.5228
938.92        70.29176
939.31        70.48153
939.70        70.30226
940.09        70.00316
940.49        69.75555
940.88        69.48302
941.27        69.30943
941.66        69.47203
942.05        69.96817
942.44        70.72061
942.84        71.55404
943.23        72.15228
943.62        72.38829
944.01        72.39698
944.40        72.10877
944.79        71.42319
945.18        70.38611
945.57        68.99506
945.97        67.77037
946.36        67.58216
946.75        68.63914
947.14         70.5957
947.53        72.61921
947.92        73.57526
948.31        73.27342
948.70        72.05117
949.09        70.45994
949.48        69.48231
949.87        69.43708
950.26        70.02204
950.65        70.87698
951.04        71.40456
951.43        71.39848
951.82        71.07077
952.21        70.57908
952.60        70.14565
952.99        69.85474
953.38        69.60789
953.77        69.36868
954.16        69.10732
954.55        68.81695
954.94        68.54932
955.33        68.32117
955.72           68.13
956.11        67.99043
956.50        67.90645
956.89        67.90936
957.28         68.0565
957.66        68.35103
958.05        68.67619
958.44        68.98551
958.83        69.22305
959.22        69.36695
959.61        69.43796
960.00        69.35228
960.39        68.97968
960.78        68.33253
961.16        67.45313
961.55        66.62289
961.94        66.14477
962.33        66.08598
962.72        66.37546
963.11        66.78603
963.49        66.93742
963.88        66.64101
964.27        66.03397
964.66          65.358
965.04        65.01611
965.43        65.11049
965.82        65.55051
966.21        66.09219
966.60        66.33591
966.98        66.21038
967.37         65.8214
967.76        65.49832
968.15        65.74692
968.53        66.66081
968.92        67.95245
969.31        69.25738
969.69         69.9813
970.08        69.89041
970.47        69.20641
970.86        68.11348
971.24        66.88773
971.63        65.74017
972.02         64.6391
972.40        63.71094
972.79        63.18482
973.17        63.13621
973.56        63.45871
973.95        64.09267
974.33        64.86472
974.72         65.5409
975.11        66.12331
975.49        66.42735
975.88        66.19205
976.26         65.4255
976.65        64.26176
977.04        62.95009
977.42        61.95112
977.81        61.44239
978.19        61.28362
978.58        61.49705
978.96        62.10293
979.35        62.96198
979.74        64.17422
980.12        65.33916
980.51        65.49583
980.89        64.62346
981.28        62.96206
981.66        61.35361
982.05        60.99427
982.43        62.02895
982.82        64.05247
983.20        66.40929
983.59        67.60316
983.97        67.25452
984.35        65.72011
984.74        63.68559
985.12        62.12672
985.51        61.35978
985.89        61.08541
986.28        61.10287
986.66        61.10681
987.04        60.92399
987.43        60.80139
987.81        60.62575
988.20        60.18968
988.58         59.3953
988.96        58.08834
989.35        56.57846
989.73        55.88419
990.12        56.45631
990.50        58.06325
990.88        59.67513
991.27        60.08885
991.65        59.34048
992.03        57.72776
992.42        56.12857
992.80        56.19889
993.18        58.35876
993.56        61.77611
993.95        65.30585
994.33        67.80947
994.71        68.86304
995.10        68.87241
995.48        68.20137
995.86        67.31555
996.24        66.42285
996.63        65.37705
997.01        64.17395
997.39        63.06533
997.77        62.25396
998.15        61.80037
998.54        61.69214
998.92        61.78736
999.30        62.02067
999.68        62.50851
1000.06        62.81237
1000.45        61.89376
1000.83        59.78925
1001.21        57.12092
1001.59        55.03353
1001.97        54.38258
1002.35        55.01017
1002.73        56.67591
1003.12        58.71282
1003.50        59.57684
1003.88        58.51472
1004.26         56.1133
1004.64        53.26623
1005.02         51.1765
1005.40        50.19249
1005.78         49.9444
1006.16        50.55855
1006.54         52.1388
1006.92        54.18928
1007.30        56.30137
1007.69        57.84366
1008.07        58.37427
1008.45        57.75227
1008.83        55.92774
1009.21        52.37612
1009.59        47.15617
1009.97        41.48133
1010.35        36.34758
1010.73        33.87225
1011.11        35.43771
1011.49         40.2905
1011.86        47.72008
1012.24        54.48942
1012.62        57.52579
1013.00        56.65892
1013.38         53.0161
1013.76        48.41077
1014.14        46.07322
1014.52        46.95576
1014.90        50.02509
1015.28        53.84603
1015.66        56.04396
1016.04        55.75521
1016.41        53.62675
1016.79        50.11051
1017.17        46.72709
1017.55        44.62785
1017.93        43.45551
1018.31        43.05259
1018.69        43.24497
1019.06        43.78563
1019.44        44.53527
1019.82        45.22663
1020.20        45.03416
1020.58        43.64328
1020.95        41.36828
1021.33        38.21454
1021.71        33.26311
1022.09        25.23708
1022.46        10.25227
1022.84       -12.04117
1023.22       -19.89696
1023.60      -0.4983504
1023.97        22.56932
1024.35         35.9762
1024.73        40.84529
