SpectraSmart Spectrum 2.9.0.0
--------- Device Information -----------
Spectrum Name :  反射率_0
Saving Time :  2024/04/20 00:33:00
Spectro-Module Model Name : SE2030-DUVN
Spectro-Module Serial Number : OS361AC55029948
Wavelength Start : 200
Wavelength End : 1025
Wavelength Unit : Wavelength(nm)
Spectrum Unit : Reflectance(%)
-----------Spectrum Setting ------------
Integration Time : 30ms
Average : 10
Boxcar : 0
Background removal :  enabled
linearity correction :  enabled
SC :  disabled
Intensity correction :  disabled
DWT denoise :  enabled
savitzky-golay :  disabled
FFT :  disabled
Running average :  disabled
Kalman :  disabled
High pass :  disabled
---------------BEGIN--------------------
Wavelength(nm)             Reflectance(%)
200.29               0
200.75        55.09594
201.21        57.51064
201.67        62.62458
202.13        69.66924
202.58        77.83089
203.04        87.35622
203.50        95.25404
203.96        95.10179
204.42        87.68005
204.88        77.67975
205.34        69.19585
205.80        63.89128
206.26        60.73355
206.72        58.51603
207.18        57.06295
207.64         56.6469
208.10        57.60987
208.55        60.27368
209.01         62.3968
209.47        62.81824
209.93        61.75394
210.39        59.64834
210.85        57.34081
211.31        55.78357
211.77        54.99069
212.23        54.61884
212.69        54.48226
213.14        54.31799
213.60          53.795
214.06        53.75822
214.52        54.01505
214.98        54.44237
215.44        54.98777
215.90        55.29178
216.36        55.94218
216.81        58.00143
217.27        61.26653
217.73        65.33931
218.19        67.92407
218.65        65.88412
219.11        58.76216
219.57        46.86784
220.02        33.18343
220.48        25.86047
220.94        27.87485
221.40        37.71661
221.86        50.14957
222.32        56.91863
222.77        56.03264
223.23        50.24261
223.69        43.49526
224.15        41.40548
224.61         44.2322
225.06        49.04414
225.52        53.27217
225.98        54.93584
226.44        54.03653
226.90        51.59941
227.36        48.59821
227.81        46.60833
228.27        46.45451
228.73        47.35426
229.19        48.66584
229.65        49.68353
230.10         50.2183
230.56        50.54179
231.02        50.78312
231.48        51.10057
231.93        51.46841
232.39        51.80505
232.85        51.94712
233.31        51.70007
233.77        51.05092
234.22        50.10728
234.68        49.05844
235.14        48.13178
235.60        47.48011
236.05        47.11257
236.51        47.07544
236.97        47.40591
237.43        48.17789
237.88        49.66437
238.34        51.80037
238.80        54.31382
239.26         56.6255
239.71        58.32708
240.17        59.33998
240.63        60.45464
241.08        61.97744
241.54        63.66838
242.00        64.84697
242.46        64.12957
242.91        60.79066
243.37        54.00063
243.83         44.3107
244.28        38.08079
244.74         41.6862
245.20        54.04523
245.66        66.45753
246.11        71.36212
246.57        68.08282
247.03        57.28484
247.48        41.43412
247.94        35.70243
248.40        43.00415
248.85        52.96349
249.31        60.42854
249.77        64.34361
250.22        65.71975
250.68        65.83278
251.14        65.12114
251.59        64.11961
252.05        63.47169
252.51        63.14986
252.96        62.88783
253.42        62.59999
253.88        62.37207
254.33        62.25345
254.79        63.53539
255.25        67.19836
255.70        72.62192
256.16        78.73613
256.62        83.67211
257.07        85.35131
257.53        84.11345
257.99        80.95528
258.44        76.95013
258.90        74.30502
259.35        72.87399
259.81        72.55313
260.27        72.37775
260.72         71.5815
261.18        70.44516
261.63        68.75095
262.09        67.35374
262.55        66.82514
263.00        67.00255
263.46        67.70143
263.91         67.9061
264.37        66.79733
264.83        64.40823
265.28        61.17213
265.74        58.20606
266.19        56.54902
266.65        56.40844
267.11         57.1869
267.56        58.17121
268.02        58.36241
268.47        57.53252
268.93        56.02964
269.38        54.17593
269.84        52.71189
270.30        51.83626
270.75        51.32679
271.21        50.95272
271.66        50.35772
272.12        49.44341
272.57        48.33782
273.03        47.23036
273.48        46.29689
273.94        45.64521
274.39        45.16506
274.85        44.75401
275.31         44.2121
275.76        43.47173
276.22        42.61522
276.67        41.74881
277.13        41.16095
277.58        40.81698
278.04        40.66721
278.49        40.42831
278.95        39.79683
279.40        38.70781
279.86        37.39183
280.31        36.06459
280.77        35.18753
281.22        34.76201
281.68        34.67611
282.13        34.69975
282.59        34.54993
283.04        34.14245
283.50        33.61555
283.95        33.05151
284.41        32.61766
284.86        32.32866
285.32        32.15466
285.77        32.04418
286.22        32.00278
286.68        32.01019
287.13        32.03354
287.59        32.05955
288.04         32.0253
288.50        31.93988
288.95         31.7838
289.41        31.58246
289.86        31.29176
290.32        30.97555
290.77        30.65172
291.22        30.41323
291.68         30.3594
292.13         30.5123
292.59        30.86108
293.04        31.37049
293.50        32.00321
293.95         32.7177
294.40        33.50452
294.86        34.33155
295.31        35.16001
295.77        35.97937
296.22        36.79146
296.68        37.58812
297.13        38.34352
297.58        39.06456
298.04        39.75986
298.49        40.47593
298.95        41.33121
299.40        42.31635
299.85        43.38738
300.31        44.44384
300.76        45.31686
301.21        45.97516
301.67        46.50436
302.12        46.94113
302.58        47.42239
303.03         47.9563
303.48        48.53306
303.94        49.17979
304.39        49.88654
304.84        50.64568
305.30        51.43584
305.75        52.17094
306.20        52.75413
306.66        53.18279
307.11        53.46217
307.57         53.6409
308.02        53.70232
308.47        53.69846
308.93        53.63702
309.38        53.58786
309.83        53.72262
310.29        54.05277
310.74        54.52226
311.19        54.95887
311.65        55.08071
312.10        54.82819
312.55        54.29709
313.00        53.69103
313.46         53.3243
313.91        53.25542
314.36        53.40599
314.82          53.619
315.27        53.66742
315.72        53.47437
316.18        53.13618
316.63         52.7452
317.08         52.4576
317.53        52.30964
317.99        52.23135
318.44        52.17086
318.89        52.03564
319.35        51.79945
319.80        51.50736
320.25        51.18081
320.70        50.85181
321.16        50.53083
321.61        50.20924
322.06        49.90535
322.51        49.65855
322.97        49.46044
323.42        49.31052
323.87        49.14554
324.32        48.86817
324.78        48.45145
325.23        47.94576
325.68        47.40397
326.13        46.92924
326.59        46.56018
327.04        46.30007
327.49         46.1287
327.94        46.01805
328.39        45.94633
328.85           45.89
329.30        45.87955
329.75        45.88908
330.20        45.89806
330.66         45.8726
331.11        45.79342
331.56        45.57267
332.01        45.20218
332.46        44.71278
332.92        44.17303
333.37        43.72978
333.82        43.43196
334.27        43.27116
334.72        43.21673
335.17        43.20373
335.63        43.18922
336.08        43.19666
336.53        43.23547
336.98        43.34299
337.43        43.51147
337.88        43.71753
338.34        43.84179
338.79        43.75092
339.24        43.40782
339.69        42.85868
340.14         42.2921
340.59        42.02398
341.05          42.116
341.50        42.48211
341.95        42.90991
342.40        43.06482
342.85        42.87245
343.30         42.4498
343.75        41.94806
344.20         41.6159
344.66        41.52255
345.11        41.55524
345.56        41.66376
346.01        41.76859
346.46        41.82206
346.91        41.86602
347.36        41.81868
347.81        41.54189
348.26        41.04182
348.72        40.38676
349.17        39.73455
349.62        39.42427
350.07        39.52991
350.52        39.93754
350.97        40.45981
351.42        40.81176
351.87        40.90409
352.32        40.80595
352.77        40.57174
353.22        40.29536
353.67        40.01972
354.13        39.73107
354.58        39.41153
355.03        39.08453
355.48        38.76788
355.93        38.48882
356.38         38.2682
356.83        38.12411
357.28        38.04733
357.73        38.00541
358.18        37.97884
358.63        37.94019
359.08        37.86717
359.53         37.7667
359.98        37.57976
360.43        37.21771
360.88        36.68542
361.33        36.02098
361.78        35.36243
362.23        34.93682
362.68         34.7916
363.13        34.85222
363.58        34.97488
364.03        34.93158
364.48        34.65518
364.93        34.20491
365.38        33.65606
365.83        33.14517
366.28        32.72763
366.73        32.36737
367.18        32.04063
367.63        31.71047
368.08        31.36873
368.53        31.04409
368.98        30.75336
369.43        30.50715
369.88        30.30621
370.33        30.14168
370.78        29.99431
371.23        29.84046
371.68         29.6714
372.13        29.48237
372.58        29.29969
373.03        29.17216
373.48        29.10015
373.93        29.05937
374.38        28.98737
374.83         28.7882
375.28        28.44536
375.72        27.98661
376.17         27.4981
376.62        27.07851
377.07        26.77175
377.52        26.55816
377.97        26.42109
378.42        26.32967
378.87        26.26435
379.32        26.22706
379.77        26.20806
380.22        26.18944
380.67        26.16187
381.11        26.12623
381.56        26.05194
382.01        25.91778
382.46        25.72266
382.91        25.46842
383.36        25.21031
383.81        25.03016
384.26        24.94191
384.71        24.93489
385.15        24.92157
385.60        24.77199
386.05        24.46882
386.50        24.05963
386.95        23.67456
387.40        23.51869
387.85        23.62243
388.29        23.89749
388.74        24.20355
389.19        24.32803
389.64        24.22359
390.09        23.94878
390.54        23.60401
390.98        23.34301
391.43        23.23412
391.88        23.22168
392.33        23.22762
392.78        23.14112
393.23        22.94976
393.67        22.68409
394.12         22.4622
394.57         22.3682
395.02        22.41679
395.47         22.5736
395.91         22.7567
396.36        22.79959
396.81        22.67302
397.26        22.42297
397.71        22.16318
398.15        22.04596
398.60        22.12166
399.05        22.31834
399.50        22.52363
399.95        22.57718
400.39        22.44677
400.84        22.18049
401.29        21.87885
401.74        21.72525
402.18        21.77853
402.63        21.97214
403.08        22.19443
403.53        22.26591
403.97        22.14627
404.42        21.90658
404.87        21.64897
405.32        21.53989
405.76        21.61576
406.21        21.81495
406.66        22.04712
407.11        22.17406
407.55        22.16032
408.00        22.05556
408.45        21.90757
408.90        21.74269
409.34        21.61238
409.79        21.60806
410.24        21.67997
410.68        21.65944
411.13        21.53981
411.58        21.41817
412.03        21.32155
412.47         21.2649
412.92        21.25653
413.37        21.27985
413.81        21.34884
414.26        21.50231
414.71        21.72652
415.15        22.01492
415.60        22.25961
416.05        22.31511
416.49        22.15052
416.94        21.81377
417.39        21.43068
417.83        21.20646
418.28        21.19967
418.73        21.34552
419.17        21.54386
419.62        21.62531
420.07        21.55304
420.51        21.38785
420.96        21.20095
421.41        21.07721
421.85        21.03687
422.30        21.05834
422.74        21.11887
423.19        21.22447
423.64        21.35565
424.08        21.52368
424.53         21.6738
424.98        21.74142
425.42        21.71419
425.87        21.61075
426.31        21.46902
426.76        21.35973
427.21        21.29296
427.65        21.24331
428.10        21.22819
428.54        21.25045
428.99        21.31071
429.44        21.48733
429.88        21.66747
430.33        21.56701
430.77        21.23966
431.22        21.02907
431.66        21.00425
432.11        21.09371
432.56        21.27228
433.00        21.59304
433.45        21.83997
433.89         21.7253
434.34        21.39758
434.78        21.06598
435.23        20.71885
435.67        21.75434
436.12        21.12947
436.57        21.10592
437.01        20.86702
437.46        20.80266
437.90         20.9279
438.35        21.06302
438.79        21.15359
439.24        21.20688
439.68        21.21003
440.13          20.992
440.57        20.69527
441.02          20.879
441.46        21.35168
441.91        21.46118
442.35        20.69126
442.80         20.4308
443.24        20.48911
443.69        20.49545
444.13         20.4133
444.58        20.34768
445.02        20.30609
445.47        20.33518
445.91        20.40926
446.36        20.41871
446.80        20.34701
447.24        20.25322
447.69        20.16293
448.13        20.07262
448.58        19.99899
449.02        19.93711
449.47        19.88984
449.91        19.85375
450.36        19.83325
450.80        19.82616
451.25        19.83456
451.69        19.84051
452.13        19.84558
452.58        19.84422
453.02        19.84451
453.47        19.86384
453.91        19.90316
454.36        19.95442
454.80        19.99033
455.24        19.96464
455.69        19.87895
456.13        19.73195
456.58         19.5833
457.02        19.50886
457.46        19.51916
457.91        19.54534
458.35        19.55892
458.79         19.5685
459.24        19.55967
459.68        19.53788
460.13        19.56042
460.57        19.53019
461.01        19.43092
461.46        19.79358
461.90        19.84877
462.34        19.62159
462.79        19.76664
463.23        19.61754
463.68         19.4915
464.12        19.38815
464.56        19.47466
465.01        19.60798
465.45        19.72988
465.89        19.77595
466.34        19.73936
466.78        19.57643
467.22         19.3724
467.67        19.40207
468.11        19.63128
468.55        19.66551
468.99        19.50891
469.44        19.48765
469.88        19.60694
470.32        19.67088
470.77        19.66523
471.21        19.66813
471.65        19.67983
472.10        19.67662
472.54        19.66006
472.98        19.67472
473.42        19.72126
473.87        19.73405
474.31        19.71379
474.75        19.78093
475.20        19.89473
475.64        19.83945
476.08         19.6702
476.52        19.64494
476.97        19.77631
477.41        19.94476
477.85        20.08907
478.29        20.16847
478.74        20.16823
479.18        20.06474
479.62        19.94839
480.06          19.967
480.50        20.11808
480.95        20.26347
481.39        20.34508
481.83        20.37029
482.27        20.32864
482.72        20.21895
483.16        20.09394
483.60        20.02925
484.04        20.02994
484.48        20.17774
484.93        20.50773
485.37        20.54751
485.81        20.49454
486.25        21.15124
486.69        21.90366
487.14        21.24722
487.58        20.80805
488.02        21.78969
488.46        21.24356
488.90        21.46164
489.34        21.34157
489.79        21.41288
490.23        21.62307
490.67        21.81135
491.11        21.94679
491.55        21.89447
491.99        21.70882
492.43        21.64263
492.88        21.72943
493.32        21.81049
493.76         21.8878
494.20        22.03122
494.64        22.23567
495.08        22.50097
495.52         22.7811
495.96        22.95625
496.41         23.0455
496.85        23.16624
497.29        23.32669
497.73        23.52456
498.17        23.72481
498.61        23.76622
499.05        23.69176
499.49        23.77081
499.93        24.02707
500.37        24.25132
500.82        24.42082
501.26        24.69872
501.70        25.01291
502.14        25.04051
502.58         24.8381
503.02        24.77446
503.46        24.88906
503.90        24.98533
504.34        25.03246
504.78        25.06123
505.22        25.06527
505.66        25.04632
506.10        25.03297
506.54        25.06598
506.98        25.15451
507.42        25.28551
507.86        25.43454
508.30        25.56139
508.74        25.65098
509.18        25.71064
509.62        25.75192
510.06        25.79374
510.50        25.84405
510.94         25.9014
511.38        25.95241
511.82        25.97639
512.26        25.97159
512.70        25.94467
513.14        25.92947
513.58         25.9733
514.02        26.07571
514.46        26.22302
514.90        26.36694
515.34        26.36627
515.78        26.25034
516.22        26.10611
516.66        26.01322
517.10        25.76699
517.54        25.38703
517.98         25.9239
518.42        25.80784
518.86        26.04407
519.30         26.1462
519.74        26.26672
520.18        26.36569
520.62        26.35982
521.06        26.25928
521.50        26.07473
521.93        25.86271
522.37        25.72474
522.81        25.68677
523.25        25.72414
523.69        25.79774
524.13        25.84403
524.57        25.84098
525.01        25.80284
525.45        25.74767
525.89        25.70366
526.32        25.67666
526.76        25.65823
527.20        25.62212
527.64         25.5337
528.08        25.38984
528.52        25.20448
528.96        25.02396
529.40        24.91543
529.83        24.89017
530.27        24.93441
530.71        24.98863
531.15        24.96017
531.59        24.83295
532.03        24.63905
532.46        24.44166
532.90        24.35858
533.34        24.40397
533.78        24.53371
534.22        24.68497
534.66        24.76294
535.09        24.73756
535.53        24.64805
535.97        24.52074
536.41        24.39347
536.85        24.28603
537.28        24.20095
537.72         24.1536
538.16        24.09501
538.60        24.14271
539.04        24.18906
539.47        24.24561
539.91         24.3378
540.35        24.47441
540.79        24.44184
541.22        24.55383
541.66         24.6331
542.10        24.79473
542.54        24.64035
542.97        24.83615
543.41        24.94573
543.85        25.14751
544.29        25.36522
544.72        25.55173
545.16        25.70897
545.60        25.82067
546.04        25.81296
546.47        25.76832
546.91        25.97915
547.35        26.38692
547.79        26.64952
548.22         26.7364
548.66         26.7805
549.10        26.83262
549.53        27.06837
549.97        27.47617
550.41        27.53424
550.84        27.73928
551.28        27.82755
551.72        27.98599
552.15        28.17447
552.59        28.40088
553.03        28.65991
553.46        28.89746
553.90        29.06225
554.34        29.14113
554.77        29.15355
555.21        29.14795
555.65        29.18719
556.08        29.28442
556.52        29.41751
556.96        29.56218
557.39          29.718
557.83         29.8644
558.27        29.93328
558.70        29.94151
559.14        29.97654
559.57        30.03762
560.01        30.11682
560.45        30.18957
560.88         30.1804
561.32        30.14848
561.75        30.18262
562.19        30.38923
562.63        30.49765
563.06        30.53227
563.50         30.5883
563.93        30.66647
564.37        30.81798
564.80        30.89944
565.24        31.03479
565.68        31.15418
566.11        31.25544
566.55        31.35786
566.98        31.40496
567.42        31.39224
567.85        31.72289
568.29        31.58718
568.72        31.92249
569.16        32.38843
569.60        32.77748
570.03        32.85349
570.47         32.9747
570.90        32.94796
571.34        33.31053
571.77        33.20722
572.21         33.4294
572.64        33.71877
573.08        33.95958
573.51        34.00669
573.95        34.66248
574.38        34.81884
574.82        35.08694
575.25        35.15946
575.69        34.94511
576.12         34.8446
576.56        34.80096
576.99        34.99366
577.42        34.92284
577.86        35.25156
578.29        34.94445
578.73        35.79913
579.16        35.09658
579.60        34.79976
580.03         34.6769
580.47        34.59787
580.90        34.47529
581.33        34.38782
581.77        34.39156
582.20        34.87869
582.64         34.4593
583.07         34.1536
583.51         33.9971
583.94        33.55392
584.37        33.20732
584.81        33.07669
585.24         33.0752
585.68        33.19152
586.11        33.05159
586.54        32.86047
586.98        32.71167
587.41         32.7108
587.85        32.70845
588.28        32.66977
588.71         32.5458
589.15        32.38365
589.58        32.12901
590.01        32.10612
590.45        32.50563
590.88        32.47231
591.31        32.38565
591.75        31.99161
592.18        32.07546
592.61        31.95821
593.05        32.38102
593.48        32.22661
593.91        33.21548
594.35        32.77695
594.78        32.78115
595.21        32.93134
595.65        33.36572
596.08        33.52735
596.51        33.54703
596.94        33.35869
597.38        33.45636
597.81        33.93792
598.24         33.9681
598.68        34.55974
599.11        34.73499
599.54        35.97105
599.97        35.47548
600.41        35.80054
600.84        36.36517
601.27         36.8227
601.70        37.28395
602.14        37.46334
602.57        37.86805
603.00        38.46479
603.43        38.94519
603.87        39.28975
604.30        39.72496
604.73        40.26482
605.16        40.66755
605.60        41.20272
606.03        41.72055
606.46        42.17871
606.89        42.87447
607.32        43.27289
607.76         43.6139
608.19        43.90368
608.62        44.51982
609.05        44.65942
609.48        44.95132
609.92        45.22564
610.35        45.42108
610.78        46.23975
611.21        47.18335
611.64        46.93705
612.07        47.23703
612.50        47.84447
612.94        47.65518
613.37        48.34927
613.80        48.61736
614.23        48.92455
614.66        49.44553
615.09        49.69103
615.52        50.09275
615.96        50.41725
616.39        50.75656
616.82        51.19389
617.25        50.86721
617.68        51.57523
618.11        51.84395
618.54        52.05084
618.97        52.11391
619.40        52.04876
619.84         52.2439
620.27        52.06864
620.70         52.5084
621.13        53.20461
621.56        53.33791
621.99        53.06661
622.42        53.12372
622.85        53.57307
623.28        53.81467
623.71        53.77224
624.14        53.94199
624.57        53.67356
625.00         53.4506
625.43        53.66865
625.86        53.24648
626.29        53.26665
626.72        53.09576
627.15        53.02531
627.58        52.97347
628.01        52.88491
628.44        52.71415
628.87        52.44532
629.30        51.91755
629.73        51.54902
630.16        51.12603
630.59         50.9509
631.02        50.67643
631.45        50.33217
631.88        49.97723
632.31        49.59326
632.74        49.12364
633.17        48.58092
633.60        48.03121
634.03        47.49023
634.46        46.94207
634.89        46.39274
635.32        45.85058
635.75        45.32281
636.18        44.82425
636.61        44.34625
637.04        43.86556
637.47        43.37574
637.89        42.88015
638.32        42.40138
638.75        42.00466
639.18        41.70329
639.61        41.48561
640.04        41.28559
640.47         40.9942
640.90        40.59343
641.33        40.11891
641.76        39.66285
642.18         39.3801
642.61        39.29776
643.04        39.36651
643.47        39.49853
643.90        39.54827
644.33        39.47712
644.76        39.33842
645.18        39.18306
645.61         39.0944
646.04        39.10421
646.47        39.18179
646.90        39.33781
647.33        39.59287
647.75        39.93937
648.18        40.36859
648.61        40.82495
649.04        41.21702
649.47        41.53682
649.89        41.79702
650.32         42.0608
650.75        42.50942
651.18        43.15919
651.61        43.74738
652.03        44.28709
652.46        45.20822
652.89         46.3946
653.32        46.94037
653.74        46.91214
654.17        47.69535
654.60         48.1665
655.03        49.25542
655.46        48.93367
655.88        50.98103
656.31        52.21724
656.74        59.44366
657.16        57.22765
657.59        53.26474
658.02         53.4821
658.45        54.03267
658.87        54.57645
659.30        55.40896
659.73        56.03704
660.15        56.86818
660.58        56.87189
661.01        56.77175
661.44        56.54385
661.86        56.92916
662.29        57.85839
662.72         58.6708
663.14         59.1957
663.57        59.34635
664.00        59.26792
664.42        59.43122
664.85        59.90517
665.27        60.34091
665.70        60.66794
666.13        60.98098
666.55        61.26709
666.98        61.49346
667.41        61.67255
667.83        61.81981
668.26        61.93864
668.69        62.04222
669.11        62.14973
669.54        62.27931
669.96        62.43991
670.39        62.64994
670.82         62.9119
671.24        63.14034
671.67        63.35166
672.09        63.72137
672.52        64.16917
672.94        64.36927
673.37        64.33328
673.80        64.28263
674.22        64.30054
674.65        64.36681
675.07        64.51689
675.50        64.77834
675.92        65.07385
676.35        65.21134
676.77        65.16805
677.20        65.01253
677.62         64.8382
678.05        64.80182
678.47        64.93351
678.90        65.17856
679.32        65.48228
679.75        65.74515
680.17        65.92617
680.60        66.11195
681.02        66.28502
681.45        66.25768
681.87        66.11732
682.30        66.18919
682.72        66.46185
683.15        66.61494
683.57        66.64667
684.00        66.67326
684.42        66.83299
684.85        67.02596
685.27        67.22234
685.70        67.47793
686.12        67.70804
686.54        67.84238
686.97        67.87011
687.39          67.772
687.82        67.61207
688.24        67.66372
688.66        67.93776
689.09        67.95267
689.51        68.16554
689.94        68.26434
690.36        68.39037
690.78        68.38749
691.21         68.2863
691.63        68.36919
692.06        68.68099
692.48        68.61526
692.90        68.79368
693.33        69.24597
693.75        68.99899
694.17        69.03575
694.60        69.02605
695.02        68.89846
695.44        68.67809
695.87        68.70374
696.29        68.90594
696.71        68.80322
697.14        68.62029
697.56        68.90803
697.98        69.37272
698.41         70.7757
698.83        70.06824
699.25        69.60048
699.68        69.70042
700.10         69.5625
700.52        69.55421
700.94         69.6817
701.37        69.90643
701.79        70.11904
702.21         70.2504
702.64        70.33189
703.06        70.39508
703.48        70.50543
703.90        70.67741
704.33        70.88319
704.75        71.04556
705.17        71.01132
705.59        70.76565
706.01        70.36687
706.44        69.99696
706.86        69.94067
707.28        70.24326
707.70        70.80717
708.12        71.43935
708.55         71.8211
708.97        71.87816
709.39         71.7346
709.81        71.49225
710.23        71.31215
710.66        71.26498
711.08        71.31055
711.50        71.41693
711.92        71.54898
712.34        71.68973
712.76        71.86404
713.19        72.02564
713.61        72.15376
714.03        72.21213
714.45        72.19018
714.87        72.17236
715.29        72.22652
715.71         72.3793
716.13        72.60428
716.56         72.8251
716.98        72.99516
717.40        73.05918
717.82         73.0378
718.24        72.97882
718.66        72.96098
719.08        73.00342
719.50        73.08066
719.92        73.14619
720.34        73.12504
720.76        73.00571
721.19         72.8189
721.61        72.63235
722.03        72.51434
722.45        72.51192
722.87           72.59
723.29        72.72622
723.71        72.87162
724.13        73.00935
724.55        73.15211
724.97        73.30667
725.39        73.48477
725.81        73.68134
726.23        73.87345
726.65        74.05065
727.07        74.20638
727.49        74.33611
727.91        74.44495
728.33        74.51806
728.75        74.53011
729.17        74.48837
729.59        74.40942
730.01        74.33392
730.43        74.35198
730.85        74.48234
731.27        74.62851
731.69        74.75134
732.10        75.04417
732.52         75.2001
732.94        75.19062
733.36        74.95964
733.78        74.84891
734.20        74.93839
734.62        74.63115
735.04        74.63688
735.46        74.61378
735.88        74.82245
736.30        74.32689
736.72         74.6587
737.13        74.79197
737.55        75.07158
737.97        75.31688
738.39        75.43102
738.81        75.37438
739.23        75.23754
739.65        75.10074
740.06        74.92252
740.48        75.58567
740.90        75.47961
741.32        75.31134
741.74        74.96735
742.16        74.87529
742.57        75.15398
742.99        75.42378
743.41        75.63628
743.83        75.80865
744.25         75.9044
744.67        75.91142
745.08        75.83321
745.50        75.64333
745.92        75.37663
746.34        75.05173
746.75         74.7479
747.17        74.58665
747.59        74.60458
748.01        74.78781
748.42        75.07245
748.84        75.35683
749.26        75.61532
749.68        75.69111
750.09        75.66126
750.51        76.03283
750.93        76.63029
751.35        76.57905
751.76        75.97733
752.18        75.68025
752.60        75.72012
753.01        75.88359
753.43        75.67988
753.85        75.72477
754.27        75.87948
754.68        76.12322
755.10         76.3702
755.52        76.45368
755.93        76.37667
756.35        76.28671
756.77        76.26015
757.18        76.29631
757.60        76.42869
758.02        76.67717
758.43        76.95411
758.85          76.955
759.26        77.18119
759.68        76.74068
760.10        76.73296
760.51         76.4004
760.93        76.14359
761.34        75.91888
761.76         75.7741
762.18         75.9308
762.59        76.22681
763.01        75.70105
763.42        76.37269
763.84         76.6448
764.26         77.0462
764.67        76.94429
765.09        76.55194
765.50        76.67466
765.92        77.25681
766.33        77.52121
766.75        77.26869
767.16        77.17869
767.58        76.52299
768.00        76.07002
768.41        75.81302
768.83         75.9369
769.24        76.39876
769.66        77.10238
770.07         77.7738
770.49         77.8254
770.90        77.37438
771.32         77.2989
771.73        77.61858
772.15         77.6029
772.56        77.27785
772.97        77.11076
773.39        77.09399
773.80        77.07127
774.22        76.98302
774.63        76.76563
775.05         76.5097
775.46         76.5134
775.88        76.78463
776.29        77.21968
776.70        77.62843
777.12        77.78066
777.53        77.62758
777.95        77.19799
778.36        76.70687
778.77        76.53181
779.19        76.76393
779.60        77.34521
780.02        77.96149
780.43        78.31482
780.84        78.32884
781.26         77.6315
781.67        76.67213
782.09        77.34802
782.50        79.18597
782.91        79.29517
783.33        77.83398
783.74        77.47385
784.15        78.29724
784.57        78.86143
784.98        78.94362
785.39        78.62366
785.81        78.00906
786.22        77.65482
786.63        77.63405
787.04        77.54713
787.46        77.41707
787.87        77.53638
788.28        77.87354
788.70        78.14476
789.11        78.28986
789.52        78.49259
789.93        78.70741
790.35         78.6056
790.76        78.26326
791.17        78.24819
791.58           78.56
792.00        78.42521
792.41        77.79668
792.82        78.09344
793.23        78.01629
793.65        77.48133
794.06        76.50398
794.47        76.90826
794.88        78.43073
795.29        79.28969
795.71        79.15778
796.12        79.14636
796.53         79.2219
796.94        78.59048
797.35        77.56187
797.76        77.42661
798.18        78.10384
798.59        78.45033
799.00        78.40414
799.41        78.33262
799.82        78.90077
800.23        79.06434
800.64        78.99229
801.06        78.75915
801.47        78.51939
801.88        78.45154
802.29        78.58817
802.70        78.84303
803.11        79.10303
803.52        79.19233
803.93        79.08297
804.34        78.86582
804.75        78.58035
805.17        78.38255
805.58        78.36072
805.99        78.12364
806.40        77.82965
806.81        78.57174
807.22        79.96466
807.63        80.06861
808.04        79.04845
808.45        78.75109
808.86        79.35938
809.27        80.04536
809.68        80.58805
810.09        80.86163
810.50        80.76313
810.91        80.43911
811.32        80.02453
811.73        79.58333
812.14        79.17059
812.55        78.95586
812.96        78.88798
813.37        78.47256
813.78        77.88091
814.19        78.02047
814.60        78.73376
815.01        79.04511
815.42        78.88162
815.83        78.73367
816.24        78.69247
816.65        78.68739
817.05        78.76064
817.46        78.89243
817.87        79.02406
818.28        79.01394
818.69        78.85415
819.10        78.59353
819.51        78.37088
819.92        78.47313
820.33        78.96006
820.74        79.59041
821.14        80.23007
821.55        80.93742
821.96         81.5041
822.37        81.32217
822.78        80.55325
823.19        80.08591
823.60        80.04491
824.00        79.99907
824.41        79.86765
824.82        79.82735
825.23        79.86845
825.64        79.97871
826.04         80.1313
826.45         80.2205
826.86        80.23591
827.27        80.19093
827.68        80.13628
828.08        80.19192
828.49        80.32425
828.90        80.53107
829.31        80.74322
829.72        80.84333
830.12        80.81316
830.53        80.64577
830.94        80.42536
831.35        80.24772
831.75        80.16547
832.16        80.11951
832.57         80.0814
832.97        79.97925
833.38        79.78012
833.79        79.51527
834.20        79.27694
834.60        79.19109
835.01        79.29766
835.42        79.57334
835.82        79.88445
836.23        79.94821
836.64        79.73181
837.04        79.30428
837.45        78.89215
837.86        78.91589
838.26        79.46909
838.67        80.38162
839.08        81.33376
839.48        81.73059
839.89        81.41277
840.29        80.61102
840.70        79.70093
841.11        79.14724
841.51        79.09219
841.92        79.32671
842.33        79.78793
842.73        80.37311
843.14        80.89772
843.54        81.47166
843.95        81.86479
844.35        81.77973
844.76        81.19955
845.17        80.23576
845.57        79.22812
845.98        78.73214
846.38        78.87193
846.79        79.50014
847.19        80.41306
847.60        81.07279
848.00        81.35495
848.41        81.33245
848.81        81.21663
849.22        81.25485
849.62        81.56072
850.03        81.98329
850.43        82.42338
850.84        82.60522
851.24        82.51374
851.65        82.18173
852.05        81.80149
852.46        81.57046
852.86        81.55964
853.27        81.68058
853.67        81.78746
854.07        81.90811
854.48        81.93268
854.88        81.69692
855.29        81.24072
855.69         81.0144
856.10        81.00071
856.50        81.08936
856.90        81.18278
857.31         81.2272
857.71        81.26814
858.12        81.26817
858.52        81.27757
858.92        81.25861
859.33        81.19189
859.73        81.11284
860.13        81.06872
860.54        81.16328
860.94        81.47323
861.34        81.91248
861.75        82.28752
862.15        82.38938
862.55        82.13165
862.96        81.62041
863.36        81.02286
863.76        80.58897
864.17        80.40363
864.57        80.40461
864.97          80.576
865.38        80.86971
865.78        81.28802
866.18        81.77694
866.58        82.16113
866.99        82.13022
867.39        81.67535
867.79        80.86758
868.19        79.85043
868.60        78.84332
869.00        77.91459
869.40        77.05536
869.80        76.45473
870.21        76.39572
870.61        76.95071
871.01        77.97768
871.41        79.04106
871.81        79.44114
872.22        79.05214
872.62        78.10307
873.02        76.95694
873.42         76.3798
873.82        76.40991
874.22        76.43797
874.63        76.53373
875.03        76.92068
875.43        77.51602
875.83        78.97328
876.23        79.08301
876.63        78.80222
877.03        77.75801
877.44        76.00298
877.84        122.4023
878.24        75.83895
878.64        76.72717
879.04        79.55478
879.44         77.0311
879.84        75.58282
880.24        78.77554
880.64        78.87003
881.04        76.63005
881.44        75.18817
881.84        75.04005
882.24        75.69494
882.65        76.62509
883.05        76.87093
883.45        76.12475
883.85        74.96475
884.25        73.95526
884.65        73.69654
885.05        74.33023
885.45        75.62398
885.85        77.10071
886.25        77.97242
886.65        77.99652
887.05        77.41019
887.45        76.59483
887.85        76.12463
888.25        76.16879
888.65        76.57056
889.04        77.12252
889.44        77.39343
889.84        77.29431
890.24        76.94984
890.64        76.59064
891.04        76.54944
891.44        76.85637
891.84        77.34885
892.24        77.74597
892.64        77.58815
893.04        76.81655
893.44        75.70629
893.83        74.47887
894.23        73.46799
894.63        72.76398
895.03        72.24987
895.43         72.0677
895.83        72.45767
896.23        73.38474
896.63        74.75484
897.02        76.10276
897.42        76.56772
897.82        75.98009
898.22        74.61671
898.62         72.9977
899.01        71.93446
899.41        71.69151
899.81        72.01236
900.21        72.71621
900.61        73.52161
901.00        74.28377
901.40        75.05388
901.80        75.74569
902.20        76.18518
902.59        76.33792
902.99        76.20909
903.39        75.84612
903.79        75.36876
904.18         74.8485
904.58        74.32467
904.98        73.94732
905.38        73.93599
905.77        74.30079
906.17        74.99158
906.57        75.73669
906.96        76.12649
907.36        76.01985
907.76        75.50607
908.15        74.86386
908.55        74.49832
908.95        74.53442
909.34        74.89919
909.74        75.27163
910.14        75.09857
910.53        74.27682
910.93        73.07272
911.33        72.00475
911.72         71.8852
912.12        72.81372
912.52        74.41673
912.91        76.15147
913.31        77.11489
913.70        77.12821
914.10        76.44772
914.49        75.29125
914.89        74.18746
915.29         73.4224
915.68        72.88683
916.08        72.69846
916.47        72.98897
916.87        73.67664
917.26        74.68598
917.66        75.73662
918.05        76.38727
918.45        76.47662
918.84        76.17097
919.24        75.47708
919.64        74.45299
920.03        73.23203
920.42        71.85825
920.82        70.79093
921.21        70.67292
921.61          71.537
922.00        73.23789
922.40        75.08932
922.79        76.17715
923.19        76.21449
923.58        75.26441
923.98        73.72589
924.37        72.92626
924.77         73.3735
925.16        71.91314
925.55        73.44772
925.95        73.47476
926.34        73.43295
926.74           73.31
927.13        73.30814
927.52        73.52402
927.92        73.93864
928.31        74.56171
928.70        75.18652
929.10        75.49816
929.49        75.41632
929.89        75.01724
930.28         74.5882
930.67        74.58961
931.07        75.08746
931.46        75.97426
931.85        76.88295
932.24        77.28506
932.64        77.04397
933.03        76.23652
933.42        75.16222
933.82        74.45741
934.21          74.308
934.60        74.57956
934.99        74.76385
935.39        74.36526
935.78        73.32858
936.17         71.3496
936.56        68.78063
936.96        69.65066
937.35        69.56908
937.74        71.81981
938.13        74.10152
938.53        75.57236
938.92        76.12565
939.31        76.02061
939.70        75.55662
940.09        75.18671
940.49        75.11691
940.88        75.24744
941.27        75.40844
941.66        75.38587
942.05        75.13607
942.44        74.72858
942.84        74.42139
943.23        74.64833
943.62        75.45359
944.01        76.71498
944.40        77.90092
944.79        78.17161
945.18        77.33739
945.57        75.58101
945.97        73.62248
946.36        72.76974
946.75        73.43676
947.14        75.15951
947.53        77.07632
947.92        78.01417
948.31        77.74867
948.70        76.65636
949.09        75.25346
949.48        74.42614
949.87        74.45467
950.26        75.03476
950.65         75.8056
951.04        76.19169
951.43        76.00848
951.82        75.47962
952.21        74.79796
952.60        74.23677
952.99        73.90439
953.38        73.70166
953.77        73.59739
954.16        73.56413
954.55        73.57421
954.94        73.65041
955.33         73.7694
955.72        73.86961
956.11        73.94065
956.50        73.99883
956.89        74.03025
957.28        74.03336
957.66        74.02251
958.05        73.91656
958.44        73.82043
958.83        73.86906
959.22        74.06554
959.61        74.40122
960.00        74.62952
960.39        74.31645
960.78        73.40414
961.16        72.02949
961.55         70.7094
961.94          70.104
962.33        70.35345
962.72        71.27921
963.11        72.42861
963.49        73.02702
963.88        72.76559
964.27        71.90888
964.66        70.89204
965.04        70.44034
965.43        70.73848
965.82        71.56021
966.21        72.54881
966.60        73.13625
966.98        73.17241
967.37        72.81898
967.76        72.37274
968.15        72.27393
968.53        72.64738
968.92        73.25594
969.31        73.87165
969.69        74.13058
970.08         73.8727
970.47         73.2664
970.86        72.45734
971.24        71.63754
971.63        70.95772
972.02        70.39872
972.40        69.97148
972.79        69.71053
973.17        69.64156
973.56        69.65292
973.95        69.85149
974.33        70.37833
974.72        71.08478
975.11        71.91336
975.49         72.4771
975.88        72.18372
976.26        70.98827
976.65        69.14303
977.04        67.14135
977.42        65.85426
977.81        65.55821
978.19        65.97279
978.58        66.88513
978.96        67.92719
979.35        68.82556
979.74        69.81245
980.12        70.57352
980.51        70.31667
980.89         69.1218
981.28        67.15929
981.66        65.38071
982.05         65.1461
982.43        66.59633
982.82        69.33482
983.20        72.44473
983.59        73.91109
983.97        73.23872
984.35         70.9053
984.74        68.04314
985.12        66.36887
985.51        66.36304
985.89        67.53909
986.28        69.20454
986.66        70.02576
987.04        69.44778
987.43        68.14251
987.81        66.48726
988.20        64.81548
988.58        63.13671
988.96        61.11376
989.35         59.1213
989.73        58.45554
990.12        59.60609
990.50        62.19218
990.88        64.86751
991.27        66.13861
991.65         66.0116
992.03        64.86361
992.42        63.43644
992.80        63.20531
993.18          64.608
993.56        66.91771
993.95        69.40018
994.33        71.45905
994.71        72.72837
995.10        73.46471
995.48         73.6242
995.86        73.01775
996.24        71.69457
996.63        69.65715
997.01        67.23438
997.39        65.49265
997.77        64.97915
998.15         65.4088
998.54         66.4007
998.92        67.47604
999.30        68.54932
999.68        69.92339
1000.06        71.00201
1000.45        70.14457
1000.83        67.22433
1001.21        63.19004
1001.59        59.78405
1001.97        58.27179
1002.35        58.45715
1002.73        60.02731
1003.12        62.21032
1003.50         63.2365
1003.88        62.24298
1004.26         59.8378
1004.64        57.12194
1005.02        55.64211
1005.40        55.78352
1005.78        57.05915
1006.16        59.05642
1006.54        60.82513
1006.92        61.72285
1007.30        61.93005
1007.69        61.57438
1008.07        60.87321
1008.45        59.74818
1008.83        58.04736
1009.21        55.21509
1009.59        50.87608
1009.97        45.78426
1010.35        40.88992
1010.73        38.64075
1011.11        41.03532
1011.49        47.27321
1011.86        56.18416
1012.24        63.91751
1012.62        66.67442
1013.00        64.31776
1013.38        58.35526
1013.76         51.1551
1014.14        46.94033
1014.52        47.02489
1014.90        50.15346
1015.28        54.53013
1015.66        57.09876
1016.04        56.77983
1016.41        54.48436
1016.79        50.84525
1017.17        47.72733
1017.55        46.31931
1017.93        45.87192
1018.31        46.20735
1018.69        47.32222
1019.06        49.01277
1019.44        51.24001
1019.82        53.39223
1020.20         53.6817
1020.58        51.44389
1020.95        47.26082
1021.33        42.01733
1021.71         36.0439
1022.09        28.52103
1022.46         16.0465
1022.84      -0.9148875
1023.22       -4.530048
1023.60        13.32182
1023.97        33.00652
1024.35        43.97196
1024.73        47.44434
