SpectraSmart Spectrum 2.9.0.0
--------- Device Information -----------
Spectrum Name :  反射率_0
Saving Time :  2024/04/20 00:14:49
Spectro-Module Model Name : SE2030-DUVN
Spectro-Module Serial Number : OS361AC55029948
Wavelength Start : 200
Wavelength End : 1025
Wavelength Unit : Wavelength(nm)
Spectrum Unit : Reflectance(%)
-----------Spectrum Setting ------------
Integration Time : 30ms
Average : 10
Boxcar : 0
Background removal :  enabled
linearity correction :  enabled
SC :  disabled
Intensity correction :  disabled
DWT denoise :  enabled
savitzky-golay :  disabled
FFT :  disabled
Running average :  disabled
Kalman :  disabled
High pass :  disabled
---------------BEGIN--------------------
Wavelength(nm)             Reflectance(%)
200.29               0
200.75        57.03199
201.21        57.02183
201.67        58.73165
202.13        61.87367
202.58        66.16386
203.04        71.87601
203.50        77.52348
203.96        79.14255
204.42        76.35826
204.88        71.47123
205.34        66.73816
205.80        63.03455
206.26        59.72315
206.72        55.92282
207.18        50.98332
207.64        45.86688
208.10        43.19374
208.55        43.81886
209.01        46.58789
209.47        50.81174
209.93        55.58398
210.39        60.41734
210.85        64.00041
211.31          64.984
211.77        63.16306
212.23        58.50966
212.69        51.35907
213.14        45.81089
213.60        44.60065
214.06        46.55682
214.52        49.29425
214.98        51.29146
215.44        52.52847
215.90        53.27055
216.36        54.05793
216.81        55.65989
217.27        57.92471
217.73        60.51538
218.19        61.59517
218.65         58.6785
219.11        51.38073
219.57        39.86567
220.02        26.90836
220.48         20.1506
220.94        22.23865
221.40         31.7453
221.86        43.36629
222.32        48.76086
222.77        46.10333
223.23        38.34966
223.69        29.85643
224.15        26.85464
224.61        29.60702
225.06        34.80791
225.52        39.59181
225.98        41.85572
226.44         41.5237
226.90        39.67006
227.36        36.99231
227.81        34.57559
228.27         33.3021
228.73        32.76498
229.19        32.83158
229.65        33.37391
230.10          34.209
230.56        35.21699
231.02        36.36726
231.48        37.61568
231.93         38.8504
232.39        40.03814
232.85        40.81638
233.31        40.64607
233.77        39.48919
234.22        37.53757
234.68        35.36449
235.14        33.89322
235.60         33.4607
236.05        33.89116
236.51        34.83375
236.97        35.70099
237.43        36.37608
237.88        37.17777
238.34        38.25081
238.80        39.97031
239.26        42.19838
239.71         44.3069
240.17        45.92684
240.63        47.31368
241.08        48.64814
241.54        50.02272
242.00         50.6749
242.46        49.01579
242.91        44.13911
243.37        34.70221
243.83        21.88352
244.28        15.52264
244.74        24.75989
245.20        47.13252
245.66        68.16077
246.11        76.20895
246.57        70.70937
247.03        51.91323
247.48        24.94366
247.94        16.90365
248.40        31.82406
248.85         50.9804
249.31        64.50033
249.77        69.60719
250.22        68.32669
250.68        62.93476
251.14        55.20916
251.59        49.53395
252.05        48.81172
252.51         52.0815
252.96        57.05544
253.42        59.66908
253.88        58.75005
254.33        56.02625
254.79        54.13612
255.25        55.33079
255.70        59.23456
256.16        64.19524
256.62        68.27493
257.07        69.42384
257.53        67.80006
257.99        64.34505
258.44        60.11684
258.90        57.19648
259.35        55.49955
259.81        54.81648
260.27        54.15296
260.72        52.64922
261.18        50.54532
261.63        47.83396
262.09        45.49147
262.55        44.39286
263.00        44.47631
263.46        45.36188
263.91        46.02159
264.37        45.47786
264.83        43.73303
265.28          41.204
265.74        38.90242
266.19        37.83054
266.65        38.12904
267.11        39.24459
267.56        40.46075
268.02        40.73582
268.47        39.88879
268.93         38.2874
269.38        36.36312
269.84        35.03316
270.30         34.5287
270.75        34.57235
271.21        34.81052
271.66        34.72399
272.12        34.16198
272.57        33.30508
273.03        32.38263
273.48        31.65227
273.94         31.2338
274.39        31.00398
274.85        30.83456
275.31        30.52428
275.76        30.01618
276.22        29.39531
276.67        28.78929
277.13        28.47832
277.58        28.43538
278.04        28.58042
278.49        28.63882
278.95        28.28607
279.40        27.46426
279.86         26.3871
280.31        25.26424
280.77        24.51585
281.22        24.16052
281.68        24.08957
282.13        24.12639
282.59        24.03874
283.04        23.76576
283.50        23.42368
283.95        23.06137
284.41        22.77301
284.86         22.5705
285.32        22.42986
285.77        22.35803
286.22        22.43539
286.68        22.64008
287.13        22.91466
287.59        23.15888
288.04        23.20928
288.50        23.05691
288.95        22.72996
289.41        22.33235
289.86         21.9526
290.32        21.67915
290.77        21.48758
291.22         21.4005
291.68         21.4128
292.13        21.52207
292.59         21.7398
293.04         22.0679
293.50        22.51627
293.95        23.06062
294.40        23.67175
294.86         24.2897
295.31        24.83838
295.77        25.30145
296.22        25.70008
296.68        26.07094
297.13        26.45421
297.58         26.8811
298.04        27.35094
298.49        27.87147
298.95        28.48941
299.40        29.18548
299.85        29.93409
300.31        30.68576
300.76         31.3623
301.21        31.93724
301.67        32.45217
302.12        32.87727
302.58        33.22878
303.03        33.50237
303.48        33.71438
303.94        33.95969
304.39        34.34624
304.84        34.88917
305.30        35.53628
305.75        36.14642
306.20        36.52079
306.66        36.64299
307.11        36.57631
307.57        36.43811
308.02        36.33453
308.47        36.33038
308.93        36.37841
309.38        36.49337
309.83         36.7472
310.29        37.11568
310.74         37.5734
311.19        37.95902
311.65        38.01282
312.10        37.69443
312.55        37.09192
313.00        36.41645
313.46        35.99827
313.91        35.90222
314.36        36.04721
314.82        36.28299
315.27        36.38117
315.72        36.26176
316.18        36.01306
316.63        35.70702
317.08        35.45806
317.53        35.29726
317.99        35.16809
318.44        35.04935
318.89        34.90597
319.35        34.72562
319.80        34.53198
320.25        34.31973
320.70         34.0751
321.16        33.79595
321.61        33.48569
322.06         33.1721
322.51        32.90747
322.97        32.69477
323.42        32.52624
323.87        32.35132
324.32        32.09146
324.78        31.72609
325.23        31.29236
325.68        30.83376
326.13        30.43014
326.59        30.11188
327.04         29.8801
327.49        29.71542
327.94        29.58739
328.39        29.47843
328.85        29.37541
329.30        29.30985
329.75        29.28829
330.20         29.3008
330.66        29.31241
331.11         29.2911
331.56        29.13751
332.01        28.83416
332.46         28.4098
332.92         27.9368
333.37        27.54677
333.82        27.29085
334.27        27.15984
334.72        27.10963
335.17        27.05688
335.63         26.9617
336.08        26.84136
336.53        26.74671
336.98        26.77386
337.43        26.92805
337.88        27.17452
338.34        27.34555
338.79        27.21908
339.24         26.7436
339.69        25.99506
340.14        25.22593
340.59        24.85855
341.05        24.98114
341.50        25.47306
341.95        26.06934
342.40        26.35453
342.85        26.22886
343.30        25.83166
343.75        25.33274
344.20        25.01189
344.66        24.94578
345.11        25.00281
345.56        25.12727
346.01         25.2351
346.46        25.27787
346.91        25.30878
347.36        25.23899
347.81        24.91523
348.26        24.34861
348.72        23.61818
349.17        22.91154
349.62        22.62229
350.07        22.83185
350.52         23.4024
350.97        24.10579
351.42        24.59707
351.87        24.77186
352.32        24.71852
352.77        24.50541
353.22          24.249
353.67        24.00465
354.13        23.75107
354.58         23.4857
355.03        23.25024
355.48        23.06016
355.93        22.93034
356.38        22.86475
356.83        22.85287
357.28        22.87749
357.73         22.9208
358.18        22.95408
358.63        22.93459
359.08         22.8501
359.53        22.71909
359.98        22.53615
360.43        22.29517
360.88        22.01105
361.33        21.69051
361.78        21.40806
362.23        21.28348
362.68        21.32875
363.13        21.49633
363.58         21.6749
364.03         21.6915
364.48        21.50289
364.93        21.15729
365.38        20.72854
365.83        20.34949
366.28        20.07295
366.73        19.86727
367.18        19.71243
367.63        19.57405
368.08         19.4362
368.53        19.31482
368.98        19.20936
369.43        19.10804
369.88        19.01064
370.33        18.92318
370.78         18.8336
371.23        18.72989
371.68        18.61329
372.13        18.47628
372.58        18.37454
373.03        18.40109
373.48        18.55759
373.93        18.80425
374.38        19.01856
374.83        19.01556
375.28        18.76518
375.72        18.32141
376.17        17.83302
376.62        17.50201
377.07        17.39107
377.52        17.43857
377.97        17.56936
378.42        17.66291
378.87        17.67755
379.32        17.65067
379.77        17.59978
380.22         17.5468
380.67        17.49966
381.11        17.44402
381.56        17.36689
382.01        17.27334
382.46        17.16173
382.91         17.0291
383.36        16.89108
383.81        16.76402
384.26         16.6544
384.71        16.57656
385.15        16.48801
385.60        16.32554
386.05        16.08785
386.50        15.79204
386.95         15.5473
387.40        15.52371
387.85        15.73403
388.29        16.10726
388.74        16.47353
389.19        16.59436
389.64        16.42653
390.09        16.03656
390.54        15.58016
390.98        15.30468
391.43        15.28581
391.88        15.43598
392.33         15.6075
392.78        15.58653
393.23        15.34772
393.67        14.97122
394.12        14.61533
394.57        14.44075
395.02        14.47666
395.47        14.66003
395.91        14.89304
396.36        14.98998
396.81         14.9033
397.26        14.68973
397.71        14.44275
398.15         14.2866
398.60        14.26912
399.05        14.33844
399.50        14.42444
399.95        14.42914
400.39        14.33047
400.84        14.15873
401.29        13.98499
401.74        13.93602
402.18         14.0459
402.63        14.26057
403.08        14.47652
403.53        14.53147
403.97        14.39267
404.42        14.12254
404.87         13.8264
405.32        13.67743
405.76        13.71738
406.21        13.88839
406.66        14.10094
407.11        14.21507
407.55        14.19404
408.00        14.08431
408.45         13.9388
408.90        13.81267
409.34        13.74838
409.79        13.78774
410.24        13.87725
410.68        13.87948
411.13        13.78323
411.58        13.66213
412.03        13.54732
412.47        13.47191
412.92        13.44863
413.37        13.45656
413.81        13.49767
414.26        13.58836
414.71        13.71481
415.15        13.87979
415.60        14.00512
416.05        13.98774
416.49        13.80885
416.94        13.50787
417.39         13.1842
417.83        13.00061
418.28        13.00199
418.73        13.13272
419.17        13.31134
419.62        13.39531
420.07        13.35217
420.51        13.22884
420.96        13.07269
421.41        12.94006
421.85         12.8498
422.30        12.79161
422.74        12.76251
423.19        12.78497
423.64        12.84835
424.08        12.95375
424.53        13.05839
424.98        13.10729
425.42        13.08703
425.87        13.01754
426.31        12.91346
426.76        12.80862
427.21        12.70917
427.65        12.59976
428.10         12.5255
428.54         12.5394
428.99        12.64719
429.44        12.88531
429.88        13.13489
430.33        13.12179
430.77        12.88108
431.22        12.69465
431.66        12.63444
432.11        12.66882
432.56        12.79424
433.00        13.05149
433.45        13.28205
433.89        13.24539
434.34        13.01261
434.78        12.73822
435.23         12.4363
435.67        12.95973
436.12        12.50185
436.57        12.40595
437.01        12.19577
437.46        12.11721
437.90        12.17969
438.35        12.27353
438.79        12.35492
439.24        12.40937
439.68         12.4206
440.13        12.28961
440.57        12.09517
441.02        12.15936
441.46         12.3714
441.91        12.34921
442.35        11.81638
442.80        11.61562
443.24        11.62533
443.69        11.59039
444.13        11.49075
444.58        11.42734
445.02        11.40318
445.47        11.42145
445.91        11.46232
446.36        11.46883
446.80         11.4271
447.24         11.3636
447.69        11.29707
448.13        11.22938
448.58        11.17261
449.02        11.12711
449.47        11.08243
449.91        11.01663
450.36         10.9343
450.80        10.84194
451.25        10.77679
451.69        10.78148
452.13        10.86344
452.58        10.99665
453.02        11.14036
453.47        11.22889
453.91        11.24757
454.36        11.21317
454.80        11.14565
455.24        11.08303
455.69        11.04426
456.13        11.00439
456.58        10.97654
457.02        10.97336
457.46        10.99364
457.91        11.01355
458.35        11.01854
458.79         11.0075
459.24        10.97731
459.68        10.92686
460.13        10.91396
460.57        10.92074
461.01        10.94264
461.46        11.26345
461.90        11.41042
462.34         11.3256
462.79        11.37531
463.23        11.19403
463.68        11.00967
464.12        10.89565
464.56        10.96807
465.01        11.11843
465.45        11.27892
465.89        11.36182
466.34        11.35296
466.78        11.24689
467.22        11.10812
467.67        11.11886
468.11        11.26643
468.55        11.31225
468.99        11.25445
469.44        11.27647
469.88        11.37899
470.32        11.45261
470.77        11.47606
471.21        11.47664
471.65        11.45263
472.10        11.39851
472.54        11.33847
472.98        11.34155
473.42        11.41611
473.87        11.50868
474.31        11.59167
474.75        11.68949
475.20        11.76839
475.64        11.71468
476.08        11.58237
476.52        11.55746
476.97        11.65457
477.41        11.79149
477.85        11.91783
478.29        11.98707
478.74        11.98361
479.18        11.90182
479.62        11.80307
480.06        11.78562
480.50        11.85321
480.95         11.9229
481.39        11.96052
481.83        11.97163
482.27        11.95086
482.72        11.89629
483.16        11.84435
483.60        11.86211
484.04         11.9629
484.48        12.15689
484.93        12.43907
485.37        12.60181
485.81        12.70077
486.25        12.97168
486.69        13.20198
487.14        12.80388
487.58        12.95592
488.02        13.65123
488.46         13.1621
488.90        13.24122
489.34        13.30102
489.79        13.44701
490.23        13.62756
490.67        13.80373
491.11        13.93721
491.55         13.9056
491.99        13.75387
492.43        13.69085
492.88        13.74889
493.32        13.79894
493.76        13.85556
494.20        14.00187
494.64        14.23714
495.08        14.52806
495.52        14.82743
495.96        15.07411
496.41        15.24987
496.85        15.34225
497.29        15.38239
497.73          15.497
498.17        15.67908
498.61        15.75829
499.05         15.7543
499.49        15.85901
499.93        16.08505
500.37        16.29189
500.82        16.46246
501.26        16.70634
501.70        16.97421
502.14        17.04339
502.58        16.95233
503.02        16.95927
503.46         17.0849
503.90        17.19471
504.34         17.2583
504.78        17.28444
505.22        17.26847
505.66        17.22207
506.10        17.17121
506.54        17.15221
506.98        17.18031
507.42        17.24846
507.86        17.35619
508.30        17.50108
508.74        17.67046
509.18         17.8522
509.62        18.02686
510.06        18.16422
510.50        18.25661
510.94         18.3176
511.38        18.33627
511.82        18.29925
512.26        18.21514
512.70        18.08829
513.14        17.98453
513.58        18.00335
514.02        18.15099
514.46        18.39866
514.90        18.64936
515.34        18.68886
515.78        18.50731
516.22         18.2431
516.66        18.01913
517.10        17.67921
517.54        17.26285
517.98          17.912
518.42        17.85597
518.86        18.15976
519.30        18.27099
519.74        18.37684
520.18        18.44858
520.62         18.4167
521.06        18.30064
521.50        18.10268
521.93          17.884
522.37        17.75625
522.81        17.74497
523.25        17.82341
523.69        17.94094
524.13        18.01476
524.57        18.01813
525.01         17.9695
525.45        17.89589
525.89        17.84092
526.32        17.81467
526.76         17.8035
527.20        17.77495
527.64        17.68417
528.08        17.52627
528.52        17.32074
528.96        17.11913
529.40        16.99573
529.83        16.96472
530.27        17.00776
530.71        17.06558
531.15        17.04454
531.59        16.92693
532.03        16.74437
532.46        16.55674
532.90        16.47382
533.34        16.50895
533.78        16.61874
534.22         16.7457
534.66         16.8034
535.09        16.76571
535.53        16.67037
535.97        16.53857
536.41        16.40001
536.85        16.27458
537.28        16.16429
537.72        16.09678
538.16        16.06559
538.60        16.15148
539.04        16.27301
539.47        16.41225
539.91        16.54613
540.35        16.67055
540.79        16.64919
541.22         16.7133
541.66        16.77054
542.10        16.90713
542.54        16.84163
542.97        17.01709
543.41        17.11752
543.85        17.26235
544.29        17.41109
544.72        17.54144
545.16        17.66801
545.60        17.78434
546.04        17.83272
546.47        17.87064
546.91        18.10343
547.35        18.48589
547.79        18.77471
548.22        18.93028
548.66        19.02071
549.10        19.08137
549.53        19.24586
549.97        19.52541
550.41         19.5793
550.84        19.76896
551.28        19.89862
551.72         20.0926
552.15        20.30626
552.59        20.53466
553.03        20.78474
553.46        21.01553
553.90        21.16336
554.34        21.21644
554.77        21.27725
555.21        21.24057
555.65        21.28797
556.08        21.38728
556.52        21.52224
556.96         21.6668
557.39        21.81064
557.83        21.93712
558.27        21.99933
558.70          22.012
559.14        22.04083
559.57        22.08824
560.01        22.14869
560.45        22.20896
560.88        22.22132
561.32        22.23074
561.75        22.29746
562.19        22.49488
562.63        22.61613
563.06        22.67478
563.50        22.73818
563.93        22.80968
564.37        22.93675
564.80        23.01544
565.24        23.13353
565.68        23.24173
566.11        23.34432
566.55        23.45564
566.98        23.53099
567.42        23.56595
567.85         23.8508
568.29        23.77268
568.72        24.05657
569.16        24.44785
569.60        24.70935
570.03        24.79974
570.47          24.887
570.90        24.88594
571.34         25.1881
571.77        24.96736
572.21        25.39833
572.64        25.51791
573.08        25.55708
573.51        25.74131
573.95        26.33632
574.38         26.3878
574.82        26.56256
575.25        26.57026
575.69        26.46366
576.12         26.5215
576.56        26.47061
576.99         26.4297
577.42        26.57491
577.86        26.68673
578.29        26.55292
578.73        27.04029
579.16        26.53094
579.60        26.44421
580.03        26.30141
580.47        26.32024
580.90        25.91745
581.33         25.8573
581.77        26.03611
582.20        26.21513
582.64        25.62496
583.07        25.34774
583.51        25.37668
583.94        25.15843
584.37        25.04917
584.81        24.73546
585.24        24.63292
585.68        24.69445
586.11        24.60393
586.54        24.60267
586.98        24.42501
587.41        24.35221
587.85        24.34996
588.28        24.42693
588.71        24.31491
589.15        24.05315
589.58        23.83986
590.01           23.76
590.45        24.10632
590.88        24.07704
591.31        24.03438
591.75        23.75643
592.18        23.83498
592.61        23.72345
593.05        24.06663
593.48        23.86501
593.91        24.47147
594.35        24.07417
594.78        24.38829
595.21        24.56854
595.65        24.88319
596.08        24.78217
596.51         24.8407
596.94        24.97792
597.38        25.13246
597.81        25.36997
598.24          25.409
598.68        26.02069
599.11        26.18559
599.54        27.09484
599.97         26.9278
600.41        27.21244
600.84        27.75587
601.27        28.15322
601.70        28.49225
602.14         28.5842
602.57         28.9812
603.00        29.64509
603.43        30.10715
603.87        30.36123
604.30        30.72469
604.73        31.23397
605.16        31.52712
605.60        32.13604
606.03        32.54987
606.46        32.83885
606.89        33.54376
607.32        34.17068
607.76        34.31439
608.19        34.61803
608.62         35.1216
609.05        35.18247
609.48         35.3576
609.92        35.44393
610.35        35.77264
610.78        36.77478
611.21        37.09055
611.64        37.25679
612.07        37.51342
612.50        37.62763
612.94        37.92931
613.37        38.13237
613.80        38.39163
614.23        38.62225
614.66        39.04223
615.09        39.25642
615.52        39.62455
615.96        39.96423
616.39        40.25595
616.82        40.54769
617.25        40.37426
617.68        40.78543
618.11        41.00747
618.54        41.27594
618.97        41.29922
619.40        41.13415
619.84        41.18399
620.27        41.15146
620.70        41.52533
621.13        42.07626
621.56        42.27868
621.99        42.21818
622.42        42.25702
622.85         42.4516
623.28        42.53638
623.71        42.52575
624.14        42.53684
624.57         42.6247
625.00        42.47991
625.43        42.54972
625.86        42.14299
626.29        42.08844
626.72        41.90093
627.15        41.80074
627.58        41.72546
628.01        41.61731
628.44        41.53684
628.87        41.36047
629.30        41.04903
629.73        40.55019
630.16        40.64272
630.59         40.0662
631.02        39.83553
631.45        39.56257
631.88        39.23001
632.31        38.81667
632.74        38.46284
633.17        37.99378
633.60        37.57727
634.03        37.16507
634.46        36.77121
634.89        36.37592
635.32        35.94076
635.75        35.46647
636.18        34.97495
636.61        34.49206
637.04        34.05058
637.47        33.65727
637.89        33.30208
638.32        32.96835
638.75        32.64702
639.18        32.33575
639.61        32.04606
640.04         31.7685
640.47         31.4834
640.90        31.19203
641.33        30.90113
641.76        30.64478
642.18        30.48288
642.61        30.42006
643.04        30.43671
643.47        30.49263
643.90        30.52036
644.33        30.50206
644.76        30.46185
645.18        30.41981
645.61        30.41255
646.04        30.45641
646.47        30.54208
646.90         30.6837
647.33        30.90542
647.75        31.20436
648.18        31.56441
648.61        31.95582
649.04        32.32324
649.47        32.65719
649.89        32.98632
650.32        33.32474
650.75        33.69498
651.18        34.14025
651.61        34.61454
652.03        35.14025
652.46        35.95285
652.89        36.91768
653.32        37.30875
653.74        37.29739
654.17        37.71588
654.60        38.76773
655.03        39.73832
655.46        39.54983
655.88        40.84077
656.31        41.65073
656.74        45.98615
657.16          44.475
657.59        42.05895
658.02        42.44978
658.45        43.02086
658.87        43.89199
659.30         44.2323
659.73           44.75
660.15        45.50754
660.58        45.56024
661.01        45.57957
661.44        45.41014
661.86          45.632
662.29        46.22268
662.72        46.86226
663.14        47.39425
663.57        47.47197
664.00        47.23276
664.42        47.29454
664.85        47.71869
665.27        48.10362
665.70        48.36998
666.13        48.60985
666.55        48.80693
666.98        48.93663
667.41        49.01978
667.83        49.08627
668.26        49.14308
668.69        49.19333
669.11        49.25838
669.54        49.33835
669.96        49.43381
670.39        49.62002
670.82        49.86958
671.24        49.91446
671.67        49.88931
672.09        50.13483
672.52        50.58426
672.94        50.79085
673.37        50.65286
673.80        50.53439
674.22        50.48556
674.65         50.4798
675.07        50.55017
675.50        50.70885
675.92        50.90179
676.35         50.9966
676.77         50.9748
677.20        50.88087
677.62        50.76868
678.05        50.73342
678.47        50.79367
678.90        50.91658
679.32        51.07792
679.75        51.23705
680.17        51.37193
680.60        51.52145
681.02        51.66441
681.45        51.67997
681.87        51.61184
682.30        51.62732
682.72        51.73278
683.15        51.79116
683.57        51.81362
684.00        51.80029
684.42        51.92464
684.85        52.04046
685.27        52.19042
685.70        52.37772
686.12        52.55753
686.54        52.69268
686.97        52.76863
687.39        52.73918
687.82        52.64651
688.24        52.72708
688.66        52.92976
689.09        52.91408
689.51        52.70841
689.94        52.62386
690.36        52.68952
690.78        52.71587
691.21        52.70518
691.63        52.79974
692.06        53.00963
692.48        53.17158
692.90        53.25185
693.33        53.67973
693.75        53.52233
694.17        53.55026
694.60        53.51875
695.02         53.4244
695.44        53.28225
695.87        53.35442
696.29        53.56968
696.71        53.37621
697.14        52.98191
697.56        53.23587
697.98        53.91591
698.41        54.72892
698.83        54.22419
699.25        54.01858
699.68        53.78989
700.10        53.96137
700.52        53.78219
700.94        53.92008
701.37        54.09445
701.79        54.26429
702.21        54.37844
702.64        54.45909
703.06         54.5295
703.48        54.61545
703.90        54.72655
704.33        54.84235
704.75        54.92852
705.17        54.91247
705.59        54.78671
706.01        54.58137
706.44        54.38687
706.86        54.33554
707.28        54.44895
707.70        54.71073
708.12        55.02831
708.55        55.18256
708.97        55.16621
709.39        55.18055
709.81        55.24307
710.23        55.24767
710.66        55.20929
711.08        55.20694
711.50        55.24617
711.92        55.30981
712.34        55.39951
712.76        55.52466
713.19         55.6528
713.61        55.77521
714.03        55.86573
714.45         55.9161
714.87        55.94087
715.29         56.0129
715.71        56.14965
716.13        56.14944
716.56         56.3133
716.98        56.39863
717.40        56.47646
717.82         56.5393
718.24        56.58747
718.66        56.61549
719.08        56.61884
719.50        56.59886
719.92        56.55908
720.34         56.5048
720.76        56.44146
721.19        56.37376
721.61        56.31137
722.03        56.23748
722.45        56.17512
722.87        56.12515
723.29        56.11592
723.71        56.18018
724.13        56.32065
724.55        56.52549
724.97        56.78133
725.39        57.00587
725.81        57.16253
726.23         57.3778
726.65         57.6623
727.07        57.47999
727.49        57.62082
727.91        57.69541
728.33        57.88198
728.75         57.8975
729.17        57.73401
729.59        57.53836
730.01        57.37511
730.43        57.30331
730.85        57.34556
731.27        57.48277
731.69        57.66432
732.10        57.81548
732.52        57.89872
732.94        57.92926
733.36        57.91831
733.78        57.88831
734.20        57.86425
734.62        57.84578
735.04        57.81988
735.46        57.81368
735.88        57.83122
736.30        57.68089
736.72         57.7402
737.13         57.8889
737.55         58.1657
737.97        58.64641
738.39        59.13937
738.81        59.02539
739.23        58.42766
739.65        58.22003
740.06        58.40653
740.48        58.49366
740.90        58.43784
741.32        58.03391
741.74        57.98407
742.16        58.00159
742.57        58.31767
742.99        58.43631
743.41        58.82495
743.83        58.97605
744.25         59.0083
744.67        58.91494
745.08        58.75505
745.50        58.60573
745.92         58.5035
746.34        58.42758
746.75        58.36992
747.17        58.31253
747.59        58.26036
748.01        58.25613
748.42        58.29174
748.84        58.33392
749.26         58.4082
749.68        58.42631
750.09        58.44796
750.51        58.81626
750.93         59.3575
751.35        59.39087
751.76        58.98814
752.18        58.64075
752.60        58.74406
753.01        58.73447
753.43        58.47079
753.85        58.41691
754.27        58.51224
754.68        58.75957
755.10        59.04252
755.52        59.06548
755.93        58.86185
756.35        58.77817
756.77        58.87071
757.18        58.98635
757.60        59.15505
758.02        59.43869
758.43        59.70813
758.85        60.02272
759.26        59.92373
759.68          59.661
760.10        59.40106
760.51        59.17711
760.93        59.11615
761.34        58.80802
761.76        58.83761
762.18        58.77335
762.59        58.82988
763.01          59.039
763.42        59.38204
763.84        59.65745
764.26        59.81461
764.67        59.65958
765.09        59.40236
765.50        59.61854
765.92        60.20511
766.33        60.49639
766.75        60.34783
767.16        59.95211
767.58        59.44121
768.00        59.20351
768.41        59.33403
768.83        59.54647
769.24        59.76367
769.66        60.08871
770.07         60.3983
770.49        60.39424
770.90        60.17729
771.32        60.19773
771.73        60.44873
772.15        60.58765
772.56        60.59149
772.97        60.35318
773.39        60.25722
773.80        60.06001
774.22        59.88408
774.63        59.64138
775.05        59.45187
775.46        59.47958
775.88        59.73333
776.29        60.18583
776.70        60.65454
777.12        60.85352
777.53        60.72609
777.95        60.33897
778.36        59.87376
778.77        59.64723
779.19          59.738
779.60        60.08764
780.02        60.50146
780.43        60.77858
780.84        60.85326
781.26        60.58161
781.67        60.19038
782.09          60.566
782.50        61.50187
782.91        61.62739
783.33        61.09876
783.74        60.96662
784.15        61.27923
784.57        61.45377
784.98        61.39344
785.39        61.04173
785.81        60.50218
786.22        60.22705
786.63        60.24824
787.04        60.22795
787.46        60.17453
787.87        60.30779
788.28        60.59786
788.70        60.87054
789.11        61.08366
789.52        61.26292
789.93        61.39081
790.35        61.53316
790.76        61.29307
791.17        61.27238
791.58        61.44637
792.00        60.76041
792.41        60.93152
792.82        60.85579
793.23        60.94522
793.65        60.62638
794.06        60.12201
794.47        60.24302
794.88        60.80897
795.29        61.69348
795.71        61.20927
796.12        61.38979
796.53        61.70699
796.94        61.48976
797.35        60.85909
797.76        60.69054
798.18        61.01218
798.59         61.2054
799.00        61.21106
799.41        61.32496
799.82        61.49954
800.23         61.5652
800.64        61.49852
801.06        61.26729
801.47        61.02277
801.88        61.00565
802.29        61.24795
802.70        61.63842
803.11        62.02059
803.52        62.14424
803.93        61.96783
804.34        61.60555
804.75        61.14349
805.17        60.84685
805.58        60.83492
805.99        60.60888
806.40        60.31156
806.81        61.23972
807.22        62.89863
807.63        62.81284
808.04        61.26356
808.45        60.86592
808.86        61.79198
809.27        62.54728
809.68        62.87691
810.09        63.07659
810.50        63.06084
810.91        62.75238
811.32        62.29247
811.73        61.89404
812.14        61.62627
812.55        61.50513
812.96        61.47514
813.37        61.31229
813.78        61.04567
814.19        60.97314
814.60         61.0836
815.01        61.14976
815.42        61.15845
815.83        61.20878
816.24        61.32562
816.65        61.49569
817.05        61.71404
817.46         61.9404
817.87        62.11029
818.28        62.08715
818.69        61.86734
819.10        61.50309
819.51        61.13176
819.92        61.03898
820.33        61.30582
820.74        61.72851
821.14        62.22083
821.55        62.87224
821.96        63.49608
822.37        63.53511
822.78        63.07819
823.19        62.81943
823.60        62.83856
824.00        62.76891
824.41        62.56194
824.82        62.40514
825.23        62.31173
825.64        62.25916
826.04        62.25813
826.45        62.26756
826.86        62.28511
827.27        62.31839
827.68        62.35237
828.08        62.37847
828.49        62.35158
828.90        62.29847
829.31        62.23821
829.72        62.20948
830.12        62.24111
830.53        62.28528
830.94        62.34538
831.35        62.40073
831.75        62.46265
832.16        62.50078
832.57        62.52142
832.97        62.50986
833.38        62.45226
833.79        62.35192
834.20        62.24489
834.60        62.17991
835.01        62.18434
835.42        62.25629
835.82        62.34524
836.23        62.31747
836.64        62.16719
837.04        61.92336
837.45        61.70031
837.86        61.72237
838.26        62.03929
838.67        62.56153
839.08        63.09543
839.48        63.27607
839.89        63.01841
840.29        62.46631
840.70        61.89125
841.11        61.63313
841.51        61.78564
841.92        62.18742
842.33        62.75261
842.73        63.33147
843.14        63.75804
843.54        64.13367
843.95        64.32044
844.35        64.16445
844.76        63.68247
845.17        62.95137
845.57         62.2228
845.98        61.90377
846.38        62.07941
846.79        62.63275
847.19        63.41388
847.60        64.01672
848.00        64.33763
848.41        64.42257
848.81        64.37959
849.22         64.3045
849.62         64.2765
850.03        64.20567
850.43        64.12489
850.84        64.03732
851.24        63.98529
851.65        63.94201
852.05        63.92496
852.46        63.83954
852.86        63.68593
853.27          63.517
853.67        63.32095
854.07        63.19241
854.48        63.12868
854.88        63.13391
855.29        63.16039
855.69        63.25481
856.10        63.34167
856.50        63.47345
856.90         63.6157
857.31        63.73313
857.71        63.87475
858.12        63.98281
858.52        64.05721
858.92        63.99679
859.33        63.77711
859.73        63.43937
860.13        63.08142
860.54        62.90176
860.94        62.99911
861.34        63.30253
861.75        63.59872
862.15        63.62109
862.55        63.27891
862.96        62.70437
863.36        62.10258
863.76        61.79986
864.17        61.88163
864.57        62.24267
864.97        62.78715
865.38        63.36121
865.78         63.9294
866.18        64.45136
866.58        64.79639
866.99         64.7479
867.39        64.30409
867.79        63.52023
868.19        62.49195
868.60        61.36499
869.00        60.19638
869.40        59.03338
869.80        58.13658
870.21        57.89973
870.61        58.43136
871.01        59.57039
871.41        60.86818
871.81        61.60067
872.22        61.62587
872.62        61.14406
873.02        60.43037
873.42        60.23375
873.82        60.45595
874.22        60.21418
874.63        59.77818
875.03        59.78815
875.43        60.29765
875.83        62.42899
876.23        62.23333
876.63        61.35699
877.03        59.10291
877.44        55.63907
877.84        141.4772
878.24        55.40496
878.64        57.35616
879.04        62.90917
879.44        58.78984
879.84        56.63348
880.24        62.62851
880.64        63.08764
881.04        59.44997
881.44         57.2022
881.84        57.18936
882.24        58.51312
882.65        60.41581
883.05        61.31836
883.45        60.75206
883.85        59.61185
884.25        58.53779
884.65        58.11725
885.05        58.53326
885.45        59.54526
885.85        60.70185
886.25        61.28363
886.65        61.09068
887.05        60.37749
887.45        59.53011
887.85        59.11658
888.25        59.28069
888.65        59.82717
889.04        60.53436
889.44        60.96233
889.84        60.99272
890.24         60.7713
890.64        60.41873
891.04        60.10456
891.44        59.87155
891.84        59.62052
892.24        59.36127
892.64          59.128
893.04        58.93695
893.44        58.85278
893.83        58.73397
894.23        58.37764
894.63        57.76184
895.03        56.92182
895.43        56.17857
895.83        56.06903
896.23        56.68461
896.63        57.87589
897.02        59.13023
897.42        59.53133
897.82        58.88478
898.22        57.49497
898.62        55.97282
899.01        55.25119
899.41        55.55783
899.81        56.55713
900.21        57.82909
900.61        58.74414
901.00        59.10487
901.40        59.07901
901.80        58.84836
902.20        58.68818
902.59        58.69889
902.99        58.78656
903.39        58.81897
903.79         58.5991
904.18        58.10796
904.58        57.49887
904.98        57.02106
905.38        57.03706
905.77        57.58982
906.17        58.52734
906.57        59.54819
906.96        60.21471
907.36        60.34563
907.76        60.04309
908.15        59.51844
908.55        59.06099
908.95        58.79725
909.34        58.70519
909.74        58.59714
910.14        58.13507
910.53        57.28199
910.93        56.22112
911.33         55.4272
911.72        55.63975
912.12        56.88777
912.52        58.81911
912.91        60.76289
913.31        61.60772
913.70        61.15131
914.10        59.70449
914.49        57.69938
914.89        56.16046
915.29        55.51194
915.68        55.50555
916.08        55.98212
916.47        56.69949
916.87        57.47908
917.26        58.38306
917.66        59.23584
918.05        59.76087
918.45        59.86877
918.84        59.65699
919.24        59.14231
919.64        58.40543
920.03        57.55521
920.42        56.61517
920.82        55.95904
921.21        56.11183
921.61        57.06646
922.00         58.6849
922.40        60.31728
922.79        61.12854
923.19        60.91301
923.58        59.62099
923.98        57.60569
924.37        56.51255
924.77        56.99326
925.16        54.13085
925.55        56.14919
925.95        56.10474
926.34        56.41617
926.74        56.87039
927.13        57.53893
927.52        58.26915
927.92         58.9513
928.31        59.66477
928.70        60.18289
929.10        60.18019
929.49        59.60939
929.89        58.59028
930.28        57.54556
930.67        57.15788
931.07        57.54869
931.46        58.56523
931.85        59.74732
932.24         60.4044
932.64        60.34521
933.03        59.65017
933.42        58.60577
933.82        57.82247
934.21        57.49156
934.60        57.50054
934.99        57.34025
935.39        56.66273
935.78        55.46802
936.17        53.12137
936.56        49.94138
936.96        51.75919
937.35        51.33664
937.74        54.15073
938.13        56.91652
938.53        58.72913
938.92        59.48107
939.31        59.50694
939.70        59.10835
940.09        58.66983
940.49        58.42437
940.88        58.28636
941.27        58.28297
941.66        58.49639
942.05        58.89354
942.44        59.42182
942.84        60.05579
943.23         60.7195
943.62        61.32037
944.01        61.90365
944.40        62.13555
944.79        61.49256
945.18        59.92656
945.57        57.55875
945.97        55.21292
946.36        54.32767
946.75        55.32703
947.14        57.66901
947.53         60.2857
947.92        61.71716
948.31        61.67415
948.70        60.60583
949.09        59.04025
949.48        57.90978
949.87         57.5524
950.26        57.65794
950.65        58.03059
951.04        58.36727
951.43        58.53419
951.82        58.68511
952.21        58.77868
952.60         58.6999
952.99         58.4403
953.38        57.97998
953.77        57.45387
954.16        57.10831
954.55        56.99908
954.94        57.09465
955.33        57.22673
955.72        57.09425
956.11        56.64493
956.50        55.97798
956.89        55.35253
957.28        55.25145
957.66        55.79283
958.05        56.67217
958.44        57.59904
958.83        58.20023
959.22        58.37673
959.61        58.25847
960.00        57.79728
960.39        56.93661
960.78        55.77152
961.16        54.34424
961.55        53.05436
961.94        52.38587
962.33        52.42874
962.72        53.07842
963.11        53.97794
963.49        54.48482
963.88        54.33989
964.27        53.74823
964.66        53.01577
965.04        52.66927
965.43         52.8531
965.82        53.39308
966.21        54.08025
966.60        54.58859
966.98        54.81936
967.37        54.85369
967.76        54.83228
968.15        54.94895
968.53         55.2617
968.92        55.61624
969.31        55.89853
969.69        55.93324
970.08         55.6265
970.47        55.08115
970.86        54.37613
971.24        53.59537
971.63        52.85926
972.02        52.18051
972.40        51.59219
972.79        51.18436
973.17        50.99126
973.56        50.92085
973.95        51.05069
974.33        51.49018
974.72         52.0968
975.11         52.8057
975.49        53.30871
975.88        53.13097
976.26        52.22451
976.65        50.80276
977.04        49.19187
977.42        47.97038
977.81        47.38211
978.19        47.25504
978.58         47.5899
978.96        48.34067
979.35        49.36895
979.74        50.77962
980.12           52.22
980.51        52.82233
980.89        52.51909
981.28        51.44126
981.66        50.31705
982.05        50.18603
982.43        51.19934
982.82        53.02877
983.20        55.06042
983.59        55.89692
983.97        55.22652
984.35        53.41316
984.74        51.25391
985.12        49.88727
985.51        49.65609
985.89        50.18656
986.28        51.09898
986.66        51.60534
987.04        51.36386
987.43        50.75362
987.81        49.84246
988.20        48.58318
988.58         46.8979
988.96        44.52105
989.35        41.94436
989.73        40.65209
990.12        41.41664
990.50        43.83377
990.88        46.47494
991.27        47.66524
991.65        47.41429
992.03        46.13608
992.42        44.72144
992.80        44.81804
993.18        46.86864
993.56        49.96084
993.95        53.13017
994.33        55.54967
994.71        56.79135
995.10         57.2052
995.48        56.81279
995.86        55.48216
996.24        53.30026
996.63        50.27146
997.01        46.83035
997.39        44.53008
997.77        44.12405
998.15        45.17915
998.54        46.94872
998.92        48.61205
999.30        49.99623
999.68        51.50491
1000.06         52.5702
1000.45        51.61735
1000.83        48.54766
1001.21        44.37774
1001.59        40.92138
1001.97        39.53665
1002.35        40.01429
1002.73        41.98306
1003.12        44.72654
1003.50        46.31767
1003.88        45.80319
1004.26        43.85128
1004.64        41.23533
1005.02         39.0197
1005.40        37.56361
1005.78        36.44971
1006.16        36.12253
1006.54        37.41056
1006.92         39.9479
1007.30        42.99937
1007.69        45.44697
1008.07        46.37951
1008.45        45.53805
1008.83        42.89569
1009.21         37.8716
1009.59        30.97924
1009.97        24.11231
1010.35        18.40765
1010.73        15.95623
1011.11          17.762
1011.49        22.87177
1011.86        30.74392
1012.24        37.88001
1012.62        40.94514
1013.00        39.74476
1013.38        35.38516
1013.76         29.9686
1014.14        27.28052
1014.52        28.40492
1014.90        32.22376
1015.28         36.7803
1015.66        38.78396
1016.04        37.12494
1016.41        32.56798
1016.79        26.52736
1017.17        22.53958
1017.55        22.30243
1017.93        24.37531
1018.31        27.20431
1018.69        29.48507
1019.06        30.90896
1019.44        31.63493
1019.82        31.67993
1020.20        30.78688
1020.58         28.9494
1020.95         26.4782
1021.33        22.82218
1021.71        15.95069
1022.09        3.684513
1022.46       -19.99805
1022.84       -55.65584
1023.22       -67.85326
1023.60       -36.06703
1023.97        1.328098
1024.35         22.9415
1024.73        30.35424
