SpectraSmart Spectrum 2.9.0.0
--------- Device Information -----------
Spectrum Name :  反射率_0
Saving Time :  2024/04/20 00:57:02
Spectro-Module Model Name : SE2030-DUVN
Spectro-Module Serial Number : OS361AC55029948
Wavelength Start : 200
Wavelength End : 1025
Wavelength Unit : Wavelength(nm)
Spectrum Unit : Reflectance(%)
-----------Spectrum Setting ------------
Integration Time : 30ms
Average : 10
Boxcar : 0
Background removal :  enabled
linearity correction :  enabled
SC :  disabled
Intensity correction :  disabled
DWT denoise :  enabled
savitzky-golay :  disabled
FFT :  disabled
Running average :  disabled
Kalman :  disabled
High pass :  disabled
---------------BEGIN--------------------
Wavelength(nm)             Reflectance(%)
200.29               0
200.75        51.13973
201.21        52.70397
201.67        56.52545
202.13        62.05819
202.58         68.7187
203.04        76.84888
203.50        83.87152
203.96        84.04723
204.42        77.87116
204.88        69.32915
205.34        62.11231
205.80        57.85196
206.26        55.73074
206.72        54.86322
207.18        54.94686
207.64        54.97622
208.10        54.31787
208.55        53.97598
209.01        53.55249
209.47        53.39254
209.93         53.4311
210.39        53.44543
210.85         53.3153
211.31        52.99607
211.77        52.40884
212.23         51.4618
212.69        50.34181
213.14        50.05353
213.60        50.57699
214.06         51.8064
214.52        52.95924
214.98        53.66044
215.44        53.98729
215.90        53.83523
216.36        53.82516
216.81        55.16433
217.27        57.86465
217.73         61.4492
218.19        63.96285
218.65        62.77658
219.11        57.47118
219.57        48.32321
220.02        37.56967
220.48        31.61583
220.94        32.75368
221.40        39.93862
221.86        49.13744
222.32        53.97331
222.77        52.95567
223.23        48.23186
223.69        43.18972
224.15        42.57412
224.61        46.28993
225.06        51.64438
225.52        56.15532
225.98         57.8956
226.44        56.92046
226.90        54.21999
227.36        50.79339
227.81        48.33799
228.27        47.76612
228.73        48.31973
229.19         49.4081
229.65        50.34274
230.10        50.92403
230.56        51.43275
231.02        51.90258
231.48        52.37888
231.93        52.82223
232.39        53.14978
232.85         53.3272
233.31        53.36867
233.77         53.2656
234.22         53.0523
234.68        52.63951
235.14        51.77691
235.60        50.52553
236.05        49.05965
236.51        47.77227
236.97        47.19844
237.43        47.51817
237.88        48.87016
238.34        51.02353
238.80        53.23231
239.26        54.67174
239.71        55.17129
240.17        54.83296
240.63        54.55169
241.08        54.67756
241.54        54.97231
242.00        54.84522
242.46         53.0542
242.91        48.84319
243.37        41.30942
243.83        31.10062
244.28        25.07638
244.74        30.01134
245.20         44.4106
245.66         58.5225
246.11        64.17604
246.57        60.78557
247.03        49.03511
247.48        31.54025
247.94        24.89167
248.40        32.50968
248.85         43.1496
249.31        51.19588
249.77        55.56266
250.22        57.31738
250.68        57.88118
251.14        57.48076
251.59        56.09589
252.05        54.15941
252.51        51.63501
252.96        49.00225
253.42        47.57219
253.88        47.72828
254.33        49.11023
254.79        51.86684
255.25        55.80094
255.70        60.41486
256.16        65.18732
256.62        69.06174
257.07        70.87471
257.53        70.82352
257.99        69.34819
258.44        66.91286
258.90        64.93909
259.35        63.37725
259.81        62.51143
260.27        61.73613
260.72        60.52829
261.18        59.11904
261.63        57.27371
262.09         55.7732
262.55         55.1573
263.00        55.31646
263.46        56.08926
263.91        56.54084
264.37        55.86802
264.83        54.08891
265.28        51.54757
265.74        49.30386
266.19        48.37825
266.65        48.90644
267.11        50.29633
267.56        51.73315
268.02        52.06119
268.47        51.07429
268.93        49.19114
269.38         46.9179
269.84        45.30807
270.30        44.65008
270.75        44.63602
271.21         44.8899
271.66        44.84085
272.12        44.32014
272.57        43.50933
273.03        42.63439
273.48        41.93453
273.94        41.52163
274.39         41.2484
274.85        40.97905
275.31        40.48555
275.76        39.71361
276.22        38.78408
276.67        37.84332
277.13        37.22195
277.58        36.90211
278.04        36.80508
278.49        36.66559
278.95        36.19217
279.40        35.30902
279.86        34.23177
280.31        33.10141
280.77        32.26446
281.22        31.72192
281.68        31.39869
282.13        31.17932
282.59        30.94584
283.04        30.64339
283.50        30.34737
283.95        30.02864
284.41        29.68612
284.86        29.30255
285.32        28.89628
285.77        28.51495
286.22        28.30813
286.68        28.28829
287.13        28.38756
287.59        28.49312
288.04        28.40795
288.50        28.12012
288.95        27.65775
289.41        27.16817
289.86        26.79995
290.32        26.64093
290.77        26.63335
291.22        26.70597
291.68        26.71858
292.13         26.6461
292.59        26.54848
293.04        26.53418
293.50         26.7845
293.95        27.31332
294.40        28.04467
294.86        28.82537
295.31        29.42992
295.77        29.80672
296.22        30.02402
296.68        30.20299
297.13        30.51884
297.58        31.03426
298.04        31.70149
298.49         32.4433
298.95        33.18015
299.40        33.86431
299.85        34.51831
300.31        35.16895
300.76        35.84684
301.21        36.55154
301.67        37.28571
302.12        37.96277
302.58        38.52715
303.03        38.95319
303.48        39.28827
303.94        39.65989
304.39        40.21643
304.84        40.98672
305.30         41.9035
305.75        42.80031
306.20        43.45005
306.66        43.82451
307.11         43.9813
307.57        44.06082
308.02        44.19357
308.47        44.44917
308.93         44.7776
309.38        45.14319
309.83        45.55025
310.29         45.9752
310.74         46.4188
311.19        46.80246
311.65        46.99424
312.10        46.96652
312.55        46.75154
313.00         46.4755
313.46        46.33836
313.91        46.36839
314.36        46.53075
314.82        46.69759
315.27        46.68498
315.72        46.44157
316.18        46.04805
316.63        45.62405
317.08        45.36272
317.53        45.30489
317.99        45.38076
318.44        45.48927
318.89        45.45376
319.35        45.22531
319.80        44.85927
320.25        44.44098
320.70        44.10875
321.16        43.89423
321.61        43.75877
322.06        43.62809
322.51        43.38947
322.97        43.00747
323.42        42.53204
323.87        42.02383
324.32        41.58499
324.78        41.23872
325.23        40.96914
325.68        40.71549
326.13        40.38635
326.59        39.95837
327.04        39.48766
327.49        39.02774
327.94        38.66835
328.39        38.42823
328.85        38.25246
329.30        38.13756
329.75        38.01674
330.20        37.86353
330.66        37.68048
331.11        37.47305
331.56        37.18565
332.01        36.81627
332.46        36.37409
332.92        35.92064
333.37        35.58442
333.82        35.39959
334.27        35.35146
334.72        35.37268
335.17        35.34041
335.63        35.20462
336.08        35.00379
336.53        34.80067
336.98        34.71923
337.43        34.78359
337.88        34.95469
338.34        35.09663
338.79        35.03934
339.24        34.72763
339.69        34.21214
340.14        33.67152
340.59        33.40455
341.05        33.46564
341.50        33.76909
341.95        34.10364
342.40        34.13972
342.85         33.8117
343.30        33.24522
343.75        32.61359
344.20        32.19812
344.66        32.07821
345.11        32.13418
345.56        32.30389
346.01        32.48546
346.46        32.61771
346.91        32.74059
347.36        32.76469
347.81        32.54303
348.26        32.08189
348.72        31.45411
349.17        30.81499
349.62        30.50716
350.07        30.60699
350.52         30.9948
350.97        31.50647
351.42        31.89073
351.87        32.06086
352.32        32.08302
352.77        31.95967
353.22        31.69823
353.67        31.33547
354.13        30.89189
354.58        30.43589
355.03        30.12338
355.48        29.99204
355.93        30.01037
356.38         30.1242
356.83        30.23431
357.28        30.29538
357.73         30.3191
358.18        30.28993
358.63        30.18795
359.08        30.01689
359.53        29.78613
359.98        29.51514
360.43        29.23796
360.88        28.97187
361.33        28.71376
361.78        28.49859
362.23        28.37762
362.68        28.34956
363.13        28.39132
363.58        28.42709
364.03        28.33902
364.48        28.09837
364.93        27.73314
365.38        27.30552
365.83        26.93012
366.28        26.64845
366.73        26.43456
367.18        26.25625
367.63        26.05785
368.08        25.82486
368.53        25.58375
368.98        25.35388
369.43        25.15537
369.88        24.99507
370.33        24.86648
370.78        24.75578
371.23        24.64609
371.68          24.533
372.13        24.41412
372.58        24.31794
373.03        24.29329
373.48        24.33685
373.93        24.41936
374.38        24.47218
374.83        24.39308
375.28        24.16404
375.72        23.81431
376.17        23.42728
376.62        23.09697
377.07        22.86648
377.52        22.71613
377.97        22.63735
378.42        22.61321
378.87        22.62373
379.32        22.66265
379.77        22.71017
380.22        22.73304
380.67        22.72062
381.11        22.68485
381.56         22.5974
382.01        22.43845
382.46        22.21417
382.91         21.9283
383.36        21.65986
383.81        21.52648
384.26        21.54273
384.71        21.68123
385.15        21.81592
385.60        21.75613
386.05        21.46984
386.50        21.02096
386.95        20.56658
387.40        20.35534
387.85        20.43501
388.29        20.71325
388.74        21.03399
389.19        21.16781
389.64        21.06507
390.09        20.79028
390.54        20.46564
390.98        20.27711
391.43        20.28765
391.88        20.42186
392.33        20.55694
392.78        20.52104
393.23        20.29567
393.67        19.93817
394.12        19.60474
394.57        19.43913
395.02        19.46802
395.47        19.64101
395.91        19.85266
396.36        19.89768
396.81        19.73527
397.26        19.42929
397.71         19.1134
398.15        18.96758
398.60        19.04485
399.05         19.2639
399.50        19.49958
399.95        19.57603
400.39        19.45474
400.84        19.18535
401.29        18.87557
401.74        18.72095
402.18         18.7824
402.63        18.99103
403.08        19.21687
403.53        19.25347
403.97        19.05988
404.42        18.71808
404.87        18.36358
405.32        18.21534
405.76        18.31977
406.21        18.59544
406.66         18.9163
407.11         19.0891
407.55        19.06186
408.00        18.89733
408.45        18.66334
408.90        18.43256
409.34        18.26991
409.79        18.23952
410.24        18.28534
410.68        18.24465
411.13        18.10577
411.58        17.95872
412.03         17.8387
412.47        17.77655
412.92        17.78235
413.37        17.83362
413.81        17.92137
414.26        18.04891
414.71        18.19865
415.15        18.37483
415.60        18.50762
416.05        18.51296
416.49        18.37479
416.94        18.12367
417.39        17.84508
417.83        17.67924
418.28        17.66691
418.73        17.76222
419.17        17.89487
419.62        17.94104
420.07        17.87516
420.51         17.7401
420.96        17.58516
421.41        17.46598
421.85        17.39677
422.30        17.36727
422.74        17.36769
423.19        17.41584
423.64        17.49761
424.08        17.61766
424.53        17.72438
424.98        17.75567
425.42        17.69943
425.87        17.57683
426.31        17.42097
426.76        17.29243
427.21        17.20041
427.65        17.12411
428.10        17.08576
428.54        17.09471
428.99        17.15179
429.44        17.32885
429.88        17.52232
430.33        17.45323
430.77        17.17563
431.22        17.03192
431.66        17.06838
432.11        17.15919
432.56        17.27836
433.00        17.50956
433.45        17.67548
433.89        17.52588
434.34        17.18884
434.78        16.84436
435.23        16.50549
435.67        17.30974
436.12        16.83823
436.57        16.88281
437.01        16.76504
437.46        16.75112
437.90        16.84097
438.35        16.90105
438.79        16.91443
439.24        16.93328
439.68        16.95659
440.13        16.82854
440.57        16.63713
441.02        16.79667
441.46        17.14488
441.91        17.16238
442.35        16.45727
442.80        16.18917
443.24        16.19347
443.69        16.11047
444.13        15.93193
444.58        15.82717
445.02        15.80774
445.47        15.87157
445.91        15.96802
446.36        15.97753
446.80        15.87625
447.24        15.71788
447.69         15.5581
448.13        15.44786
448.58        15.41139
449.02        15.43005
449.47          15.464
449.91        15.44354
450.36        15.35942
450.80        15.23078
451.25         15.1125
451.69        15.07161
452.13        15.12372
452.58        15.23447
453.02        15.35353
453.47        15.40447
453.91        15.37055
454.36        15.27684
454.80        15.15253
455.24        15.04731
455.69        14.98719
456.13         14.9403
456.58           14.92
457.02        14.93829
457.46        14.98816
457.91        15.03122
458.35        15.04935
458.79        15.05027
459.24        15.02784
459.68        14.98276
460.13        14.96995
460.57        14.93216
461.01        14.86205
461.46        15.16035
461.90        15.23075
462.34        15.07288
462.79        15.18634
463.23        15.06504
463.68        14.95821
464.12        14.87292
464.56        14.94054
465.01        15.04415
465.45        15.14194
465.89        15.18741
466.34        15.17484
466.78        15.07324
467.22        14.93414
467.67          14.947
468.11        15.08175
468.55        15.03969
468.99        14.85625
469.44        14.82872
469.88        14.96972
470.32        15.11728
470.77         15.2162
471.21        15.25826
471.65        15.22948
472.10        15.13429
472.54        15.02062
472.98        15.00085
473.42        15.09247
473.87        15.21656
474.31        15.32985
474.75        15.45919
475.20        15.55763
475.64        15.47943
476.08        15.29636
476.52        15.25184
476.97        15.36689
477.41        15.53405
477.85        15.69191
478.29        15.78746
478.74        15.80143
479.18        15.72292
479.62        15.62787
480.06        15.63852
480.50        15.75493
480.95         15.8671
481.39        15.92871
481.83        15.94097
482.27        15.90072
482.72        15.82103
483.16        15.73737
483.60         15.7154
484.04        15.76618
484.48        15.91192
484.93        16.17042
485.37        16.42382
485.81        16.48799
486.25        17.20086
486.69        17.92429
487.14        17.53908
487.58        16.91563
488.02        17.59724
488.46        17.38918
488.90        17.52249
489.34        17.20101
489.79        17.21037
490.23        17.51871
490.67        17.76947
491.11        17.90613
491.55         17.8613
491.99        17.68982
492.43        17.64639
492.88        17.76562
493.32        17.86664
493.76        17.96268
494.20        18.15656
494.64        18.44383
495.08        18.81003
495.52         19.1807
495.96        19.39358
496.41        19.45878
496.85        19.51101
497.29        19.59305
497.73        19.74447
498.17        19.95196
498.61        20.07576
499.05        20.12547
499.49        20.27864
499.93        20.54261
500.37        20.75569
500.82        20.91493
501.26        21.18785
501.70        21.51979
502.14        21.61797
502.58         21.5206
503.02        21.53909
503.46        21.69658
503.90        21.83159
504.34        21.90835
504.78        21.94258
505.22        21.92858
505.66         21.8711
506.10         21.8132
506.54        21.81902
506.98        21.90619
507.42        22.06237
507.86        22.24788
508.30        22.39578
508.74        22.48535
509.18        22.52795
509.62        22.56318
510.06        22.65509
510.50        22.81581
510.94        23.02638
511.38        23.22214
511.82         23.3004
512.26        23.24154
512.70        23.07769
513.14         22.8997
513.58        22.84675
514.02        22.94256
514.46        23.14693
514.90        23.36858
515.34        23.39912
515.78        23.24112
516.22        23.01693
516.66        22.83721
517.10        22.53512
517.54        22.14404
517.98        22.74355
518.42         22.6742
518.86        22.95208
519.30        23.06078
519.74        23.16944
520.18        23.25219
520.62        23.24607
521.06        23.16647
521.50        23.01448
521.93         22.8326
522.37        22.70169
522.81        22.64308
523.25        22.64073
523.69        22.66944
524.13        22.68584
524.57        22.67417
525.01         22.6442
525.45        22.60545
525.89        22.57203
526.32        22.54619
526.76        22.52328
527.20        22.48547
527.64        22.41123
528.08        22.29792
528.52        22.15156
528.96        22.00592
529.40        21.90999
529.83        21.87174
530.27        21.88416
530.71        21.89632
531.15        21.82887
531.59        21.67102
532.03        21.45065
532.46        21.23382
532.90        21.14108
533.34        21.18562
533.78        21.32323
534.22        21.48076
534.66        21.54622
535.09        21.48839
535.53        21.35231
535.97        21.17841
536.41        21.02771
536.85        20.92576
537.28        20.86561
537.72        20.85351
538.16        20.83525
538.60        20.90657
539.04        20.97748
539.47        21.05444
539.91        21.15391
540.35        21.28312
540.79        21.25641
541.22        21.35251
541.66        21.42744
542.10        21.58423
542.54         21.4742
542.97        21.67304
543.41        21.79232
543.85        21.98668
544.29        22.19424
544.72         22.3784
545.16        22.54806
545.60        22.69036
546.04        22.73515
546.47        22.75351
546.91        23.00204
547.35        23.42627
547.79        23.72261
548.22        23.85309
548.66         23.9216
549.10        23.97434
549.53        24.17313
549.97        24.52536
550.41        24.59381
550.84        24.82785
551.28        24.98315
551.72        25.20867
552.15        25.43811
552.59        25.67001
553.03        25.90984
553.46        26.12122
553.90        26.27599
554.34        26.36894
554.77        26.41192
555.21        26.44577
555.65        26.52248
556.08        26.65062
556.52        26.81088
556.96        26.98049
557.39        27.15831
557.83        27.32403
558.27        27.41354
558.70         27.4387
559.14         27.4742
559.57        27.52097
560.01         27.5778
560.45        27.62801
560.88        27.61012
561.32        27.58184
561.75        27.62294
562.19        27.83524
562.63        27.97277
563.06        28.05709
563.50        28.18091
563.93        28.32499
564.37        28.49707
564.80         28.5589
565.24        28.64062
565.68        28.70038
566.11        28.76723
566.55        28.87007
566.98        28.95514
567.42        29.00535
567.85        29.35724
568.29        29.25099
568.72        29.58788
569.16        30.08792
569.60        30.45022
570.03        30.61887
570.47        30.88571
570.90        31.09939
571.34         31.2816
571.77        31.16299
572.21        31.49145
572.64        31.88157
573.08        32.11182
573.51        32.15749
573.95        32.53809
574.38        32.99002
574.82        33.15203
575.25        33.38299
575.69        33.19053
576.12        33.10967
576.56        32.94978
576.99         32.8653
577.42        33.27093
577.86        33.28925
578.29         33.3336
578.73         34.1187
579.16        33.65937
579.60        33.14648
580.03        32.90717
580.47         33.1852
580.90        32.82251
581.33        32.76329
581.77        32.74371
582.20        33.43496
582.64        33.18777
583.07        32.68111
583.51        32.44751
583.94        31.81226
584.37        31.37979
584.81        31.06885
585.24        31.18276
585.68        31.42374
586.11        31.57273
586.54        31.28838
586.98        30.91761
587.41        30.82086
587.85        30.83866
588.28        30.97781
588.71        30.83843
589.15        30.51821
589.58        29.91236
590.01        30.16486
590.45        30.43723
590.88        30.22606
591.31        30.08539
591.75        29.79819
592.18        29.90308
592.61        29.75675
593.05        30.26328
593.48        30.12006
593.91         31.1463
594.35        30.71019
594.78        30.64099
595.21        31.06308
595.65        31.32123
596.08        31.11946
596.51        31.17891
596.94        31.38521
597.38        31.43096
597.81        31.39976
598.24        31.54406
598.68        32.38879
599.11        32.41718
599.54         33.4109
599.97        33.36311
600.41        33.57815
600.84        34.31993
601.27        34.78662
601.70        34.98288
602.14        35.16753
602.57        35.47151
603.00        36.06499
603.43        36.62338
603.87        36.95649
604.30        37.47135
604.73        38.12032
605.16        38.19835
605.60        38.52527
606.03        39.05329
606.46        39.81951
606.89        40.43421
607.32        40.94743
607.76        40.72137
608.19         41.2192
608.62        41.91057
609.05        41.80418
609.48        41.85151
609.92        42.44449
610.35        42.40407
610.78        43.53735
611.21        44.09621
611.64        43.81906
612.07        44.14746
612.50        44.33713
612.94        44.15772
613.37        44.73162
613.80        45.10289
614.23        45.59465
614.66        45.89579
615.09        46.16186
615.52        46.45934
615.96        46.77553
616.39        47.01638
616.82        47.24461
617.25        47.18053
617.68        47.49118
618.11        47.97161
618.54        48.07082
618.97        48.15383
619.40        48.06039
619.84        48.03919
620.27        47.78967
620.70        48.20843
621.13        49.00562
621.56         49.1556
621.99        48.79158
622.42        48.79358
622.85        49.22227
623.28        49.36911
623.71        49.22828
624.14        49.36137
624.57        49.38966
625.00        49.27602
625.43        49.44817
625.86        48.89686
626.29         48.9347
626.72        48.69814
627.15        48.55614
627.58        48.42871
628.01        48.28542
628.44        48.15808
628.87        48.04295
629.30        47.63868
629.73        47.45642
630.16        47.23651
630.59        46.98143
631.02        46.67419
631.45        46.35191
631.88         45.9902
632.31            45.6
632.74        45.16592
633.17        44.69177
633.60        44.19658
634.03         43.6902
634.46        43.17698
634.89        42.66967
635.32        42.18451
635.75         41.7298
636.18        41.30933
636.61        40.91538
637.04        40.52979
637.47        40.14299
637.89        39.75613
638.32        39.36976
638.75        39.01109
639.18        38.68689
639.61        38.39516
640.04        38.10842
640.47        37.78012
640.90        37.40624
641.33        37.00665
641.76        36.63285
642.18        36.37092
642.61        36.23402
643.04         36.1975
643.47        36.21454
643.90        36.20588
644.33        36.15052
644.76        36.07827
645.18        36.01315
645.61        35.99587
646.04        36.04408
646.47        36.14319
646.90         36.3055
647.33        36.55748
647.75        36.89547
648.18        37.28971
648.61        37.70285
649.04        38.10168
649.47        38.45661
649.89        38.72063
650.32        38.94639
650.75        39.27277
651.18        39.75049
651.61        40.31823
652.03        40.94805
652.46        41.73034
652.89        42.58064
653.32        43.02839
653.74        43.12598
654.17        43.85276
654.60        44.07485
655.03        45.20784
655.46        44.82793
655.88        47.03043
656.31        48.07132
656.74        58.32825
657.16        55.86465
657.59        51.18299
658.02          50.037
658.45        49.14322
658.87        49.54816
659.30        49.95009
659.73        50.75027
660.15        51.05619
660.58        51.57375
661.01        51.34193
661.44        50.84731
661.86        51.07777
662.29        51.97935
662.72        52.84354
663.14        53.40679
663.57        53.36765
664.00        52.92674
664.42        52.89368
664.85        53.34892
665.27        53.74392
665.70        53.99602
666.13        54.23914
666.55        54.53223
666.98         54.7432
667.41        54.90645
667.83        55.04321
668.26        55.15467
668.69        55.24863
669.11        55.33228
669.54        55.40771
669.96        55.48782
670.39        55.59792
670.82        55.75175
671.24        55.93879
671.67        56.19404
672.09        56.54364
672.52        56.88142
672.94        57.32715
673.37        57.28963
673.80        57.04574
674.22        56.60183
674.65        56.41412
675.07        56.56295
675.50        56.82912
675.92        57.12428
676.35        57.33254
676.77         57.4127
677.20        57.41009
677.62        57.36515
678.05        57.34716
678.47         57.3781
678.90        57.43768
679.32        57.53702
679.75         57.6935
680.17        57.89222
680.60         58.1512
681.02        58.42841
681.45        58.53478
681.87        58.49685
682.30        58.58936
682.72         58.7852
683.15         58.6987
683.57        58.42421
684.00        58.38754
684.42        58.73074
684.85        58.95635
685.27        59.08819
685.70        59.34078
686.12        59.63006
686.54         59.8051
686.97        59.85332
687.39        59.57159
687.82        59.36666
688.24         59.3932
688.66        59.68671
689.09        59.71615
689.51        59.50654
689.94        59.49343
690.36        59.69918
690.78        59.83368
691.21        59.87227
691.63        60.01735
692.06        60.28689
692.48        60.28782
692.90        60.35761
693.33        60.74056
693.75        60.50366
694.17        60.49296
694.60        60.43135
695.02        60.35532
695.44         60.2582
695.87        60.31179
696.29        60.47649
696.71        60.33222
697.14        60.06604
697.56        60.42414
697.98        61.18539
698.41        61.88899
698.83        61.42169
699.25        61.17115
699.68        60.96485
700.10        60.81853
700.52        60.78984
700.94        60.89558
701.37        61.07094
701.79        61.23512
702.21        61.33153
702.64        61.37733
703.06        61.41001
703.48        61.50522
703.90        61.67335
704.33        61.86882
704.75         62.0193
705.17        61.99957
705.59        61.79298
706.01        61.44276
706.44        61.10788
706.86        61.03455
707.28        61.26306
707.70        61.73335
708.12        62.27696
708.55        62.56208
708.97        62.54953
709.39        62.46678
709.81        62.37952
710.23        62.27539
710.66        62.19972
711.08        62.20026
711.50        62.25955
711.92        62.32871
712.34        62.39944
712.76        62.49984
713.19        62.60145
713.61        62.70224
714.03        62.77237
714.45        62.80882
714.87        62.84101
715.29        62.92195
715.71        63.05845
716.13        63.23349
716.56        63.38646
716.98        63.48862
717.40        63.50108
717.82        63.44418
718.24        63.36241
718.66        63.32851
719.08        63.36055
719.50        63.43291
719.92        63.51564
720.34        63.55838
720.76        63.54807
721.19        63.50518
721.61        63.45059
722.03        63.38296
722.45        63.33309
722.87        63.28868
723.29        63.28324
723.71        63.36117
724.13        63.52756
724.55        63.77168
724.97        64.06414
725.39        64.30067
725.81        64.44293
726.23        64.59953
726.65        64.81393
727.07        64.64171
727.49         64.9241
727.91         64.9822
728.33        65.04321
728.75        65.05434
729.17        65.01886
729.59        64.94804
730.01        64.86905
730.43        64.84322
730.85        64.88259
731.27        64.96964
731.69        65.07661
732.10        65.17248
732.52        65.23764
732.94        65.25841
733.36        65.23419
733.78        65.25268
734.20         65.3522
734.62        65.25752
735.04        65.32365
735.46        65.49588
735.88        65.41899
736.30        65.34416
736.72        65.24184
737.13        65.51272
737.55        65.99892
737.97        66.28264
738.39        66.26804
738.81        65.90723
739.23        65.40455
739.65        65.44564
740.06        65.91198
740.48        66.17651
740.90        65.93949
741.32        65.65753
741.74        65.40358
742.16        65.34746
742.57        65.53922
742.99        65.82432
743.41        66.10242
743.83        66.25542
744.25        66.23695
744.67        66.06758
745.08        65.82623
745.50        65.62321
745.92        65.51386
746.34        65.45889
746.75        65.42905
747.17        65.39201
747.59        65.34856
748.01        65.28787
748.42        65.30722
748.84         65.3909
749.26        65.58285
749.68         65.6838
750.09        65.72557
750.51        66.13719
750.93        66.70753
751.35        66.61452
751.76        65.99441
752.18        65.65985
752.60        65.62779
753.01        66.06921
753.43         65.7604
753.85        65.85405
754.27        65.97792
754.68        66.19469
755.10        66.42666
755.52        66.31018
755.93        66.09989
756.35        65.97874
756.77        65.84911
757.18        65.81898
757.60        66.13111
758.02        66.49886
758.43        66.79939
758.85        67.07347
759.26        67.82725
759.68        66.48276
760.10        66.70985
760.51        66.73883
760.93        66.84805
761.34        65.92072
761.76        66.89912
762.18        66.62716
762.59        66.15828
763.01        65.91982
763.42        66.07899
763.84        66.54391
764.26        67.14525
764.67          67.195
765.09        66.83861
765.50        67.08257
765.92        67.78677
766.33        67.79258
766.75        67.06836
767.16        66.50755
767.58         66.2176
768.00        65.94146
768.41        65.79915
768.83        65.96516
769.24        66.38522
769.66        67.01743
770.07        67.62193
770.49        67.64386
770.90        67.19576
771.32        67.09666
771.73        67.37032
772.15        67.33968
772.56        67.01434
772.97        66.82353
773.39        66.73739
773.80        66.53936
774.22        66.21091
774.63        65.83179
775.05        65.52266
775.46        65.49179
775.88        65.75201
776.29          66.269
776.70        66.81406
777.12        67.03363
777.53        66.85327
777.95        66.34607
778.36        65.76177
778.77        65.52957
779.19        65.75553
779.60        66.35435
780.02        67.02364
780.43        67.45113
780.84        67.54893
781.26        67.02812
781.67        66.27032
782.09        66.87045
782.50        68.42969
782.91        68.50868
783.33        67.25963
783.74        66.93531
784.15        67.60299
784.57        68.13457
784.98        68.28744
785.39        67.84079
785.81         66.9733
786.22        66.61829
786.63        66.77876
787.04        66.77965
787.46        66.66018
787.87        66.65609
788.28        66.67983
788.70        67.61789
789.11        67.34323
789.52        67.58991
789.93        67.73424
790.35        67.83379
790.76        67.86196
791.17        67.75468
791.58        67.55911
792.00        67.31622
792.41        67.07123
792.82        66.94844
793.23        66.88113
793.65        66.62452
794.06        66.45452
794.47        66.77882
794.88        67.23882
795.29        69.09127
795.71        68.23313
796.12        67.83323
796.53        68.31274
796.94        67.71823
797.35        66.76035
797.76        66.58245
798.18        67.16728
798.59        67.47977
799.00         67.3731
799.41        67.24673
799.82         67.1718
800.23        67.21616
800.64         67.3961
801.06        67.54568
801.47        67.66917
801.88        67.80928
802.29        67.94368
802.70        68.02792
803.11        68.02389
803.52        67.88656
803.93        67.64063
804.34        67.33543
804.75        67.02358
805.17        66.88227
805.58        66.98969
805.99        66.96712
806.40        66.89227
806.81        67.72321
807.22        69.05445
807.63        68.93615
808.04        67.63982
808.45        67.32714
808.86         68.1534
809.27        68.90166
809.68         69.3308
810.09        69.60072
810.50        69.61659
810.91        69.35104
811.32        68.91097
811.73        68.45063
812.14        68.03312
812.55        67.68262
812.96        67.43978
813.37        67.22564
813.78        67.11102
814.19        67.40285
814.60        67.90571
815.01        68.05927
815.42        67.79794
815.83        67.33392
816.24        66.87529
816.65        66.74081
817.05        67.04281
817.46        67.63837
817.87        68.29487
818.28        68.61647
818.69        68.51871
819.10        68.11787
819.51        67.62293
819.92        67.45493
820.33        67.74331
820.74        68.21478
821.14        68.72266
821.55         69.3327
821.96        69.81921
822.37        69.52884
822.78        68.68179
823.19        68.30357
823.60        68.52631
824.00        68.84618
824.41        69.06299
824.82        69.15075
825.23        69.04536
825.64        68.78528
826.04        68.49998
826.45        68.33944
826.86        68.36112
827.27        68.51886
827.68        68.73452
828.08         68.8979
828.49        68.91892
828.90        68.85571
829.31        68.76834
829.72        68.75902
830.12         68.8699
830.53          69.024
830.94        69.15932
831.35         69.1601
831.75        69.02686
832.16        68.76363
832.57        68.47066
832.97        68.29334
833.38        68.25818
833.79        68.31886
834.20        68.42219
834.60        68.47501
835.01        68.46449
835.42        68.43267
835.82        68.37157
836.23        68.21575
836.64        67.98927
837.04        67.69734
837.45        67.45327
837.86        67.48466
838.26        67.84255
838.67        68.44694
839.08        69.08546
839.48        69.35061
839.89        69.14002
840.29        68.59423
840.70        68.02931
841.11        67.85034
841.51        68.16338
841.92        68.79243
842.33        69.57462
842.73        70.22839
843.14        70.54568
843.54        70.66015
843.95        70.55651
844.35        70.29015
844.76        69.92242
845.17        69.47369
845.57        69.03177
845.98        68.75742
846.38        68.69333
846.79        68.80099
847.19        69.11364
847.60        69.54256
848.00        70.07589
848.41        70.64152
848.81        71.17184
849.22        71.49391
849.62        71.60938
850.03        71.50073
850.43          71.272
850.84        71.03642
851.24        70.90379
851.65        70.80603
852.05        70.77618
852.46        70.76392
852.86        70.76568
853.27        70.77203
853.67        70.74055
854.07        70.84741
854.48        71.00987
854.88        70.95951
855.29        70.69137
855.69         70.6104
856.10        70.68447
856.50        70.79446
856.90        70.88096
857.31        70.96182
857.71        71.08671
858.12        71.17887
858.52        71.26773
858.92        71.29234
859.33        71.22441
859.73        71.10445
860.13        70.94431
860.54        70.78584
860.94        70.69892
861.34        70.64416
861.75         70.5423
862.15        70.35358
862.55         70.0391
862.96        69.66622
863.36        69.31115
863.76        69.07217
864.17        68.97662
864.57        69.00131
864.97        69.15646
865.38        69.44144
865.78        69.87859
866.18        70.39571
866.58        70.82675
866.99         70.8919
867.39        70.56549
867.79        69.90215
868.19        69.04002
868.60        68.18969
869.00        67.40747
869.40        66.70558
869.80        66.20029
870.21        66.05364
870.61        66.33581
871.01        66.95898
871.41        67.68179
871.81        68.10712
872.22        68.15963
872.62        67.94306
873.02        67.57359
873.42        67.49328
873.82        67.58006
874.22        67.16982
874.63        66.53719
875.03        66.34275
875.43        66.68863
875.83        68.48285
876.23        68.39628
876.63        67.79839
877.03         66.1032
877.44        63.47039
877.84        133.9241
878.24        63.71757
878.64         65.4041
879.04        69.91845
879.44        66.50671
879.84        64.61266
880.24        69.34135
880.64        69.52807
881.04        66.29593
881.44        64.16228
881.84        63.85572
882.24        64.64974
882.65        65.95042
883.05        66.51364
883.45         65.9495
883.85        65.02261
884.25        64.21301
884.65        63.91159
885.05         64.2426
885.45        65.00397
885.85        65.88473
886.25        66.40287
886.65        66.40343
887.05        66.06047
887.45        65.55543
887.85        65.14703
888.25        64.93674
888.65        64.84874
889.04        64.90244
889.44        65.07067
889.84        65.34296
890.24        65.69855
890.64        66.06053
891.04        66.31472
891.44        66.40821
891.84        66.32781
892.24        66.05984
892.64         65.6069
893.04        65.02599
893.44        64.40157
893.83        63.75704
894.23        63.13631
894.63        62.55563
895.03        62.00659
895.43        61.65229
895.83        61.75005
896.23        62.31742
896.63        63.27266
897.02        64.26408
897.42        64.65109
897.82        64.29915
898.22        63.39406
898.62        62.35339
899.01        61.82915
899.41        61.98933
899.81        62.59632
900.21        63.37447
900.61        63.90345
901.00        64.05652
901.40        63.96208
901.80        63.72654
902.20        63.50055
902.59        63.35991
902.99         63.2515
903.39        63.15953
903.79         63.0667
904.18        62.96162
904.58        62.89721
904.98        62.93265
905.38        63.15752
905.77        63.56494
906.17        64.11483
906.57        64.63733
906.96        64.90517
907.36        64.81808
907.76        64.41879
908.15        63.91912
908.55        63.60738
908.95        63.58382
909.34         63.8289
909.74        64.05959
910.14        63.76939
910.53        62.87353
910.93        61.59475
911.33        60.49302
911.72        60.45157
912.12        61.55505
912.52        63.42411
912.91        65.36653
913.31        66.23817
913.70        65.82398
914.10        64.44083
914.49        62.53976
914.89        61.15076
915.29        60.68044
915.68         60.8493
916.08        61.44219
916.47        62.13997
916.87        62.77205
917.26        63.43942
917.66        64.02933
918.05        64.37605
918.45        64.41871
918.84        64.20393
919.24        63.74829
919.64        63.12751
920.03        62.42388
920.42        61.67287
920.82        61.12798
921.21        61.12111
921.61        61.63908
922.00        62.61238
922.40         63.6149
922.79        64.18851
923.19        64.21143
923.58        63.55122
923.98        62.35598
924.37        61.77435
924.77         62.2739
925.16        59.61575
925.55        61.14005
925.95         60.9143
926.34        61.13643
926.74        61.55195
927.13        62.18938
927.52        62.86013
927.92        63.45369
928.31        64.08619
928.70         64.5547
929.10         64.5595
929.49        64.05586
929.89        63.11913
930.28        62.17486
930.67        61.91348
931.07        62.44534
931.46        63.62962
931.85         64.9111
932.24        65.44827
932.64        65.04016
933.03        63.81681
933.42         62.2806
933.82        61.45821
934.21        61.62592
934.60         62.4837
934.99        63.23501
935.39         63.1384
935.78        62.09807
936.17        59.68037
936.56        56.28851
936.96        57.37597
937.35        56.74618
937.74        59.15018
938.13        61.55268
938.53        62.96562
938.92        63.26696
939.31        62.83656
939.70        62.06609
940.09        61.51908
940.49        61.46983
940.88        61.73529
941.27        62.22285
941.66        62.85645
942.05        63.54888
942.44        64.28965
942.84        65.00893
943.23        65.57479
943.62        65.90496
944.01        66.05212
944.40        65.84843
944.79        65.04295
945.18        63.64957
945.57        61.74717
945.97        59.94796
946.36        59.27504
946.75        60.04252
947.14         61.8711
947.53        63.94231
947.92        65.13608
948.31        65.22498
948.70         64.5247
949.09        63.45556
949.48        62.76707
949.87        62.70628
950.26        63.01864
950.65        63.46735
951.04        63.68044
951.43        63.53921
951.82         63.2204
952.21        62.82619
952.60        62.47861
952.99        62.23163
953.38        62.01513
953.77        61.85165
954.16        61.79712
954.55        61.84182
954.94        61.98608
955.33        62.12509
955.72        62.06649
956.11        61.78524
956.50         61.3506
956.89        60.91022
957.28        60.75772
957.66        60.98716
958.05        61.38953
958.44        61.88248
958.83        62.36247
959.22        62.76861
959.61        63.14997
960.00        63.28539
960.39        62.79089
960.78        61.65219
961.16        60.00974
961.55        58.40639
961.94        57.54702
962.33        57.58589
962.72        58.34113
963.11         59.3982
963.49        60.02702
963.88        59.91872
964.27         59.3079
964.66        58.50676
965.04        58.04029
965.43        58.06469
965.82        58.42443
966.21        58.90615
966.60        59.18027
966.98        59.16943
967.37        58.96471
967.76        58.79831
968.15        59.00607
968.53        59.64812
968.92        60.49714
969.31         61.2776
969.69        61.55078
970.08        61.14474
970.47        60.24123
970.86        59.01979
971.24        57.73386
971.63        56.58756
972.02        55.58125
972.40        54.77748
972.79        54.30309
973.17        54.19839
973.56        54.35664
973.95        54.84791
974.33        55.74065
974.72        56.83499
975.11        58.04289
975.49        58.92138
975.88        58.81525
976.26        57.66254
976.65        55.72405
977.04         53.5273
977.42        52.00657
977.81        51.49585
978.19        51.73234
978.58        52.51934
978.96        53.46852
979.35        54.32679
979.74         55.3116
980.12         56.1923
980.51        56.31946
980.89        55.74212
981.28        54.54285
981.66        53.42806
982.05         53.4228
982.43        54.64668
982.82        56.76347
983.20         59.1414
983.59        60.32071
983.97        59.94316
984.35        58.35966
984.74        56.29409
985.12        54.79039
985.51        54.18046
985.89        54.12224
986.28        54.37867
986.66        54.51054
987.04        54.29703
987.43        54.01697
987.81        53.56118
988.20        52.67299
988.58        51.23259
988.96        49.04803
989.35        46.57544
989.73        45.25453
990.12        45.85184
990.50         48.0024
990.88        50.39699
991.27        51.51172
991.65        51.35154
992.03        50.28073
992.42        49.16742
992.80        49.58337
993.18        51.90925
993.56        55.29343
993.95        58.64354
994.33        60.94185
994.71        61.78553
995.10        61.56145
995.48        60.62989
995.86         59.4092
996.24        58.10207
996.63        56.63059
997.01        54.97211
997.39        53.45393
997.77        52.37993
998.15        51.79922
998.54        51.76929
998.92        52.29856
999.30        53.33954
999.68        55.07738
1000.06        56.87928
1000.45        56.74336
1000.83        54.15729
1001.21        50.22226
1001.59        46.76709
1001.97         45.1719
1002.35        45.25402
1002.73        46.55813
1003.12        48.43313
1003.50        49.31178
1003.88        48.45531
1004.26        46.53274
1004.64        44.15536
1005.02         42.0877
1005.40        40.60463
1005.78        39.34222
1006.16        38.90316
1006.54        40.40882
1006.92        43.47566
1007.30        47.15987
1007.69        50.09453
1008.07        51.09723
1008.45        49.88326
1008.83        46.44115
1009.21        40.20504
1009.59        32.21535
1009.97         25.0425
1010.35         19.8763
1010.73        18.71867
1011.11         22.2921
1011.49        29.34128
1011.86        39.14687
1012.24        47.78853
1012.62        51.41158
1013.00        49.87278
1013.38        44.56579
1013.76        37.88415
1014.14         34.1473
1014.52        34.65046
1014.90        38.10064
1015.28        42.60593
1015.66        44.94453
1016.04        43.98909
1016.41        40.66447
1016.79        35.81369
1017.17        31.73878
1017.55        29.94577
1017.93        29.61596
1018.31        30.33379
1018.69        31.87216
1019.06        33.91454
1019.44        36.33694
1019.82        38.57823
1020.20        38.91044
1020.58        36.63347
1020.95        32.41573
1021.33        26.59165
1021.71        18.36076
1022.09        5.952664
1022.46       -16.45339
1022.84       -49.11074
1023.22       -59.35932
1023.60       -29.19328
1023.97        5.809557
1024.35        26.11592
1024.73        33.53277
