SpectraSmart Spectrum 2.9.0.0
--------- Device Information -----------
Spectrum Name :  反射率_0
Saving Time :  2024/04/20 01:00:12
Spectro-Module Model Name : SE2030-DUVN
Spectro-Module Serial Number : OS361AC55029948
Wavelength Start : 200
Wavelength End : 1025
Wavelength Unit : Wavelength(nm)
Spectrum Unit : Reflectance(%)
-----------Spectrum Setting ------------
Integration Time : 30ms
Average : 10
Boxcar : 0
Background removal :  enabled
linearity correction :  enabled
SC :  disabled
Intensity correction :  disabled
DWT denoise :  enabled
savitzky-golay :  disabled
FFT :  disabled
Running average :  disabled
Kalman :  disabled
High pass :  disabled
---------------BEGIN--------------------
Wavelength(nm)             Reflectance(%)
200.29               0
200.75         54.9689
201.21        53.79281
201.67        53.99321
202.13        55.26375
202.58        57.34592
203.04        60.61491
203.50        64.41774
203.96         66.1839
204.42        65.31329
204.88        63.09098
205.34        60.40277
205.80        57.38337
206.26        53.54146
206.72        47.82754
207.18        40.16322
207.64        34.91974
208.10        36.88166
208.55        44.81967
209.01        53.22353
209.47        58.10355
209.93        59.41254
210.39        58.45667
210.85        56.33268
211.31        54.07624
211.77        51.77909
212.23        48.97538
212.69        45.33426
213.14        41.90549
213.60           39.98
214.06        40.04519
214.52        41.54363
214.98        44.23677
215.44        48.01853
215.90        52.72056
216.36        58.13725
216.81        62.79092
217.27        65.33768
217.73        66.26705
218.19        64.85373
218.65        60.04129
219.11        51.84504
219.57        40.00316
220.02        27.27976
220.48        21.28798
220.94        24.54017
221.40        35.68303
221.86        48.97805
222.32        55.38232
222.77        52.90628
223.23        44.63685
223.69         35.2309
224.15        31.44229
224.61        33.75536
225.06        38.80208
225.52        43.61249
225.98        45.93922
226.44        45.70488
226.90         44.0119
227.36         41.7338
227.81        40.19484
228.27        40.13892
228.73        40.87204
229.19        41.86339
229.65         42.5663
230.10        42.87005
230.56        42.99724
231.02        43.17242
231.48        43.65542
231.93        44.41566
232.39        45.33717
232.85        46.11862
233.31        46.32687
233.77        45.90696
234.22        45.02853
234.68        44.03798
235.14        43.43921
235.60        43.41497
236.05        43.81654
236.51        44.53926
236.97        45.43614
237.43        46.52887
237.88        48.15427
238.34        50.11526
238.80        51.87056
239.26         52.8157
239.71        52.66089
240.17        51.92164
240.63        52.10128
241.08         53.5973
241.54        56.10074
242.00        58.34885
242.46        57.86575
242.91        53.39683
243.37        43.81654
243.83         29.6912
244.28        19.76374
244.74        23.33591
245.20        39.27388
245.66        55.91902
246.11        62.81401
246.57        59.10621
247.03        45.85133
247.48        26.85316
247.94        21.77681
248.40        33.19673
248.85        47.27734
249.31        57.43937
249.77        62.45638
250.22        63.85125
250.68        63.32172
251.14        61.72014
251.59        60.52692
252.05        60.80368
252.51        62.11874
252.96        63.66571
253.42        64.35974
253.88         64.0188
254.33        63.29081
254.79        63.55286
255.25        65.79494
255.70        69.66389
256.16        74.19067
256.62        78.24391
257.07        80.61607
257.53        81.36282
257.99        80.83867
258.44        79.06043
258.90        76.98216
259.35        74.69985
259.81        72.98622
260.27        71.51452
260.72        69.98355
261.18        68.60967
261.63        66.95271
262.09        65.70788
262.55        65.26081
263.00        65.43081
263.46        66.12688
263.91        66.39564
264.37        65.47179
264.83        63.37828
265.28        60.47939
265.74        57.85838
266.19        56.52264
266.65        56.65276
267.11        57.65683
267.56        58.78455
268.02        58.98631
268.47        58.03777
268.93        56.30799
269.38        54.18885
269.84        52.54291
270.30        51.61147
270.75        51.15353
271.21        50.87786
271.66        50.32972
272.12         49.3876
272.57        48.20417
273.03        47.02792
273.48         46.1255
273.94        45.61133
274.39        45.33175
274.85        45.09821
275.31        44.59229
275.76        43.73601
276.22        42.66557
276.67        41.57535
277.13        40.88152
277.58        40.57491
278.04        40.55683
278.49        40.48701
278.95        39.98084
279.40        38.95039
279.86        37.65238
280.31        36.31829
280.77        35.43232
281.22        35.00105
281.68        34.89969
282.13        34.89932
282.59        34.72074
283.04          34.285
283.50        33.74374
283.95        33.16947
284.41        32.71299
284.86        32.38884
285.32        32.16492
285.77        32.02895
286.22        32.04648
286.68        32.19392
287.13        32.41049
287.59        32.60305
288.04        32.59349
288.50        32.37977
288.95        31.98582
289.41        31.52459
289.86        31.09229
290.32        30.78484
290.77        30.57083
291.22        30.48013
291.68        30.51556
292.13        30.67426
292.59        30.98458
293.04        31.43136
293.50        32.00477
293.95        32.67991
294.40        33.43593
294.86        34.25943
295.31        35.14717
295.77        36.08526
296.22        37.05587
296.68        38.01546
297.13        38.87618
297.58        39.62861
298.04         40.3083
298.49        40.96209
298.95        41.71333
299.40        42.56825
299.85        43.47949
300.31        44.41413
300.76        45.30656
301.21        46.12697
301.67        46.92008
302.12        47.60537
302.58        48.14462
303.03        48.51951
303.48        48.78471
303.94        49.07993
304.39        49.56818
304.84        50.28792
305.30        51.16763
305.75        52.05262
306.20         52.7383
306.66        53.19204
307.11        53.45367
307.57        53.61185
308.02        53.70848
308.47        53.80137
308.93        53.86235
309.38        53.92003
309.83        54.09044
310.29        54.37368
310.74        54.73998
311.19        55.04115
311.65        55.03037
312.10        54.66675
312.55        54.04111
313.00        53.36786
313.46        52.97649
313.91        52.92337
314.36        53.12372
314.82        53.39923
315.27        53.48513
315.72        53.29132
316.18         52.9216
316.63        52.47499
317.08        52.11946
317.53        51.90012
317.99        51.74796
318.44        51.61895
318.89        51.43607
319.35        51.17366
319.80        50.86483
320.25        50.53299
320.70        50.21013
321.16        49.90165
321.61        49.60519
322.06        49.29564
322.51        48.94276
322.97        48.53331
323.42        48.08579
323.87        47.63256
324.32        47.23381
324.78        46.89281
325.23        46.61111
325.68        46.32042
326.13        45.91668
326.59        45.38115
327.04        44.77809
327.49        44.19079
327.94        43.75949
328.39         43.5183
328.85        43.40337
329.30        43.39367
329.75        43.37679
330.20         43.3054
330.66        43.18155
331.11        43.02411
331.56        42.80064
332.01         42.5105
332.46        42.15069
332.92        41.74613
333.37        41.37467
333.82        41.06252
334.27        40.82161
334.72        40.63969
335.17        40.48657
335.63        40.34023
336.08        40.21468
336.53          40.142
336.98        40.19304
337.43        40.36343
337.88        40.62515
338.34        40.81695
338.79         40.7316
339.24        40.31426
339.69        39.62808
340.14        38.90474
340.59        38.53675
341.05        38.60823
341.50        39.01176
341.95        39.49836
342.40         39.6768
342.85        39.45779
343.30        38.97532
343.75        38.40914
344.20        38.05304
344.66        37.98513
345.11        38.07381
345.56        38.23656
346.01        38.34515
346.46        38.34191
346.91        38.28825
347.36        38.13186
347.81          37.777
348.26        37.24263
348.72        36.58614
349.17        35.94879
349.62        35.64519
350.07        35.73858
350.52        36.11689
350.97        36.60511
351.42        36.93586
351.87        37.02165
352.32        36.92938
352.77        36.68534
353.22        36.33908
353.67         35.9355
354.13        35.48429
354.58        35.02573
355.03        34.67064
355.48        34.45026
355.93        34.35487
356.38        34.35259
356.83        34.37877
357.28        34.39617
357.73         34.3957
358.18        34.36187
358.63        34.27749
359.08         34.1338
359.53        33.93439
359.98        33.65573
360.43         33.2653
360.88        32.77605
361.33        32.21346
361.78        31.67209
362.23        31.30321
362.68        31.13635
363.13         31.1208
363.58          31.151
364.03        31.05812
364.48        30.79251
364.93        30.39752
365.38        29.92593
365.83        29.47714
366.28        29.09357
366.73        28.74813
367.18        28.43694
367.63        28.15295
368.08        27.89093
368.53        27.66596
368.98        27.46386
369.43         27.2505
369.88        27.02055
370.33        26.78215
370.78        26.55348
371.23        26.37272
371.68        26.24933
372.13        26.16224
372.58        26.10724
373.03        26.07936
373.48        26.06193
373.93        26.04728
374.38        25.99217
374.83        25.83053
375.28        25.55485
375.72        25.18115
376.17        24.78611
376.62        24.45462
377.07        24.22299
377.52        24.07312
377.97        23.98906
378.42        23.94157
378.87        23.90913
379.32        23.88919
379.77        23.86864
380.22        23.82492
380.67        23.75125
381.11        23.65768
381.56        23.51814
382.01        23.31734
382.46        23.06209
382.91        22.75547
383.36         22.4719
383.81        22.32004
384.26        22.31298
384.71        22.42793
385.15        22.53958
385.60        22.45936
386.05        22.15686
386.50        21.69365
386.95        21.23581
387.40        21.04614
387.85        21.17107
388.29        21.51092
388.74        21.89014
389.19         22.0504
389.64        21.93882
390.09         21.6296
390.54         21.2646
390.98        21.06235
391.43        21.09217
391.88        21.26391
392.33        21.44077
392.78        21.43011
393.23        21.20971
393.67         20.8489
394.12          20.505
394.57        20.31903
395.02        20.32116
395.47        20.45957
395.91        20.65024
396.36        20.72481
396.81        20.64513
397.26         20.4578
397.71         20.2564
398.15        20.16223
398.60        20.22137
399.05        20.37464
399.50        20.52777
399.95        20.54936
400.39        20.41317
400.84        20.15512
401.29        19.87612
401.74        19.75865
402.18        19.85563
402.63        20.10331
403.08        20.36461
403.53        20.42048
403.97        20.23008
404.42        19.87896
404.87        19.51325
405.32        19.37203
405.76        19.50466
406.21        19.81994
406.66        20.18805
407.11        20.40888
407.55        20.42809
408.00        20.31699
408.45        20.12605
408.90        19.89386
409.34        19.68491
409.79        19.57869
410.24         19.5642
410.68        19.54154
411.13        19.50816
411.58        19.53771
412.03        19.60253
412.47         19.6219
412.92        19.57842
413.37        19.48507
413.81        19.40298
414.26        19.44502
414.71        19.62011
415.15         19.8996
415.60        20.16167
416.05        20.23529
416.49        20.07961
416.94        19.75658
417.39        19.38913
417.83        19.17422
418.28        19.17017
418.73        19.30929
419.17        19.50312
419.62        19.60406
420.07        19.57516
420.51        19.46531
420.96         19.3261
421.41        19.21315
421.85        19.14222
422.30        19.10581
422.74        19.09108
423.19        19.11417
423.64        19.16343
424.08        19.24675
424.53        19.32973
424.98        19.38069
425.42        19.39251
425.87        19.37453
426.31         19.3298
426.76         19.2746
427.21        19.20555
427.65        19.10981
428.10        19.03005
428.54        19.01172
428.99        19.06716
429.44        19.26633
429.88         19.4833
430.33        19.39263
430.77        19.05522
431.22        18.86509
431.66        18.88225
432.11        18.97987
432.56        19.13379
433.00        19.42869
433.45        19.67329
433.89        19.59279
434.34        19.31693
434.78        19.03673
435.23        18.73508
435.67        19.66586
436.12        19.07817
436.57        19.02091
437.01        18.76399
437.46        18.67284
437.90        18.76495
438.35         18.8738
438.79        18.95202
439.24        19.00805
439.68        19.02848
440.13        18.85966
440.57        18.61367
441.02        18.77353
441.46        19.16448
441.91        19.19354
442.35        18.42938
442.80        18.18117
443.24        18.26458
443.69        18.27135
444.13        18.16141
444.58        18.07641
445.02        18.02088
445.47        18.00623
445.91        18.01375
446.36        17.97113
446.80        17.86811
447.24         17.7492
447.69        17.64135
448.13        17.54723
448.58        17.48111
449.02        17.43808
449.47        17.40866
449.91        17.36972
450.36        17.32203
450.80        17.26938
451.25        17.23067
451.69         17.2165
452.13        17.23386
452.58        17.26919
453.02        17.31323
453.47        17.35406
453.91        17.38734
454.36        17.41459
454.80        17.42644
455.24        17.40724
455.69        17.36308
456.13        17.28052
456.58        17.19898
457.02        17.16752
457.46        17.19108
457.91        17.21641
458.35        17.22065
458.79        17.21271
459.24        17.18365
459.68        17.13696
460.13        17.13402
460.57        17.10612
461.01         17.0412
461.46        17.39909
461.90        17.48875
462.34        17.30323
462.79        17.41421
463.23        17.24154
463.68        17.08118
464.12        16.96021
464.56        17.03404
465.01        17.16851
465.45        17.29996
465.89        17.35346
466.34        17.31888
466.78        17.16338
467.22        16.96991
467.67        16.99243
468.11        17.20289
468.55        17.24912
468.99        17.12374
469.44        17.09702
469.88        17.17051
470.32        17.17967
470.77        17.12154
471.21        17.07835
471.65        17.05662
472.10        17.03605
472.54        17.01818
472.98        17.04252
473.42        17.10841
473.87        17.15617
474.31         17.1853
474.75        17.29848
475.20        17.45648
475.64        17.46583
476.08        17.36401
476.52        17.36573
476.97        17.48032
477.41        17.60608
477.85        17.69846
478.29        17.73815
478.74        17.71901
479.18        17.61864
479.62        17.51287
480.06        17.52489
480.50        17.65085
480.95        17.77221
481.39          17.843
481.83        17.87586
482.27        17.86454
482.72        17.80653
483.16        17.73312
483.60        17.71592
484.04        17.77136
484.48        17.89668
484.93         18.1205
485.37        18.33467
485.81        18.43846
486.25        18.89898
486.69        19.64417
487.14        19.04927
487.58        18.83703
488.02        19.42741
488.46        19.04259
488.90        19.13986
489.34        19.02181
489.79         19.1339
490.23        19.40201
490.67        19.55461
491.11        19.58265
491.55        19.56545
491.99        19.53891
492.43         19.5494
492.88        19.61666
493.32        19.70015
493.76        19.81054
494.20        19.97809
494.64        20.20046
495.08        20.48127
495.52        20.77477
495.96         20.9787
496.41        21.10298
496.85         21.2262
497.29        21.36758
497.73        21.56921
498.17        21.80416
498.61        21.90509
499.05         21.8935
499.49        21.99712
499.93        22.23331
500.37        22.41534
500.82         22.5467
501.26        22.81746
501.70        23.16835
502.14        23.28564
502.58        23.19306
503.02        23.19588
503.46        23.31407
503.90        23.38194
504.34        23.38531
504.78        23.38106
505.22        23.37231
505.66        23.35176
506.10        23.34174
506.54        23.37216
506.98        23.45127
507.42        23.57755
507.86        23.72574
508.30        23.85228
508.74        23.94293
509.18        23.99989
509.62        24.05418
510.06        24.15742
510.50        24.31746
510.94        24.52061
511.38        24.70455
511.82        24.76907
512.26        24.69752
512.70        24.52245
513.14         24.3372
513.58        24.28535
514.02        24.39063
514.46        24.60975
514.90        24.85152
515.34        24.90529
515.78        24.77549
516.22        24.57951
516.66         24.4169
517.10        24.10866
517.54        23.68629
517.98        24.21221
518.42        24.08207
518.86        24.32871
519.30         24.4528
519.74        24.61207
520.18         24.7528
520.62        24.76723
521.06        24.66104
521.50        24.44888
521.93        24.20418
522.37        24.05828
522.81        24.04191
523.25        24.11872
523.69        24.23038
524.13        24.28361
524.57        24.25049
525.01        24.15842
525.45         24.0389
525.89        23.94016
526.32        23.87745
526.76        23.83791
527.20         23.7973
527.64        23.72444
528.08        23.61188
528.52        23.46749
528.96        23.32851
529.40        23.24763
529.83        23.23156
530.27        23.27147
530.71        23.30207
531.15          23.223
531.59        23.02263
532.03        22.73762
532.46        22.45984
532.90        22.35077
533.34        22.43088
533.78        22.64174
534.22         22.8842
534.66         23.0056
535.09        22.96355
535.53         22.8154
535.97        22.61576
536.41         22.4487
536.85        22.34685
537.28        22.29546
537.72        22.29529
538.16        22.28009
538.60        22.35016
539.04         22.4141
539.47        22.48149
539.91        22.57285
540.35        22.69703
540.79        22.65401
541.22        22.74242
541.66        22.81164
542.10          22.971
542.54        22.84912
542.97        23.05347
543.41        23.16199
543.85        23.33894
544.29        23.52263
544.72        23.68242
545.16        23.83996
545.60        23.98389
546.04        24.03537
546.47        24.06492
546.91        24.33604
547.35        24.78822
547.79        25.10325
548.22        25.23914
548.66        25.30326
549.10        25.34574
549.53        25.53889
549.97        25.89746
550.41        25.97278
550.84        26.24136
551.28        26.43939
551.72        26.71567
552.15        26.98524
552.59        27.24119
553.03        27.49433
553.46        27.70754
553.90        27.85054
554.34        27.91877
554.77        27.93991
555.21        27.93415
555.65        27.98951
556.08        28.10866
556.52         28.2712
556.96        28.44458
557.39        28.61237
557.83        28.75333
558.27         28.8086
558.70        28.80232
559.14        28.83201
559.57        28.90056
560.01        28.99281
560.45        29.08788
560.88        29.11796
561.32        29.13655
561.75        29.22593
562.19        29.47059
562.63         29.5817
563.06        29.57965
563.50         29.5626
563.93        29.56152
564.37        29.68075
564.80        29.79341
565.24        29.99676
565.68        30.20377
566.11        30.38606
566.55        30.55005
566.98        30.64198
567.42        30.65688
567.85         30.9889
568.29        30.84297
568.72        31.13247
569.16        31.54721
569.60         31.8455
570.03        31.99349
570.47        32.13256
570.90        32.12909
571.34        32.60365
571.77        32.51615
572.21        32.79871
572.64        33.17115
573.08        33.20704
573.51        33.51292
573.95        34.07212
574.38        34.25259
574.82         34.5242
575.25        34.59877
575.69         34.5136
576.12        34.23715
576.56         34.1734
576.99        34.32103
577.42        34.68393
577.86        34.68192
578.29        34.57642
578.73        35.21068
579.16        34.61779
579.60        34.15133
580.03        34.12019
580.47        34.04944
580.90        33.89962
581.33        33.66195
581.77        33.82953
582.20        34.37972
582.64        34.12267
583.07        33.30457
583.51        33.26003
583.94        32.87976
584.37         32.7226
584.81        32.28658
585.24        32.28925
585.68        32.51472
586.11        32.56758
586.54        32.20962
586.98        31.85661
587.41        31.65741
587.85        31.72915
588.28        31.99165
588.71        31.92121
589.15        31.57104
589.58        31.22267
590.01        31.14398
590.45         31.6615
590.88        31.32134
591.31        31.33802
591.75        31.22954
592.18        31.36829
592.61        31.08236
593.05        31.54263
593.48        31.57679
593.91        32.35604
594.35        31.89179
594.78        31.79099
595.21        32.12129
595.65        32.45704
596.08        32.37494
596.51        32.47364
596.94        32.66135
597.38        32.79305
597.81        32.90588
598.24        33.26375
598.68        34.10749
599.11        34.01566
599.54         34.9064
599.97        34.97622
600.41         35.2383
600.84        35.86053
601.27         36.3587
601.70        36.75085
602.14        36.89026
602.57        37.29996
603.00        37.94467
603.43        38.67135
603.87        38.81399
604.30        39.29888
604.73        39.98587
605.16         40.0893
605.60        40.72705
606.03        41.28075
606.46        41.89854
606.89        42.63877
607.32        42.90592
607.76        43.10109
608.19        43.53992
608.62        44.20288
609.05         44.2146
609.48        44.60076
609.92        45.10693
610.35        45.02182
610.78        46.06847
611.21         46.4475
611.64        46.53591
612.07         46.7683
612.50        47.28092
612.94         47.1656
613.37        47.76037
613.80        47.99651
614.23        48.25535
614.66        48.77874
615.09        49.13566
615.52        49.61724
615.96        49.97018
616.39        50.30863
616.82        50.71105
617.25        50.26951
617.68         50.6217
618.11        51.11375
618.54        51.63147
618.97        51.76697
619.40         51.4233
619.84        51.50756
620.27         51.3124
620.70        51.71754
621.13        52.34858
621.56        52.47198
621.99        52.23192
622.42        52.35138
622.85        52.85909
623.28        53.04044
623.71        52.87263
624.14        53.02047
624.57        52.91691
625.00        52.74252
625.43         52.9105
625.86        52.31462
626.29        52.35616
626.72        52.13535
627.15        52.06078
627.58        51.90066
628.01        51.58776
628.44         51.8315
628.87        51.36328
629.30        50.99728
629.73        50.86753
630.16         50.3515
630.59        50.11123
631.02        49.70209
631.45        49.29707
631.88        48.88577
632.31        48.46679
632.74        48.02771
633.17         47.5612
633.60        47.07516
634.03         46.5713
634.46        46.05713
634.89        45.52511
635.32         44.9626
635.75          44.379
636.18        43.78338
636.61        43.21322
637.04        42.73822
637.47        42.35674
637.89        42.01453
638.32        41.67783
638.75        41.34888
639.18        41.01723
639.61        40.67678
640.04        40.32134
640.47        39.94927
640.90        39.56732
641.33        39.17942
641.76        38.82531
642.18        38.57473
642.61        38.43473
643.04        38.38792
643.47        38.39428
643.90        38.38267
644.33        38.33529
644.76        38.28008
645.18        38.23429
645.61        38.22818
646.04        38.27676
646.47        38.36769
646.90        38.52632
647.33        38.79454
647.75        39.17141
648.18          39.639
648.61        40.13883
649.04        40.56595
649.47        40.90538
649.89         41.2062
650.32        41.52684
650.75        41.94888
651.18        42.52538
651.61        43.20872
652.03        43.97252
652.46        44.92213
652.89        45.93125
653.32        46.39091
653.74        46.45273
654.17        46.97462
654.60        47.80807
655.03        48.82641
655.46        48.46024
655.88         50.9079
656.31        52.29878
656.74        61.74198
657.16        58.37822
657.59        53.33649
658.02        53.19445
658.45        53.29309
658.87         54.5425
659.30        54.76394
659.73        55.44072
660.15        56.53011
660.58        56.32747
661.01        56.32083
661.44        56.10474
661.86         56.3212
662.29        56.95201
662.72        57.71017
663.14        58.42509
663.57        58.64322
664.00        58.48585
664.42        58.63844
664.85          59.161
665.27        59.57483
665.70        59.82642
666.13        60.10672
666.55        60.41132
666.98        60.67248
667.41        60.89057
667.83        61.06533
668.26        61.19275
668.69        61.29469
669.11        61.38313
669.54        61.47141
669.96        61.57338
670.39        61.68131
670.82        61.81787
671.24        62.02618
671.67        62.30497
672.09        62.60872
672.52        62.86147
672.94        63.11765
673.37        63.05716
673.80        62.95297
674.22        62.81068
674.65          62.784
675.07        62.91454
675.50        63.15948
675.92        63.44742
676.35        63.57629
676.77        63.50402
677.20        63.47757
677.62        63.29504
678.05        63.24189
678.47        63.24552
678.90        63.56618
679.32        63.66687
679.75        63.90266
680.17        64.09441
680.60        64.32402
681.02        64.55078
681.45        64.55358
681.87        64.41354
682.30        64.47227
682.72        64.71493
683.15        64.79929
683.57        64.72843
684.00        64.64093
684.42        64.69775
684.85        64.78139
685.27        64.92856
685.70         65.1406
686.12        65.35751
686.54        65.52923
686.97        65.63439
687.39        65.64142
687.82        65.55764
688.24        65.67609
688.66        65.63381
689.09        65.67014
689.51        65.68287
689.94        65.70361
690.36        65.75124
690.78        65.77628
691.21        65.77969
691.63        65.90965
692.06        66.18909
692.48        66.10159
692.90        66.25984
693.33        66.62003
693.75        66.27213
694.17        66.41048
694.60        66.62326
695.02        66.50105
695.44        66.08607
695.87        65.86491
696.29        65.89808
696.71        65.91667
697.14        66.03226
697.56        66.11317
697.98        67.11222
698.41        67.32069
698.83        67.30048
699.25        67.05896
699.68        66.81933
700.10        66.68777
700.52        66.71994
700.94        66.88544
701.37        67.09124
701.79        67.25873
702.21        67.32607
702.64         67.3287
703.06        67.31409
703.48        67.36212
703.90        67.49343
704.33        67.67336
704.75        67.84101
705.17        67.86996
705.59        67.74158
706.01          67.503
706.44        67.27678
706.86        67.25623
707.28        67.47109
707.70        67.84676
708.12         68.2648
708.55        68.53473
708.97        68.60414
709.39        68.54033
709.81        68.39031
710.23        68.24052
710.66        68.13647
711.08        68.06251
711.50        68.03778
711.92        68.08792
712.34        68.21008
712.76        68.44277
713.19        68.73166
713.61        68.81676
714.03         68.9893
714.45        68.98807
714.87        68.96172
715.29        68.97925
715.71        69.06071
716.13        69.17824
716.56        69.27492
716.98        69.34695
717.40        69.35628
717.82        69.32194
718.24         69.2723
718.66        69.25007
719.08        69.26531
719.50         69.2994
719.92        69.33556
720.34        69.34574
720.76         69.3232
721.19        69.28129
721.61        69.23317
722.03        69.16228
722.45        69.09741
722.87        69.03045
723.29        69.00333
723.71        69.07355
724.13        69.24984
724.55        69.51102
724.97        69.80874
725.39        70.06115
725.81        70.23759
726.23        70.35081
726.65        70.42055
727.07        70.48788
727.49         70.5646
727.91        70.63201
728.33        70.68605
728.75        70.72224
729.17         70.7449
729.59         70.7711
730.01        70.79082
730.43        70.80463
730.85        70.81972
731.27        70.76706
731.69        70.69907
732.10        70.87402
732.52        71.21478
732.94        71.31748
733.36        71.16759
733.78        71.13531
734.20        71.27744
734.62        71.23721
735.04         70.9642
735.46        71.16378
735.88        71.43517
736.30        70.68455
736.72        71.04652
737.13        71.34838
737.55        71.37456
737.97        71.62341
738.39        71.78143
738.81        71.61561
739.23        71.24852
739.65        71.21815
740.06        71.45923
740.48        71.75963
740.90        72.00841
741.32         71.3341
741.74        71.03725
742.16        70.89906
742.57        71.09275
742.99        71.41557
743.41        71.69867
743.83        71.91782
744.25        72.00831
744.67        71.98172
745.08        71.87479
745.50        71.71346
745.92        71.53976
746.34        71.34676
746.75        71.16403
747.17        71.03945
747.59        70.99118
748.01        71.02826
748.42        71.13306
748.84        71.26699
749.26        71.42774
749.68         71.4972
750.09        71.52302
750.51        71.82323
750.93        72.23336
751.35        72.24863
751.76        71.97459
752.18        71.66866
752.60        71.43822
753.01        72.26393
753.43        71.72054
753.85        71.75185
754.27        71.90443
754.68        71.99155
755.10        72.06113
755.52        72.11324
755.93        72.16994
756.35        72.20766
756.77         72.2364
757.18        72.32079
757.60        72.51035
758.02        72.60757
758.43         72.5054
758.85        72.77718
759.26        73.10267
759.68        72.17429
760.10        72.37252
760.51           72.49
760.93        72.05132
761.34        71.66009
761.76        72.12463
762.18        72.11328
762.59        71.99462
763.01        71.84796
763.42        71.93376
763.84         72.2046
764.26        72.64732
764.67        72.68066
765.09        72.47295
765.50        72.83197
765.92         73.6084
766.33        73.88349
766.75        73.51535
767.16        72.92664
767.58        72.27052
768.00        71.80412
768.41        71.72794
768.83        71.94743
769.24         72.3718
769.66        73.13155
770.07        73.90385
770.49        73.75535
770.90        72.92339
771.32        72.87899
771.73         73.5884
772.15        73.75976
772.56        73.35262
772.97         73.0678
773.39        72.92387
773.80        72.70128
774.22        72.39705
774.63        72.06292
775.05        71.79344
775.46        71.78812
775.88        72.05006
776.29        72.54357
776.70        73.06456
777.12        73.30428
777.53        73.20043
777.95        72.81531
778.36        72.35019
778.77        72.16296
779.19        72.33757
779.60        72.80033
780.02        73.31878
780.43        73.66535
780.84        73.76424
781.26        73.41261
781.67        72.87321
782.09        73.27099
782.50        74.31291
782.91        74.23577
783.33         73.1841
783.74        72.87077
784.15        73.35402
784.57         73.8157
784.98        74.02531
785.39        73.68902
785.81        72.93375
786.22        72.55665
786.63        72.63766
787.04         72.6476
787.46        72.61106
787.87        72.88282
788.28        73.38707
788.70        73.78243
789.11        74.00102
789.52        74.12729
789.93        74.17548
790.35        74.19347
790.76        74.18211
791.17        74.02624
791.58        73.77284
792.00        73.54213
792.41        73.36423
792.82        73.32005
793.23        73.28086
793.65        72.96262
794.06        72.70695
794.47        72.93418
794.88        73.21859
795.29        75.58473
795.71        74.36114
796.12         73.9296
796.53        74.26357
796.94         74.0364
797.35          73.726
797.76        73.41765
798.18        73.23198
798.59        73.19463
799.00        73.30059
799.41        73.55917
799.82        73.87778
800.23        74.10093
800.64        74.17477
801.06        74.09647
801.47        73.97646
801.88        73.93544
802.29         74.0033
802.70        74.13606
803.11        74.25638
803.52        74.20213
803.93        73.94975
804.34        73.64071
804.75        73.39833
805.17        73.05858
805.58         73.3111
805.99        73.45168
806.40        73.62092
806.81        74.10574
807.22        74.68766
807.63        74.52453
808.04        73.81991
808.45        73.66006
808.86        74.17237
809.27        74.87191
809.68         75.5315
810.09        75.90498
810.50        75.87172
810.91         75.5416
811.32        75.07172
811.73        74.65572
812.14        74.36905
812.55        74.24295
812.96         74.2152
813.37        73.98321
813.78        73.61697
814.19        73.59669
814.60        73.85134
815.01        73.92139
815.42        73.78307
815.83        73.56274
816.24        73.52839
816.65        73.56232
817.05        73.75764
817.46        74.05817
817.87        74.37767
818.28        74.53318
818.69        74.49083
819.10        74.29931
819.51        74.09038
819.92        74.10509
820.33        74.39947
820.74        74.87686
821.14        75.40302
821.55        75.73614
821.96        75.81803
822.37        75.71709
822.78        75.48939
823.19        75.22845
823.60        74.98446
824.00        74.76051
824.41        74.54381
824.82        74.41856
825.23        74.39929
825.64        74.48237
826.04        74.64424
826.45        74.79042
826.86        74.90245
827.27        74.99155
827.68        75.04494
828.08        75.07599
828.49        75.03247
828.90        74.92915
829.31        74.80473
829.72        74.73531
830.12        74.75999
830.53        74.83348
830.94        74.90883
831.35        74.87679
831.75         74.7423
832.16        74.49762
832.57        74.25285
832.97        74.17203
833.38        74.27216
833.79        74.49527
834.20        74.74505
834.60        74.86428
835.01        74.83136
835.42        74.71013
835.82         74.5413
836.23        74.33826
836.64        74.15147
837.04        73.96346
837.45        73.85744
837.86        74.01651
838.26        74.47065
838.67        75.13863
839.08        75.80733
839.48        76.06451
839.89        75.80945
840.29        75.19466
840.70        74.53012
841.11         74.2035
841.51        74.32645
841.92        74.72227
842.33        75.30354
842.73        75.91818
843.14        76.37952
843.54        76.79542
843.95        77.00809
844.35         76.8431
844.76        76.31158
845.17        75.49821
845.57         74.6587
845.98        74.21132
846.38        74.25459
846.79        74.68316
847.19        75.37498
847.60        75.95036
848.00        76.32116
848.41        76.50139
848.81        76.61436
849.22        76.77605
849.62         77.0602
850.03        77.36433
850.43        77.61587
850.84        77.59953
851.24        77.33061
851.65        76.83368
852.05        76.33694
852.46        76.08368
852.86        76.14536
853.27        76.46175
853.67         76.8181
854.07        77.02596
854.48        77.00024
854.88        76.82899
855.29        76.54871
855.69        76.38007
856.10        76.29897
856.50        76.33007
856.90        76.38287
857.31        76.34118
857.71        76.25574
858.12        76.12074
858.52        76.02002
858.92        75.95895
859.33        75.92852
859.73        75.94673
860.13        76.02341
860.54         76.1917
860.94        76.49409
861.34        76.86163
861.75        77.13699
862.15        77.17268
862.55        76.90331
862.96        76.42045
863.36        75.86454
863.76        75.44523
864.17        75.24052
864.57        75.21111
864.97        75.36682
865.38        75.69887
865.78        76.21533
866.18        76.83871
866.58        77.37981
866.99        77.50558
867.39        77.17782
867.79        76.46786
868.19        75.48804
868.60        74.41151
869.00         73.3102
869.40        72.20831
869.80        71.35205
870.21         71.1237
870.61        71.63077
871.01        72.70466
871.41        73.91365
871.81        74.55646
872.22        74.48344
872.62        73.90615
873.02        73.08182
873.42        72.64247
873.82        72.57169
874.22        72.21817
874.63        71.79208
875.03        71.82735
875.43        72.35416
875.83        74.11974
876.23        74.29044
876.63        73.86214
877.03        72.31314
877.44        69.74815
877.84        128.5653
878.24        69.08981
878.64        70.40616
879.04        74.32319
879.44        71.56027
879.84        70.04981
880.24        74.05049
880.64        74.15044
881.04        71.37153
881.44        69.67938
881.84        69.72105
882.24        70.83192
882.65        72.31062
883.05        72.85271
883.45        72.06492
883.85        70.67381
884.25        69.35954
884.65        68.85674
885.05        69.35454
885.45        70.56848
885.85        72.01329
886.25         72.8903
886.65        72.95162
887.05        72.46794
887.45        71.76266
887.85        71.31554
888.25        71.27754
888.65        71.48125
889.04        71.85263
889.44        72.20151
889.84        72.46899
890.24        72.70907
890.64        72.87936
891.04        72.90665
891.44        72.76494
891.84        72.41818
892.24        71.93324
892.64        71.45153
893.04        71.04618
893.44        70.76514
893.83        70.46852
894.23         69.9681
894.63        69.24569
895.03        68.36423
895.43        67.65595
895.83        67.66722
896.23        68.47672
896.63        69.89178
897.02         71.4003
897.42        72.07645
897.82        71.69808
898.22        70.56021
898.62        69.14874
899.01        68.21217
899.41        67.99591
899.81         68.2504
900.21        68.79536
900.61        69.36318
901.00        69.82929
901.40        70.25555
901.80        70.61751
902.20        70.83589
902.59        70.90756
902.99        70.83709
903.39        70.61391
903.79        70.24962
904.18        69.78402
904.58        69.27254
904.98        68.92747
905.38         69.0695
905.77        69.71488
906.17        70.76078
906.57        71.83638
906.96         72.3812
907.36         72.2247
907.76         71.5118
908.15        70.61703
908.55        70.09668
908.95        70.11598
909.34        70.55116
909.74        71.03062
910.14        70.90532
910.53        70.03546
910.93        68.72441
911.33        67.50044
911.72          67.184
912.12         67.8959
912.52        69.27912
912.91        70.81928
913.31          71.653
913.70        71.60662
914.10        70.91652
914.49        69.81496
914.89        68.86411
915.29        68.32018
915.68        68.04989
916.08        68.05152
916.47        68.30014
916.87        68.71045
917.26        69.27974
917.66        69.87343
918.05        70.29756
918.45        70.45766
918.84        70.42818
919.24        70.14235
919.64        69.52443
920.03         68.6386
920.42        67.56873
920.82        66.69367
921.21        66.54039
921.61        67.14578
922.00        68.38828
922.40        69.76476
922.79        70.68179
923.19        70.94238
923.58        70.48788
923.98        69.50655
924.37        69.03855
924.77        69.50388
925.16        67.43159
925.55        68.69156
925.95        68.41405
926.34        68.37633
926.74        68.42986
927.13        68.69131
927.52        69.12148
927.92         69.6454
928.31        70.31945
928.70        70.92229
929.10        71.10573
929.49        70.79559
929.89        70.08875
930.28        69.31663
930.67        69.02037
931.07        69.29904
931.46         70.0386
931.85        70.88942
932.24        71.33611
932.64        71.23804
933.03        70.66447
933.42        69.84875
933.82        69.28919
934.21         69.1215
934.60        69.23636
934.99         69.2076
935.39        68.70583
935.78        67.71352
936.17        65.79618
936.56        63.20379
936.96        64.30619
937.35        63.82424
937.74        65.79562
938.13        67.79589
938.53        69.15267
938.92        69.78587
939.31        69.94922
939.70        69.81934
940.09        69.58206
940.49        69.37997
940.88        69.17676
941.27        69.07345
941.66        69.26398
942.05        69.74561
942.44        70.43691
942.84        71.22755
943.23        71.92113
943.62        72.40553
944.01        72.77071
944.40        72.83954
944.79        72.34027
945.18        71.27113
945.57        69.66803
945.97        68.12584
946.36        67.67757
946.75        68.59325
947.14         70.4747
947.53        72.44931
947.92         73.3165
948.31        72.86615
948.70        71.48126
949.09        69.69342
949.48        68.44502
949.87        68.07475
950.26        68.29907
950.65         68.8729
951.04        69.39307
951.43        69.67986
951.82        69.86485
952.21        69.95537
952.60        69.92924
952.99        69.79845
953.38         69.5419
953.77        69.16482
954.16        68.71343
954.55        68.22647
954.94        67.72431
955.33        67.31918
955.72        67.16649
956.11        67.31284
956.50        67.75574
956.89        68.33833
957.28        68.74521
957.66        68.87229
958.05         68.6977
958.44        68.45343
958.83        68.47272
959.22        68.79922
959.61         69.3532
960.00          69.788
960.39        69.50388
960.78        68.39547
961.16        66.66486
961.55        64.94325
961.94        64.04812
962.33        64.16361
962.72         65.0859
963.11        66.26875
963.49        66.77332
963.88        66.26268
964.27         65.0502
964.66        63.72384
965.04        63.24932
965.43        63.85544
965.82        65.22936
966.21        66.81076
966.60        67.70472
966.98        67.68148
967.37        67.00391
967.76        66.14948
968.15        65.85574
968.53        66.32466
968.92        67.21609
969.31         68.1852
969.69        68.67635
970.08        68.46518
970.47        67.79126
970.86        66.82468
971.24        65.78932
971.63        64.86449
972.02        64.00724
972.40        63.28889
972.79        62.86364
973.17        62.78205
973.56        62.93731
973.95        63.32726
974.33        63.89696
974.72        64.45023
975.11        64.96634
975.49          65.214
975.88        64.84538
976.26        63.85733
976.65        62.43774
977.04         60.8813
977.42         59.7144
977.81        59.15425
978.19        59.04806
978.58        59.43476
978.96        60.35933
979.35        61.66739
979.74         63.4166
980.12        65.13151
980.51        65.71968
980.89        65.08308
981.28        63.47264
981.66        61.73808
982.05        61.08722
982.43        61.70728
982.82        63.23815
983.20        65.09252
983.59        65.91473
983.97        65.38841
984.35        63.82493
984.74        61.95257
985.12        60.80363
985.51        60.67093
985.89        61.24948
986.28        62.04408
986.66        62.15669
987.04        61.27941
987.43        59.89964
987.81        58.40106
988.20        57.14405
988.58        56.12957
988.96        55.12586
989.35         54.3021
989.73        54.14362
990.12        54.81222
990.50        56.20782
990.88        57.62808
991.27        58.28005
991.65        58.25465
992.03        57.71447
992.42        57.18134
992.80        57.61554
993.18        59.23543
993.56        61.48716
993.95        63.73158
994.33        65.50966
994.71        66.51373
995.10        66.93816
995.48        66.80348
995.86        66.03372
996.24         64.6918
996.63        62.78823
997.01        60.56243
997.39          58.894
997.77        58.27313
998.15        58.50492
998.54        59.26991
998.92        60.17356
999.30        61.12344
999.68        62.36117
1000.06        63.41756
1000.45        62.91626
1000.83        60.70931
1001.21        57.60467
1001.59        54.94682
1001.97        53.73352
1002.35         53.8031
1002.73        54.79337
1003.12        56.30207
1003.50        57.39385
1003.88        57.45718
1004.26        56.84663
1004.64        55.62441
1005.02        53.81717
1005.40        51.55242
1005.78        48.72484
1006.16        46.20279
1006.54        45.85008
1006.92        47.80584
1007.30        50.97668
1007.69        53.97769
1008.07        55.63354
1008.45        55.70283
1008.83        54.48494
1009.21        51.46972
1009.59        46.49737
1009.97        40.58884
1010.35        34.53021
1010.73        31.03386
1011.11         32.4365
1011.49        38.00042
1011.86        46.66739
1012.24         54.5852
1012.62        57.90716
1013.00        56.38383
1013.38        51.43708
1013.76        45.18721
1014.14        41.40961
1014.52        41.29978
1014.90        43.74433
1015.28        47.14312
1015.66        48.79512
1016.04        47.74761
1016.41         44.7499
1016.79        40.72775
1017.17        37.99049
1017.55        37.68188
1017.93        38.79049
1018.31         40.3904
1018.69        41.75116
1019.06        42.69167
1019.44        43.29401
1019.82        43.49707
1020.20        42.94757
1020.58        41.55032
1020.95        39.44707
1021.33          36.543
1021.71        31.78153
1022.09        23.79881
1022.46        8.759336
1022.84       -14.10429
1023.22       -23.92958
1023.60       -6.594674
1023.97        15.54253
1024.35          28.566
1024.73        33.09004
