SpectraSmart Spectrum 2.9.0.0
--------- Device Information -----------
Spectrum Name :  反射率_0
Saving Time :  2024/04/20 00:47:04
Spectro-Module Model Name : SE2030-DUVN
Spectro-Module Serial Number : OS361AC55029948
Wavelength Start : 200
Wavelength End : 1025
Wavelength Unit : Wavelength(nm)
Spectrum Unit : Reflectance(%)
-----------Spectrum Setting ------------
Integration Time : 30ms
Average : 10
Boxcar : 0
Background removal :  enabled
linearity correction :  enabled
SC :  disabled
Intensity correction :  disabled
DWT denoise :  enabled
savitzky-golay :  disabled
FFT :  disabled
Running average :  disabled
Kalman :  disabled
High pass :  disabled
---------------BEGIN--------------------
Wavelength(nm)             Reflectance(%)
200.29               0
200.75        59.16908
201.21        59.04828
201.67         60.7442
202.13        65.00822
202.58        71.92538
203.04        81.74799
203.50        91.16747
203.96         92.1458
204.42        84.81449
204.88        74.69348
205.34        65.89995
205.80        59.95934
206.26        55.80569
206.72        51.82414
207.18         48.3829
207.64         48.7734
208.10        54.91261
208.55        64.94838
209.01        72.88407
209.47        74.93551
209.93        72.07323
210.39        66.17107
210.85        59.72017
211.31        55.27283
211.77        53.03137
212.23        52.14138
212.69        52.45737
213.14        53.54638
213.60        54.38396
214.06        55.51617
214.52        56.64656
214.98        57.76155
215.44        58.95045
215.90        59.92891
216.36         60.9929
216.81        62.58855
217.27        64.47789
217.73        66.63975
218.19         67.6771
218.65        65.62599
219.11        60.21091
219.57        51.48754
220.02        41.78864
220.48        37.53798
220.94        40.83967
221.40        50.59417
221.86        61.88152
222.32        67.11431
222.77        64.70137
223.23        57.18185
223.69        49.24801
224.15        47.55593
224.61        52.03867
225.06        59.07783
225.52        65.08437
225.98        66.98087
226.44        64.82203
226.90        60.03452
227.36        54.33599
227.81        50.77485
228.27        50.61024
228.73         52.4605
229.19        55.01417
229.65        56.76402
230.10        57.41152
230.56         57.6241
231.02        57.66544
231.48        57.84145
231.93        58.17973
232.39         58.5013
232.85        58.77574
233.31         59.0505
233.77        59.32407
234.22        59.67495
234.68        59.94893
235.14        59.74637
235.60        59.07066
236.05        58.07552
236.51        57.30523
236.97        57.61374
237.43        59.33944
237.88        62.77006
238.34        67.41376
238.80        71.49893
239.26        73.38426
239.71        72.93834
240.17        70.97233
240.63        69.71373
241.08        69.89093
241.54        70.94173
242.00        71.90179
242.46        70.85072
242.91        66.77773
243.37        58.80563
243.83        47.47467
244.28        39.76555
244.74        42.82689
245.20        55.58529
245.66        68.34023
246.11        72.28007
246.57        66.31957
247.03        50.88081
247.48        29.41961
247.94        22.17443
248.40        32.74069
248.85        46.96812
249.31        57.70184
249.77        63.50792
250.22        65.93983
250.68         66.7746
251.14        66.97363
251.59        67.92799
252.05        70.45625
252.51        74.16241
252.96        77.80344
253.42        79.60026
253.88        79.41215
254.33        78.16595
254.79        78.16474
255.25        81.42051
255.70        87.39442
256.16         94.4683
256.62        100.9604
257.07         105.057
257.53        106.7859
257.99        106.8045
258.44        104.8048
258.90        101.5631
259.35        97.59724
259.81        94.36652
260.27        91.95069
260.72        90.40379
261.18        89.85804
261.63         89.4282
262.09        89.53809
262.55         90.0698
263.00        90.64047
263.46        91.38096
263.91        91.32029
264.37        89.84142
264.83        87.00329
265.28        83.19639
265.74        79.63593
266.19          77.395
266.65        76.75641
267.11        77.10075
267.56        77.71325
268.02        77.62148
268.47        76.56454
268.93        74.89751
269.38        72.89078
269.84        71.20589
270.30        70.03011
270.75        69.14999
271.21        68.41504
271.66         67.5676
272.12        66.52837
272.57        65.38197
273.03        64.22364
273.48         63.0668
273.94        62.01395
274.39        61.00306
274.85        60.07196
275.31        59.18175
275.76        58.28255
276.22        57.40952
276.67        56.54908
277.13        55.85374
277.58        55.24229
278.04        54.73262
278.49        54.10706
278.95        53.19553
279.40        51.93605
279.86        50.53791
280.31        49.12531
280.77        48.07507
281.22        47.36126
281.68        46.92699
282.13        46.61337
282.59        46.26939
283.04        45.82063
283.50        45.37422
283.95          44.913
284.41        44.48935
284.86        44.08293
285.32        43.71102
285.77        43.39602
286.22        43.27149
286.68        43.34298
287.13        43.51828
287.59        43.70336
288.04        43.69581
288.50        43.49115
288.95        43.10584
289.41        42.65894
289.86        42.24031
290.32        41.94901
290.77        41.75345
291.22        41.66176
291.68        41.64728
292.13        41.70419
292.59        41.87989
293.04        42.21992
293.50        42.81863
293.95        43.66176
294.40        44.70194
294.86        45.84121
295.31        46.93705
295.77        47.95086
296.22        48.91037
296.68        49.85563
297.13         50.8405
297.58         51.8805
298.04        52.94616
298.49        54.01658
298.95        55.11869
299.40        56.22322
299.85        57.32948
300.31        58.39561
300.76        59.32771
301.21         60.1197
301.67        60.83086
302.12        61.47557
302.58        62.18589
303.03         62.9465
303.48        63.76358
303.94        64.63321
304.39          65.479
304.84        66.29827
305.30        67.09785
305.75        67.84715
306.20        68.55229
306.66        69.23067
307.11          69.835
307.57        70.37071
308.02        70.73386
308.47        70.95139
308.93        71.05275
309.38        71.10049
309.83        71.27416
310.29        71.60271
310.74        72.03476
311.19        72.42105
311.65         72.5133
312.10        72.26067
312.55        71.75401
313.00        71.21609
313.46         70.9862
313.91         71.1115
314.36        71.49692
314.82        71.91383
315.27        72.02739
315.72        71.73068
316.18        71.15419
316.63        70.45618
317.08        69.90693
317.53         69.5778
317.99        69.37959
318.44        69.21885
318.89        68.92854
319.35        68.46671
319.80        67.90307
320.25        67.32681
320.70        66.87397
321.16        66.56757
321.61         66.3669
322.06        66.17869
322.51         65.8654
322.97        65.37916
323.42         64.7774
323.87         64.1255
324.32         63.5411
324.78        63.05042
325.23        62.64835
325.68        62.27018
326.13         61.8242
326.59        61.28562
327.04        60.71704
327.49          60.178
327.94        59.77427
328.39        59.51828
328.85        59.33226
329.30        59.19439
329.75        58.97149
330.20        58.62457
330.66         58.1773
331.11         57.6748
331.56        57.10939
332.01        56.50135
332.46        55.85115
332.92        55.22152
333.37        54.76615
333.82        54.51067
334.27        54.43931
334.72        54.45673
335.17        54.38894
335.63        54.16447
336.08         53.8408
336.53        53.49465
336.98         53.2907
337.43        53.26453
337.88        53.36259
338.34        53.43705
338.79        53.30441
339.24        52.90305
339.69        52.29682
340.14        51.66249
340.59        51.29403
341.05        51.25512
341.50        51.46251
341.95        51.72697
342.40        51.75513
342.85        51.47977
343.30        51.00293
343.75        50.46517
344.20        50.09546
344.66        49.95657
345.11        49.94851
345.56        50.00754
346.01        50.03205
346.46        49.97749
346.91        49.89215
347.36        49.73967
347.81        49.45136
348.26        49.04184
348.72        48.55593
349.17        48.08903
349.62        47.87272
350.07        47.95193
350.52        48.24101
350.97        48.61407
351.42         48.8813
351.87        48.97367
352.32         48.9307
352.77        48.75756
353.22        48.46932
353.67        48.09706
354.13        47.66666
354.58        47.20462
355.03        46.80514
355.48        46.50091
355.93        46.28455
356.38        46.16061
356.83        46.12249
357.28        46.14666
357.73          46.216
358.18        46.26764
358.63        46.20426
359.08        45.99946
359.53        45.67688
359.98        45.28165
360.43        44.88454
360.88         44.5161
361.33        44.17246
361.78        43.85747
362.23        43.57709
362.68        43.33305
363.13        43.12073
363.58        42.94611
364.03        42.81258
364.48        42.70157
364.93        42.59526
365.38        42.43158
365.83        42.11911
366.28        41.64857
366.73        41.05967
367.18         40.4388
367.63         39.9185
368.08        39.54078
368.53        39.28122
368.98        39.09436
369.43        38.89964
369.88        38.67185
370.33        38.43353
370.78        38.20971
371.23        38.04297
371.68        37.94279
372.13        37.88376
372.58         37.8372
373.03        37.76504
373.48        37.65039
373.93        37.49848
374.38        37.32145
374.83         37.1355
375.28        36.94402
375.72        36.73547
376.17        36.51637
376.62        36.25718
377.07         35.9663
377.52        35.66146
377.97        35.38873
378.42        35.21553
378.87        35.14716
379.32        35.15293
379.77        35.17916
380.22        35.14327
380.67        35.02253
381.11        34.84575
381.56        34.61825
382.01        34.37901
382.46        34.14646
382.91        33.90509
383.36          33.681
383.81        33.51175
384.26        33.39917
384.71        33.34544
385.15        33.28286
385.60        33.11726
386.05        32.83387
386.50        32.46428
386.95        32.11334
387.40        31.94912
387.85        31.99623
388.29        32.17915
388.74        32.38702
389.19        32.43034
389.64        32.26686
390.09        31.94238
390.54        31.55367
390.98         31.2475
391.43         31.0934
391.88        31.03851
392.33        30.99227
392.78        30.82446
393.23        30.52546
393.67        30.13064
394.12        29.79188
394.57        29.61704
395.02        29.62384
395.47         29.7675
395.91        29.95056
396.36        29.97205
396.81        29.79877
397.26         29.4895
397.71        29.17163
398.15        29.01349
398.60        29.07443
399.05         29.2654
399.50        29.46906
399.95        29.51962
400.39        29.37967
400.84        29.09712
401.29        28.75595
401.74        28.51335
402.18        28.42922
402.63        28.45069
403.08        28.50085
403.53        28.44795
403.97        28.26225
404.42        28.00477
404.87        27.75519
405.32        27.64235
405.76        27.68975
406.21        27.84586
406.66        28.02987
407.11        28.11852
407.55        28.07939
408.00        27.95449
408.45        27.78271
408.90        27.56369
409.34        27.35329
409.79        27.28313
410.24        27.29939
410.68        27.19989
411.13        26.97879
411.58        26.74784
412.03         26.5485
412.47        26.41551
412.92        26.36215
413.37        26.36947
413.81        26.42732
414.26        26.53655
414.71        26.67566
415.15        26.85026
415.60        26.97962
416.05        26.96856
416.49         26.7982
416.94        26.49714
417.39        26.16268
417.83        25.95426
418.28        25.91635
418.73        25.99727
419.17        26.10974
419.62        26.10741
420.07        25.96066
420.51        25.72251
420.96        25.46597
421.41        25.27596
421.85        25.17349
422.30        25.14627
422.74        25.16462
423.19        25.22567
423.64        25.30603
424.08        25.41711
424.53        25.51701
424.98        25.56668
425.42        25.55717
425.87         25.5088
426.31        25.42469
426.76        25.29118
427.21         25.1197
427.65        24.96945
428.10         24.8791
428.54        24.81812
428.99        24.79973
429.44        24.96235
429.88        25.16977
430.33        25.02647
430.77        24.61314
431.22        24.42746
431.66        24.50925
432.11        24.64355
432.56        24.78489
433.00        25.01854
433.45        25.14417
433.89        24.97626
434.34        24.66616
434.78        24.28459
435.23        23.81539
435.67        24.86913
436.12        24.12587
436.57        24.08011
437.01        23.83448
437.46        23.76285
437.90        23.87816
438.35        24.02533
438.79        24.13411
439.24        24.17181
439.68        24.12226
440.13        23.80919
440.57        23.40917
441.02        23.57401
441.46        24.09237
441.91        24.22099
442.35        23.37164
442.80        23.10283
443.24        23.19514
443.69        23.22778
444.13        23.15201
444.58        23.07287
445.02        22.99768
445.47         22.9861
445.91        23.01219
446.36        22.95787
446.80        22.81177
447.24        22.64171
447.69         22.4923
448.13        22.38353
448.58        22.33442
449.02        22.33029
449.47        22.34702
449.91        22.33674
450.36        22.29303
450.80        22.22546
451.25        22.15803
451.69        22.10661
452.13        22.08314
452.58        22.07248
453.02        22.07104
453.47        22.07944
453.91        22.09466
454.36        22.11709
454.80        22.12724
455.24        22.08967
455.69        22.00869
456.13        21.87287
456.58        21.74016
457.02        21.68432
457.46        21.71269
457.91        21.75306
458.35        21.76724
458.79        21.75719
459.24        21.70765
459.68        21.62683
460.13        21.59497
460.57        21.53374
461.01        21.42912
461.46        21.86018
461.90        21.95402
462.34         21.6996
462.79        21.81495
463.23        21.57945
463.68        21.36773
464.12        21.22226
464.56        21.33481
465.01        21.52875
465.45        21.72686
465.89        21.83716
466.34        21.84294
466.78        21.71866
467.22        21.53967
467.67        21.53872
468.11        21.69303
468.55        21.66915
468.99        21.48598
469.44        21.43876
469.88        21.53681
470.32        21.61448
470.77        21.64381
471.21        21.66126
471.65         21.6615
472.10        21.63342
472.54        21.59294
472.98        21.60982
473.42        21.68965
473.87        21.75063
474.31         21.7823
474.75        21.90413
475.20        22.06689
475.64        22.03513
476.08         21.8722
476.52        21.86941
476.97        22.04214
477.41        22.25285
477.85        22.43328
478.29        22.53901
478.74        22.55229
479.18        22.44821
479.62        22.32272
480.06        22.33049
480.50        22.47223
480.95        22.60602
481.39        22.67875
481.83        22.71156
482.27        22.69583
482.72        22.62882
483.16        22.57241
483.60        22.59105
484.04        22.69198
484.48        23.00479
484.93        23.50665
485.37        23.58454
485.81        23.59377
486.25         24.2584
486.69        25.36625
487.14        24.91418
487.58        24.19738
488.02        24.93905
488.46        24.49427
488.90           24.64
489.34        24.41208
489.79        24.59677
490.23        25.06898
490.67        25.23228
491.11        25.11251
491.55        25.05107
491.99        25.10281
492.43        25.16515
492.88        25.25603
493.32        25.42089
493.76        25.65669
494.20        25.91356
494.64        26.17404
495.08        26.50487
495.52        26.84358
495.96        26.96331
496.41        26.92906
496.85        27.04712
497.29        27.31821
497.73        27.58264
498.17        27.79233
498.61        27.85342
499.05        27.81621
499.49        27.94728
499.93        28.27023
500.37        28.55038
500.82        28.76164
501.26        29.09831
501.70        29.47894
502.14         29.5212
502.58          29.293
503.02        29.23916
503.46         29.3974
503.90        29.53718
504.34        29.62217
504.78        29.69302
505.22        29.74033
505.66        29.76689
506.10         29.7866
506.54        29.81553
506.98        29.86316
507.42        29.92645
507.86         30.0162
508.30        30.14916
508.74        30.32003
509.18        30.51516
509.62        30.70713
510.06        30.85185
510.50        30.93895
510.94        30.98547
511.38        30.99537
511.82        30.97869
512.26        30.94646
512.70        30.89447
513.14        30.86213
513.58         30.9057
514.02        31.02407
514.46         31.2062
514.90        31.38569
515.34        31.38325
515.78        31.23582
516.22        31.02146
516.66        30.84699
517.10         30.5656
517.54        30.20747
517.98        30.74319
518.42        30.68091
518.86        30.92268
519.30        31.00397
519.74        31.07853
520.18        31.13007
520.62        31.11299
521.06        31.04409
521.50         30.9227
521.93        30.77817
522.37        30.66939
522.81        30.61212
523.25        30.59376
523.69        30.60461
524.13        30.62636
524.57        30.64646
525.01        30.66568
525.45        30.67032
525.89        30.63791
526.32        30.56455
526.76        30.46001
527.20        30.33313
527.64        30.20526
528.08        30.08412
528.52        29.96055
528.96        29.84983
529.40        29.77223
529.83        29.72577
530.27        29.71556
530.71        29.69338
531.15        29.58446
531.59        29.38436
532.03        29.12245
532.46        28.87235
532.90        28.77085
533.34         28.8319
533.78        29.00362
534.22        29.20885
534.66        29.32853
535.09        29.32417
535.53        29.24331
535.97        29.10904
536.41        28.95553
536.85        28.80648
537.28        28.66767
537.72        28.57714
538.16        28.50918
538.60        28.60771
539.04        28.73508
539.47        28.87691
539.91          29.021
540.35        29.16822
540.79        29.07616
541.22        29.14456
541.66        29.20403
542.10        29.40149
542.54        29.25375
542.97        29.52745
543.41        29.66569
543.85        29.87408
544.29        30.07648
544.72        30.24523
545.16        30.42523
545.60        30.60307
546.04        30.67184
546.47        30.70111
546.91        30.99467
547.35        31.47117
547.79        31.73974
548.22         31.7778
548.66        31.76426
549.10        31.76934
549.53        31.99645
549.97        32.44157
550.41        32.50857
550.84        32.78461
551.28        32.94928
551.72        33.20372
552.15        33.46534
552.59         33.7344
553.03        34.01606
553.46        34.25178
553.90        34.39304
554.34        34.43028
554.77        34.38162
555.21        34.32069
555.65         34.3498
556.08        34.48577
556.52        34.69405
556.96        34.91412
557.39        35.09115
557.83         35.1956
558.27        35.17363
558.70         35.0757
559.14        35.05316
559.57        35.11287
560.01        35.22039
560.45         35.3504
560.88        35.39296
561.32        35.39965
561.75        35.55882
562.19        35.93265
562.63        35.91477
563.06        35.61693
563.50        35.60832
563.93        35.85282
564.37        36.05276
564.80        36.03032
565.24        36.16186
565.68        36.35533
566.11        36.50001
566.55        36.61522
566.98        36.61957
567.42         36.5355
567.85        36.97514
568.29        36.94506
568.72        37.29993
569.16        37.68347
569.60         38.0313
570.03        38.24003
570.47        38.42569
570.90         38.4048
571.34        38.88858
571.77        38.67177
572.21        39.15341
572.64        39.42981
573.08        39.67702
573.51        39.59071
573.95        39.85662
574.38        40.56202
574.82        40.96864
575.25        41.03816
575.69        40.77802
576.12        40.70988
576.56        40.28851
576.99        40.25475
577.42        40.71943
577.86        40.73033
578.29        40.71845
578.73        41.59708
579.16        41.20055
579.60        40.71912
580.03        40.24194
580.47        40.53516
580.90        40.26618
581.33        40.23146
581.77        40.11451
582.20        40.89303
582.64        40.81174
583.07        39.93048
583.51        40.08932
583.94        39.05358
584.37        39.23661
584.81         38.5857
585.24        38.66008
585.68        38.87034
586.11        38.87903
586.54        38.66262
586.98        38.44543
587.41        38.43463
587.85        38.44722
588.28        38.48042
588.71        38.28387
589.15        37.89911
589.58        37.72524
590.01        37.61443
590.45        38.03064
590.88        37.91944
591.31        37.92581
591.75        37.51004
592.18         37.5399
592.61        37.16397
593.05        37.74229
593.48        37.87399
593.91        38.71562
594.35        38.15509
594.78        38.18945
595.21        38.37736
595.65         38.7712
596.08        38.66852
596.51        38.68239
596.94        38.71962
597.38        38.56628
597.81        38.97738
598.24         38.9976
598.68        39.83326
599.11        39.76184
599.54        41.06762
599.97        40.92873
600.41        40.87296
600.84        41.42691
601.27        41.86043
601.70        42.21479
602.14        42.21533
602.57        42.59464
603.00        43.30365
603.43        43.72287
603.87        43.84615
604.30         44.1353
604.73        44.63408
605.16        44.65877
605.60        45.05029
606.03        45.50076
606.46        46.03499
606.89        46.83431
607.32        46.95585
607.76        46.92051
608.19        47.46121
608.62        47.91224
609.05        47.98259
609.48        48.09262
609.92        48.17146
610.35        48.26534
610.78        49.15341
611.21        49.81656
611.64        49.45855
612.07        49.81916
612.50        49.88921
612.94        50.04377
613.37        50.29696
613.80        50.47483
614.23         50.6355
614.66        51.09328
615.09        51.32862
615.52        51.70369
615.96        51.95952
616.39        52.19702
616.82        52.49807
617.25        51.96799
617.68        52.31244
618.11        52.57929
618.54        53.11884
618.97        53.06488
619.40        52.47664
619.84        52.68744
620.27        52.40766
620.70        52.94098
621.13        53.66529
621.56        53.80191
621.99        53.47554
622.42        53.37202
622.85        53.62496
623.28        53.78614
623.71        53.81928
624.14        54.03461
624.57        54.00335
625.00        53.87865
625.43         54.0745
625.86        53.57901
626.29        53.45399
626.72        53.37152
627.15        53.26462
627.58        53.32045
628.01          53.354
628.44        53.32785
628.87        53.21563
629.30        52.77067
629.73        52.53048
630.16        52.23738
630.59        51.99763
631.02        51.76828
631.45        51.51738
631.88        51.25412
632.31         50.9614
632.74        50.62875
633.17        50.26294
633.60        49.88283
634.03         49.4939
634.46        49.09901
634.89        48.69377
635.32        48.25076
635.75        47.78258
636.18        47.34898
636.61        46.96356
637.04        46.55629
637.47        46.21748
637.89        45.88787
638.32        45.58707
638.75        45.31952
639.18        45.08327
639.61        44.87808
640.04        44.66711
640.47        44.39235
640.90        44.04786
641.33        43.65591
641.76        43.27563
642.18        43.00846
642.61        42.87276
643.04        42.84217
643.47         42.8721
643.90        42.88583
644.33        42.85985
644.76        42.82033
645.18         42.7832
645.61        42.77547
646.04        42.80972
646.47        42.87203
646.90        42.97617
647.33         43.1554
647.75        43.41456
648.18        43.72042
648.61        44.03896
649.04        44.37316
649.47        44.68505
649.89        44.84229
650.32        44.92995
650.75        45.24082
651.18        45.80094
651.61        46.37713
652.03        46.91068
652.46        47.55141
652.89        48.22483
653.32        48.42112
653.74        48.30593
654.17         48.8096
654.60        49.40316
655.03        50.29189
655.46        49.49698
655.88         51.5751
656.31         52.9291
656.74         62.3379
657.16        59.28421
657.59        54.80766
658.02        54.10547
658.45        53.10018
658.87        53.95255
659.30        54.25552
659.73        54.47483
660.15        55.26632
660.58        55.01432
661.01        54.85358
661.44        54.50319
661.86        54.64576
662.29        55.23698
662.72          55.933
663.14        56.52074
663.57        56.48479
664.00         56.0127
664.42        55.96253
664.85        56.40592
665.27        56.80378
665.70        57.01542
666.13        57.24227
666.55        57.44843
666.98        57.57706
667.41        57.64762
667.83        57.69601
668.26        57.73415
668.69        57.77258
669.11        57.82301
669.54        57.89905
669.96        58.00697
670.39         58.1353
670.82        58.30124
671.24        58.51423
671.67        58.75863
672.09        59.04544
672.52        59.30284
672.94        59.35494
673.37        59.22396
673.80        59.05532
674.22        58.93621
674.65        58.89378
675.07        58.96841
675.50        59.17458
675.92        59.43484
676.35        59.55807
676.77        59.51337
677.20        59.36606
677.62        59.18927
678.05        59.10548
678.47        59.14719
678.90        59.27909
679.32        59.46568
679.75        59.65872
680.17        59.82885
680.60        59.98127
681.02        60.11913
681.45        60.21283
681.87        60.26933
682.30        60.34007
682.72        60.40271
683.15        60.30883
683.57        60.15868
684.00        60.14795
684.42        60.36196
684.85         60.7699
685.27        60.64883
685.70        60.79673
686.12        60.96702
686.54        61.06617
686.97        61.08018
687.39        61.01849
687.82        60.92284
688.24        60.95805
688.66        61.09626
689.09        61.11161
689.51        61.02482
689.94        61.02484
690.36        61.13741
690.78        61.22331
691.21        61.24361
691.63        61.32715
692.06        61.49255
692.48        61.28088
692.90        61.24199
693.33        61.59141
693.75        61.43198
694.17        61.64478
694.60         61.8319
695.02        61.70489
695.44        61.28305
695.87        61.10725
696.29        61.21315
696.71        60.97955
697.14         60.6011
697.56        61.05109
697.98         62.0966
698.41        62.61319
698.83         62.3969
699.25        62.11024
699.68        61.87815
700.10        61.73272
700.52        61.74414
700.94        61.89574
701.37        62.09093
701.79        62.23092
702.21        62.25379
702.64        62.19992
703.06        62.12853
703.48        62.13192
703.90        62.22699
704.33        62.40384
704.75        62.60397
705.17        62.61509
705.59        62.39154
706.01        62.35636
706.44        61.98267
706.86        61.98218
707.28        62.18811
707.70        62.58036
708.12        63.01443
708.55        63.18921
708.97        63.09701
709.39        62.99692
709.81         62.9357
710.23        62.82225
710.66        62.69238
711.08        62.63713
711.50        62.65845
711.92        62.72152
712.34        62.82182
712.76        62.97656
713.19        63.14012
713.61        63.28436
714.03        63.36849
714.45        63.39444
714.87        63.39156
715.29        63.42978
715.71        63.52499
716.13        63.62844
716.56        63.67954
716.98        63.82755
717.40        63.76172
717.82        63.72041
718.24        63.66386
718.66        63.66644
719.08        63.73914
719.50        63.86116
719.92        63.98617
720.34        64.03111
720.76        63.98008
721.19        63.85985
721.61        63.72589
722.03        63.63614
722.45         63.6316
722.87        63.67933
723.29         63.7695
723.71        63.87554
724.13        63.98713
724.55        64.11575
724.97        64.25202
725.39         64.3792
725.81        64.48991
726.23        64.57426
726.65        64.65129
727.07        64.75847
727.49        64.90007
727.91        65.06673
728.33        65.21206
728.75        65.25743
729.17         65.1902
729.59        65.04016
730.01        64.87545
730.43        64.80325
730.85        64.84901
731.27        64.97762
731.69        65.13612
732.10        65.24792
732.52        65.27674
732.94         65.2468
733.36        65.17415
733.78        65.09544
734.20        65.05378
734.62        65.00296
735.04        64.92339
735.46        64.97177
735.88        65.17853
736.30        64.77611
736.72        65.07643
737.13        65.19207
737.55        65.41617
737.97        65.71979
738.39         65.9824
738.81        65.74902
739.23         65.1592
739.65        65.08689
740.06        65.47278
740.48        65.61804
740.90        65.43645
741.32        65.20251
741.74        65.00604
742.16        64.95745
742.57        65.09357
742.99        65.27286
743.41        65.44808
743.83        65.59055
744.25         65.6694
744.67        65.67725
745.08        65.62401
745.50        65.50253
745.92        65.33975
746.34        65.14093
746.75        64.94466
747.17        64.81235
747.59        64.76524
748.01        64.80039
748.42        64.90149
748.84         65.0331
749.26        65.18713
749.68        65.26315
750.09        65.28316
750.51        65.49612
750.93        65.79746
751.35        65.70818
751.76        65.28904
752.18        65.04443
752.60        64.99805
753.01        64.98991
753.43        64.89612
753.85        64.90403
754.27        64.93793
754.68        65.31236
755.10        66.02937
755.52         65.3483
755.93        66.02882
756.35        65.86684
756.77        65.77284
757.18        65.78776
757.60         65.9639
758.02        66.23528
758.43        66.47111
758.85        66.42278
759.26        66.53284
759.68        66.00583
760.10        65.76616
760.51        65.45637
760.93        65.47102
761.34        64.92685
761.76        65.51028
762.18        65.53025
762.59         65.3727
763.01        65.21064
763.42        65.10199
763.84        65.69411
764.26        66.11037
764.67         66.1569
765.09          65.789
765.50        66.06686
765.92        66.83699
766.33        67.04353
766.75        66.58636
767.16        65.96294
767.58        65.34132
768.00        65.05421
768.41        65.18414
768.83        65.26845
769.24         65.2875
769.66        65.78627
770.07        66.54296
770.49        66.59317
770.90        66.08199
771.32        66.18215
771.73        66.81149
772.15        66.92059
772.56        66.50214
772.97        66.08759
773.39         65.7666
773.80        65.63881
774.22        65.63802
774.63        65.36888
775.05        64.93394
775.46        64.90585
775.88        65.29606
776.29        65.83115
776.70        66.29636
777.12        66.49007
777.53        66.35365
777.95        65.91914
778.36        65.40178
778.77        65.17995
779.19         65.3474
779.60        65.83565
780.02        66.39705
780.43        66.78428
780.84        66.91279
781.26         66.5324
781.67        65.94702
782.09        66.43929
782.50        67.68956
782.91        67.73185
783.33        66.65275
783.74        66.29353
784.15        66.72569
784.57        66.85773
784.98        66.61101
785.39        66.44445
785.81        66.31532
786.22        65.91663
786.63        65.40331
787.04        65.22204
787.46        65.41074
787.87        65.76272
788.28        66.16625
788.70        66.47834
789.11        66.62891
789.52        66.64204
789.93        66.68163
790.35         66.5338
790.76         66.3259
791.17        66.34685
791.58        66.55031
792.00        66.50259
792.41         66.1909
792.82         66.0423
793.23        66.06839
793.65        65.79261
794.06        65.46804
794.47        65.93507
794.88        66.89857
795.29        67.72259
795.71        67.59428
796.12        66.83704
796.53        67.19849
796.94        66.56101
797.35        65.72371
797.76        65.59696
798.18        66.11327
798.59        66.31985
799.00        66.11913
799.41        66.09081
799.82        66.24587
800.23        66.33904
800.64        66.35815
801.06        66.31853
801.47        66.30011
801.88        66.38535
802.29        66.57786
802.70         66.8239
803.11        67.01788
803.52        66.99554
803.93        66.74342
804.34        66.34123
804.75        65.89394
805.17        65.64972
805.58        65.70769
805.99        65.71582
806.40        65.71284
806.81        66.46673
807.22        67.61507
807.63        67.52096
808.04        66.42078
808.45        66.15074
808.86        66.84803
809.27        67.48183
809.68        67.84004
810.09        68.05022
810.50        68.02647
810.91         67.7397
811.32         67.3166
811.73        66.92035
812.14        66.60786
812.55        66.46963
812.96        66.45206
813.37         66.1618
813.78        65.71827
814.19        65.81358
814.60        66.33326
815.01        66.55506
815.42        66.42652
815.83        66.29956
816.24        66.26878
816.65        66.33019
817.05        66.52016
817.46         66.8057
817.87        67.06644
818.28        67.07512
818.69        66.80068
819.10        66.30303
819.51        65.79797
819.92        65.68851
820.33        66.07266
820.74         66.7758
821.14        67.55272
821.55        68.06723
821.96        68.17742
822.37        67.81345
822.78        67.16679
823.19        66.73575
823.60         66.6409
824.00        66.69662
824.41         66.8004
824.82         66.9228
825.23        67.01619
825.64        67.11048
826.04        67.20943
826.45        67.26272
826.86         67.2756
827.27        67.24549
827.68        67.17923
828.08        67.12521
828.49        67.05023
828.90        66.96873
829.31        66.90453
829.72        66.89474
830.12        66.96165
830.53         67.0665
830.94         67.1641
831.35        67.15385
831.75        67.04198
832.16        66.81829
832.57        66.58691
832.97        66.50444
833.38        66.59248
833.79        66.79758
834.20        67.03681
834.60        67.17319
835.01        67.18555
835.42         67.1244
835.82        67.01458
836.23        66.84969
836.64        66.66647
837.04        66.45104
837.45        66.27962
837.86        66.31934
838.26        66.60411
838.67        67.07298
839.08        67.54454
839.48         67.6667
839.89        67.36362
840.29        66.76991
840.70        66.18049
841.11          65.967
841.51        66.22787
841.92        66.79862
842.33        67.54668
842.73        68.23892
843.14        68.67784
843.54        68.97553
843.95        69.06197
844.35         68.9069
844.76         68.5444
845.17        68.00653
845.57        67.43733
845.98         67.0842
846.38        67.00699
846.79        67.14854
847.19        67.47049
847.60         67.7638
848.00        67.99976
848.41        68.16288
848.81        68.30099
849.22        68.40903
849.62        68.52748
850.03        68.59995
850.43        68.63639
850.84        68.58143
851.24        68.48249
851.65        68.32105
852.05         68.1965
852.46         68.1561
852.86        68.22042
853.27        68.37945
853.67        68.54688
854.07        68.71758
854.48        68.84981
854.88        68.97737
855.29        69.02534
855.69        69.00504
856.10        68.84333
856.50         68.6167
856.90        68.37225
857.31        68.23042
857.71        68.29903
858.12        68.49023
858.52        68.75304
858.92        68.89188
859.33         68.8455
859.73        68.68822
860.13        68.49818
860.54        68.43469
860.94        68.59502
861.34        68.89365
861.75         69.1648
862.15        69.24274
862.55        69.04758
862.96        68.66698
863.36        68.24393
863.76        67.99323
864.17        67.96922
864.57        68.11499
864.97        68.35564
865.38        68.55704
865.78        68.71754
866.18        68.81092
866.58        68.78078
866.99        68.54638
867.39         68.1451
867.79        67.57956
868.19        66.88203
868.60        66.08685
869.00        65.19566
869.40        64.27303
869.80        63.49744
870.21        63.13954
870.61        63.30939
871.01        63.88477
871.41        64.60047
871.81        65.02486
872.22        65.07412
872.62        64.87099
873.02        64.53098
873.42        64.50872
873.82        64.66294
874.22        64.27065
874.63        63.64444
875.03        63.51952
875.43        64.00058
875.83        66.03732
876.23        66.02067
876.63         65.4072
877.03        63.56076
877.44        60.66984
877.84        136.6243
878.24        60.66181
878.64        62.29461
879.04        67.02868
879.44        63.15601
879.84        61.14656
880.24        66.58262
880.64        67.14523
881.04        64.05811
881.44        62.03421
881.84        61.76163
882.24        62.50014
882.65        63.70477
883.05        64.19291
883.45        63.59991
883.85        62.69323
884.25        61.93855
884.65        61.68129
885.05        62.03906
885.45        62.84278
885.85        63.76553
886.25        64.29218
886.65        64.26749
887.05        63.86086
887.45        63.31995
887.85        63.01526
888.25        63.04953
888.65        63.29755
889.04        63.65342
889.44        63.87289
889.84        63.90165
890.24        63.81921
890.64        63.66465
891.04        63.48799
891.44        63.29412
891.84        63.02193
892.24        62.70159
892.64        62.39914
893.04        62.14862
893.44         62.0039
893.83        61.82671
894.23        61.42544
894.63        60.78344
895.03        59.94675
895.43        59.23639
895.83        59.18826
896.23        59.88332
896.63        61.14667
897.02        62.47982
897.42        62.98516
897.82        62.46416
898.22        61.22853
898.62        59.78777
899.01        58.92245
899.41        58.86331
899.81        59.32757
900.21        60.11041
900.61        60.91059
901.00        61.57938
901.40        62.18177
901.80        62.63356
902.20        62.76517
902.59        62.56358
902.99        62.06245
903.39        61.38136
903.79        60.75039
904.18        60.27154
904.58        59.95845
904.98        59.87833
905.38        60.11855
905.77        60.65092
906.17        61.43373
906.57        62.25083
906.96        62.78699
907.36        62.90303
907.76        62.64248
908.15        62.20265
908.55        61.86647
908.95        61.74191
909.34        61.81079
909.74        61.84148
910.14        61.41537
910.53        60.48383
910.93        59.26735
911.33        58.28465
911.72        58.34599
912.12        59.51066
912.52        61.40381
912.91        63.37975
913.31        64.36758
913.70        64.16074
914.10        63.05917
914.49        61.40096
914.89        60.01421
915.29        59.26483
915.68        58.95383
916.08        59.05529
916.47        59.51085
916.87        60.18624
917.26        61.10035
917.66        61.99485
918.05        62.45814
918.45        62.36723
918.84        61.86131
919.24          61.062
919.64        60.21233
920.03        59.45667
920.42        58.77396
920.82        58.39304
921.21        58.61974
921.61        59.40783
922.00        60.67924
922.40        61.96736
922.79         62.7402
923.19        62.85615
923.58        62.19102
923.98        60.87912
924.37        60.10022
924.77        60.36693
925.16        57.22059
925.55        58.52747
925.95        58.18523
926.34        58.55213
926.74        59.30708
927.13         60.3025
927.52        61.07179
927.92        61.45282
928.31        61.64273
928.70        61.60373
929.10        61.34457
929.49        60.91588
929.89        60.29659
930.28        59.77506
930.67        59.82183
931.07        60.47514
931.46        61.66324
931.85        62.87997
932.24        63.35878
932.64        62.92527
933.03        61.66354
933.42        60.08035
933.82        59.22451
934.21        59.37457
934.60        60.24557
934.99        60.99447
935.39        60.81986
935.78        59.62895
936.17        56.96699
936.56        53.29585
936.96        54.50868
937.35        53.99952
937.74        56.79388
938.13        59.61452
938.53        61.38317
938.92        61.95538
939.31        61.72637
939.70        61.07742
940.09        60.54308
940.49        60.39547
940.88        60.47749
941.27        60.70742
941.66        61.01818
942.05        61.34979
942.44         61.7131
942.84        62.14073
943.23         62.6589
943.62        63.21545
944.01        63.81084
944.40        64.13509
944.79        63.71068
945.18        62.47561
945.57        60.53873
945.97        58.58558
946.36        57.79519
946.75        58.54138
947.14        60.40343
947.53        62.48939
947.92        63.57729
948.31        63.42634
948.70        62.38978
949.09        60.99113
949.48        60.15089
949.87        60.15562
950.26        60.69843
950.65        61.39454
951.04        61.62517
951.43        61.21503
951.82        60.42566
952.21        59.51868
952.60        58.86973
952.99        58.60113
953.38        58.56135
953.77        58.67358
954.16         58.8365
954.55        58.99125
954.94        59.19257
955.33        59.36758
955.72        59.37382
956.11        59.20404
956.50        58.89085
956.89        58.58256
957.28        58.58201
957.66        58.96509
958.05        59.51225
958.44        60.09416
958.83        60.54307
959.22        60.79472
959.61        60.91909
960.00        60.75665
960.39        60.04068
960.78        58.80692
961.16        57.18129
961.55        55.65077
961.94        54.82999
962.33        54.84448
962.72        55.52287
963.11        56.51184
963.49        57.18293
963.88        57.24647
964.27        56.90738
964.66        56.34763
965.04         55.8857
965.43        55.64975
965.82         55.5563
966.21        55.59207
966.60        55.75143
966.98        56.02548
967.37        56.39474
967.76        56.89302
968.15        57.53524
968.53        58.28744
968.92        59.01857
969.31        59.55627
969.69        59.63839
970.08          59.158
970.47        58.23019
970.86        57.01934
971.24        55.76389
971.63        54.64943
972.02        53.69433
972.40        52.92067
972.79         52.3712
973.17        52.07625
973.56        51.96894
973.95        52.17767
974.33        52.87978
974.72        53.91901
975.11        55.16945
975.49        56.19885
975.88        56.36625
976.26        55.58349
976.65        54.09707
977.04        52.31708
977.42        50.97967
977.81        50.36943
978.19        50.26477
978.58        50.61332
978.96        51.27693
979.35        52.09552
979.74        53.25221
980.12        54.41071
980.51         54.7174
980.89        54.15833
981.28        52.87025
981.66        51.68626
982.05          51.807
982.43        53.36158
982.82        55.93034
983.20        58.71458
983.59        59.95781
983.97        59.22337
984.35        56.98534
984.74        54.13234
985.12        51.94624
985.51        50.85122
985.89        50.44256
986.28         50.5569
986.66        50.84912
987.04         51.0802
987.43        51.46394
987.81        51.67343
988.20         51.2037
988.58        49.90713
988.96        47.60111
989.35        44.84965
989.73        43.42089
990.12        44.20675
990.50        46.69044
990.88        49.33722
991.27        50.35859
991.65        49.73319
992.03        47.92934
992.42        45.93369
992.80         45.5919
993.18        47.45251
993.56        50.58459
993.95        53.89527
994.33        56.35951
994.71        57.53576
995.10        57.84496
995.48        57.46115
995.86        56.51997
996.24        55.14177
996.63        53.19353
997.01        50.94307
997.39        49.43225
997.77        49.14034
998.15         49.8721
998.54        50.91367
998.92        51.36016
999.30        50.98644
999.68        49.91315
1000.06        48.18015
1000.45        46.54227
1000.83        45.76222
1001.21         45.5718
1001.59        45.71061
1001.97        45.91032
1002.35        46.04338
1002.73           46.19
1003.12        46.16675
1003.50        45.62785
1003.88         44.4971
1004.26        42.99735
1004.64         41.4108
1005.02         40.0467
1005.40        39.00612
1005.78        38.21561
1006.16        38.00406
1006.54        38.91351
1006.92        40.64907
1007.30         42.5666
1007.69        43.96985
1008.07        44.40989
1008.45        43.66975
1008.83        41.80664
1009.21        38.06067
1009.59          31.831
1009.97        24.13155
1010.35        16.26823
1010.73        11.77646
1011.11        13.58387
1011.49        20.74658
1011.86        31.80418
1012.24        41.94176
1012.62        46.29429
1013.00        44.55564
1013.38          38.511
1013.76        30.96989
1014.14        26.88369
1014.52        27.80095
1014.90        32.31407
1015.28        38.14148
1015.66        41.48435
1016.04        41.03435
1016.41        37.68011
1016.79        32.92348
1017.17        30.31531
1017.55        31.25751
1017.93        34.06691
1018.31         36.9109
1018.69        38.20759
1019.06        37.74314
1019.44        35.80382
1019.82        32.84592
1020.20        29.96251
1020.58         27.8694
1020.95        26.54959
1021.33        24.90004
1021.71         20.1562
1022.09        10.13013
1022.46       -10.15494
1022.84       -41.54689
1023.22       -53.88005
1023.60       -28.08493
1023.97         3.29901
1024.35        21.52019
1024.73        27.70637
