SpectraSmart Spectrum 2.9.0.0
--------- Device Information -----------
Spectrum Name :  反射率_0
Saving Time :  2024/04/20 01:00:43
Spectro-Module Model Name : SE2030-DUVN
Spectro-Module Serial Number : OS361AC55029948
Wavelength Start : 200
Wavelength End : 1025
Wavelength Unit : Wavelength(nm)
Spectrum Unit : Reflectance(%)
-----------Spectrum Setting ------------
Integration Time : 30ms
Average : 10
Boxcar : 0
Background removal :  enabled
linearity correction :  enabled
SC :  disabled
Intensity correction :  disabled
DWT denoise :  enabled
savitzky-golay :  disabled
FFT :  disabled
Running average :  disabled
Kalman :  disabled
High pass :  disabled
---------------BEGIN--------------------
Wavelength(nm)             Reflectance(%)
200.29               0
200.75        58.84989
201.21         58.4212
201.67        60.32032
202.13        65.11057
202.58        72.83054
203.04         83.9762
203.50        95.00224
203.96        97.09047
204.42        90.00291
204.88        79.36364
205.34        70.07372
205.80        64.32901
206.26        61.15026
206.72        59.18876
207.18        58.44057
207.64        59.39198
208.10        62.05599
208.55        66.28478
209.01        69.58978
209.47        70.92253
209.93         70.5579
210.39        68.78461
210.85        66.47596
211.31        64.61212
211.77        63.19582
212.23        61.95225
212.69        60.46573
213.14        58.51058
213.60        56.49154
214.06         55.5383
214.52        55.65641
214.98        56.80167
215.44        58.80199
215.90        61.31894
216.36        64.42915
216.81        67.72527
217.27        70.33618
217.73        72.32937
218.19        72.41769
218.65        68.79129
219.11        61.25026
219.57        49.81096
220.02        36.94476
220.48        29.67403
220.94        30.59354
221.40        38.66506
221.86        49.40228
222.32        55.57378
222.77        55.38733
223.23        51.12677
223.69        46.17982
224.15        45.37558
224.61        48.75339
225.06        53.63707
225.52        57.74786
225.98        59.35652
226.44        58.48469
226.90        56.03661
227.36        52.85934
227.81        50.36031
228.27        49.40778
228.73        49.41452
229.19        49.89455
229.65        50.26892
230.10         50.3776
230.56        50.45555
231.02        50.61975
231.48        51.01785
231.93        51.59519
232.39        52.24973
232.85        52.76591
233.31        52.86839
233.77        52.51968
234.22         51.8439
234.68        51.04532
235.14        50.37864
235.60        50.00229
236.05        49.90064
236.51        50.13527
236.97         50.8058
237.43        52.00991
237.88         54.0246
238.34        56.72538
238.80         59.6296
239.26        61.95813
239.71        63.34351
240.17        63.66288
240.63        63.65499
241.08        63.69979
241.54        63.64592
242.00        63.16789
242.46        61.45227
242.91        57.99818
243.37        52.07539
243.83        44.44867
244.28        40.96606
244.74        46.84194
245.20        60.35683
245.66        72.94103
246.11        77.91682
246.57        74.89902
247.03         64.2751
247.48        48.20681
247.94        41.50301
248.40        47.63911
248.85        56.77303
249.31        63.78334
249.77        67.41055
250.22        68.56075
250.68        68.50387
251.14        67.58827
251.59        66.22305
252.05        65.02746
252.51        63.98196
252.96        63.12145
253.42        62.85956
253.88        63.31271
254.33        64.28326
254.79        66.52745
255.25         70.4931
255.70         75.5936
256.16        80.99921
256.62        85.27115
257.07        86.81593
257.53        85.95463
257.99        83.45126
258.44        79.97031
258.90        77.27413
259.35        75.33755
259.81        74.40018
260.27        73.77769
260.72        72.92026
261.18        72.06063
261.63        70.84908
262.09         69.9708
262.55        69.75101
263.00        70.00446
263.46        70.67026
263.91        70.86376
264.37        69.94281
264.83        67.92775
265.28        65.14555
265.74        62.62613
266.19        61.27483
266.65        61.28383
267.11        62.10736
267.56        63.05912
268.02        63.18335
268.47         62.2678
268.93        60.65234
269.38        58.68681
269.84        57.16397
270.30        56.29283
270.75        55.83772
271.21        55.53053
271.66         54.9472
272.12        53.97728
272.57        52.76849
273.03        51.53348
273.48        50.48124
273.94        49.73894
274.39         49.1839
274.85         48.7207
275.31        48.15229
275.76        47.40318
276.22        46.55304
276.67        45.69497
277.13        45.10517
277.58        44.74155
278.04        44.56885
278.49        44.28996
278.95        43.59465
279.40        42.41842
279.86        41.00058
280.31        39.58834
280.77        38.70096
281.22        38.33279
281.68        38.34987
282.13        38.46486
282.59        38.31582
283.04        37.80666
283.50        37.11947
283.95        36.37265
284.41        35.79632
284.86        35.41534
285.32         35.1697
285.77        35.01852
286.22         34.9869
286.68         35.0473
287.13        35.16633
287.59        35.25438
288.04        35.12672
288.50        34.79009
288.95        34.26241
289.41         33.7047
289.86        33.28739
290.32        33.10954
290.77        33.10829
291.22          33.221
291.68        33.31432
292.13        33.35703
292.59        33.41468
293.04        33.56319
293.50        33.94068
293.95        34.55174
294.40        35.33049
294.86        36.17236
295.31        36.92915
295.77         37.5601
296.22        38.10387
296.68        38.60923
297.13        39.13738
297.58        39.71712
298.04        40.32843
298.49        40.95742
298.95        41.63114
299.40        42.32632
299.85        43.03891
300.31        43.74028
300.76        44.36756
301.21        44.91209
301.67        45.42143
302.12        45.87369
302.58        46.31874
303.03        46.74173
303.48        47.15593
303.94        47.62558
304.39        48.19737
304.84        48.87843
305.30        49.63243
305.75        50.33722
306.20        50.84207
306.66        51.13676
307.11        51.24561
307.57        51.27331
308.02        51.28868
308.47        51.35109
308.93        51.43494
309.38        51.53181
309.83        51.69242
310.29        51.90704
310.74         52.1625
311.19        52.36517
311.65         52.3576
312.10        52.11108
312.55        51.67982
313.00        51.20889
313.46         50.9218
313.91        50.85289
314.36        50.95551
314.82         51.1039
315.27        51.11991
315.72        50.94196
316.18        50.64265
316.63        50.30398
317.08        50.06849
317.53        49.96626
317.99        49.93676
318.44        49.91688
318.89        49.79402
319.35         49.5396
319.80        49.19928
320.25        48.82244
320.70        48.48814
321.16        48.21441
321.61        47.97873
322.06        47.75723
322.51        47.51875
322.97        47.24084
323.42        46.94732
323.87        46.62417
324.32        46.25235
324.78        45.83121
325.23        45.39286
325.68        44.95709
326.13        44.56944
326.59        44.24656
327.04        43.99849
327.49         43.8335
327.94        43.77073
328.39        43.79457
328.85        43.86481
329.30        43.95335
329.75        43.93999
330.20        43.79008
330.66        43.51213
331.11        43.16993
331.56        42.80817
332.01        42.45298
332.46         42.0923
332.92        41.74911
333.37         41.4835
333.82        41.30662
334.27        41.23578
334.72        41.21685
335.17        41.14733
335.63        40.98969
336.08        40.77206
336.53        40.58471
336.98        40.60492
337.43        40.85546
337.88        41.27489
338.34         41.6572
338.79        41.71948
339.24        41.38258
339.69        40.73789
340.14        40.02209
340.59        39.63582
341.05        39.67402
341.50        40.02094
341.95        40.46288
342.40        40.66626
342.85        40.54778
343.30        40.22801
343.75        39.82721
344.20        39.53821
344.66        39.41836
345.11        39.36778
345.56        39.37114
346.01        39.40963
346.46        39.45182
346.91        39.52292
347.36        39.51879
347.81        39.26374
348.26        38.75804
348.72        38.09077
349.17        37.42979
349.62        37.13091
350.07        37.26968
350.52           37.71
350.97        38.27647
351.42        38.70672
351.87        38.90524
352.32        38.93717
352.77        38.79333
353.22        38.46452
353.67         37.9903
354.13        37.40396
354.58        36.79536
355.03        36.35578
355.48        36.13577
355.93        36.09961
356.38        36.18731
356.83        36.28688
357.28        36.34615
357.73        36.37714
358.18        36.35971
358.63         36.2677
359.08        36.09811
359.53         35.8535
359.98         35.5496
360.43        35.21683
360.88        34.87439
361.33        34.52713
361.78        34.20931
362.23        33.97264
362.68         33.8217
363.13         33.7331
363.58        33.65722
364.03        33.51399
364.48        33.27506
364.93        32.95659
365.38        32.56846
365.83        32.13815
366.28        31.69197
366.73        31.23524
367.18        30.80212
367.63         30.4413
368.08        30.16301
368.53        29.95943
368.98        29.80208
369.43        29.63743
369.88        29.44839
370.33        29.24838
370.78        29.04146
371.23         28.8406
371.68        28.65383
372.13        28.46961
372.58        28.30863
373.03        28.21034
373.48        28.17234
373.93        28.17416
374.38        28.16419
374.83        28.06132
375.28        27.84785
375.72        27.54222
376.17        27.20164
376.62        26.88003
377.07        26.60926
377.52        26.37941
377.97        26.20349
378.42        26.09917
378.87         26.0568
379.32        26.06272
379.77        26.08025
380.22        26.05008
380.67         25.9559
381.11        25.81688
381.56        25.62757
382.01        25.40722
382.46         25.1703
382.91        24.90915
383.36        24.66744
383.81        24.50822
384.26        24.43785
384.71         24.4494
385.15         24.4579
385.60        24.33715
386.05        24.06776
386.50          23.691
386.95        23.32907
387.40        23.17586
387.85        23.26365
388.29         23.5159
388.74        23.79877
389.19        23.90922
389.64        23.80324
390.09        23.53205
390.54        23.20933
390.98        23.00906
391.43        22.99327
391.88        23.09508
392.33        23.19358
392.78        23.11651
393.23        22.85104
393.67         22.4577
394.12        22.10437
394.57        21.94427
395.02         22.0048
395.47         22.2282
395.91        22.50628
396.36        22.62398
396.81        22.53009
397.26        22.28409
397.71        22.00224
398.15        21.84061
398.60        21.85746
399.05        21.98306
399.50         22.1174
399.95        22.11925
400.39        21.95975
400.84        21.68142
401.29         21.3836
401.74        21.24515
402.18        21.31945
402.63        21.54004
403.08        21.77975
403.53         21.8363
403.97        21.66718
404.42        21.34997
404.87        21.01015
405.32        20.85254
405.76        20.92416
406.21        21.15454
406.66        21.43191
407.11        21.58413
407.55        21.56583
408.00        21.43287
408.45        21.25411
408.90        21.09309
409.34        21.00853
409.79        21.07778
410.24        21.21717
410.68        21.21211
411.13        21.04705
411.58         20.8277
412.03        20.62865
412.47        20.54595
412.92        20.60474
413.37        20.76506
413.81        20.96826
414.26        21.14127
414.71        21.24934
415.15        21.31869
415.60        21.32797
416.05        21.27637
416.49        21.17004
416.94        21.01469
417.39        20.84455
417.83        20.71742
418.28        20.65692
418.73        20.64713
419.17        20.66863
419.62        20.67672
420.07        20.66108
420.51         20.6318
420.96        20.59897
421.41        20.55677
421.85         20.5013
422.30        20.44753
422.74        20.40105
423.19        20.40361
423.64        20.45157
424.08        20.54492
424.53        20.63866
424.98        20.68757
425.42        20.68204
425.87        20.63738
426.31        20.57361
426.76        20.53079
427.21        20.50839
427.65        20.48544
428.10        20.47987
428.54         20.4938
428.99        20.53163
429.44        20.68633
429.88        20.85363
430.33        20.73162
430.77        20.39282
431.22        20.24018
431.66        20.32078
432.11        20.47104
432.56        20.65461
433.00        20.97154
433.45        21.21624
433.89        21.09479
434.34        20.75485
434.78        20.40438
435.23        20.03586
435.67        21.00335
436.12        20.36956
436.57        20.32045
437.01         20.0699
437.46        19.99537
437.90        20.11138
438.35        20.24278
438.79        20.33799
439.24        20.40598
439.68        20.43228
440.13        20.24828
440.57        19.98054
441.02        20.15847
441.46         20.5964
441.91        20.65658
442.35        19.85891
442.80        19.59109
443.24        19.65564
443.69        19.62069
444.13        19.46795
444.58        19.38715
445.02        19.39025
445.47        19.47586
445.91        19.59795
446.36        19.63627
446.80        19.56651
447.24         19.4471
447.69        19.32352
448.13        19.22543
448.58        19.17535
449.02        19.15967
449.47        19.15652
449.91         19.1229
450.36        19.05708
450.80        18.97289
451.25        18.90412
451.69        18.88113
452.13        18.91547
452.58        18.98511
453.02        19.06959
453.47         19.1425
453.91         19.1928
454.36        19.22382
454.80        19.22776
455.24        19.19109
455.69        19.12378
456.13        19.01407
456.58        18.90173
457.02        18.83507
457.46        18.82156
457.91        18.80612
458.35        18.78138
458.79        18.78372
459.24        18.80374
459.68        18.83468
460.13        18.91458
460.57        18.92229
461.01        18.83426
461.46        19.17361
461.90        19.20403
462.34        18.96448
462.79        19.09298
463.23        18.94107
463.68        18.81487
464.12        18.71364
464.56        18.79805
465.01        18.93074
465.45        19.05403
465.89         19.1024
466.34        19.06852
466.78        18.91093
467.22        18.71128
467.67        18.73456
468.11        18.94804
468.55        18.97092
468.99        18.81106
469.44        18.78868
469.88        18.90978
470.32        18.98432
470.77        18.99337
471.21        19.00396
471.65        19.01485
472.10        19.00646
472.54        18.98548
472.98        19.00376
473.42         19.0637
473.87        19.09771
474.31        19.10271
474.75        19.19005
475.20        19.31801
475.64        19.27809
476.08        19.12196
476.52        19.09831
476.97        19.21933
477.41        19.36855
477.85        19.48985
478.29        19.54998
478.74        19.53633
479.18        19.42548
479.62        19.30213
480.06        19.30321
480.50        19.42696
480.95        19.54679
481.39        19.61066
481.83        19.62794
482.27        19.59175
482.72        19.50374
483.16        19.41694
483.60        19.40276
484.04        19.46468
484.48        19.67415
484.93        20.05256
485.37        20.11591
485.81        20.07837
486.25        20.65018
486.69        21.60226
487.14        20.80976
487.58        20.15452
488.02        21.04396
488.46        20.70351
488.90        20.95576
489.34        20.68952
489.79        20.73362
490.23        21.02996
490.67        21.19847
491.11        21.23288
491.55        21.19131
491.99        21.11102
492.43        21.08094
492.88        21.12392
493.32          21.167
493.76        21.22897
494.20        21.36764
494.64        21.58192
495.08        21.88052
495.52        22.20455
495.96        22.39414
496.41        22.47252
496.85        22.60758
497.29        22.80297
497.73        23.00897
498.17        23.19075
498.61        23.21864
499.05        23.14195
499.49        23.22223
499.93        23.48585
500.37        23.73012
500.82        23.92836
501.26        24.23407
501.70          24.574
502.14        24.62871
502.58        24.45438
503.02        24.42134
503.46         24.5607
503.90        24.68179
504.34        24.74373
504.78        24.76509
505.22        24.73827
505.66        24.67046
506.10        24.60367
506.54        24.59877
506.98        24.67286
507.42        24.81228
507.86        24.98285
508.30        25.12755
508.74        25.22593
509.18        25.28578
509.62        25.33467
510.06        25.41699
510.50        25.54266
510.94        25.70196
511.38        25.84438
511.82        25.89048
512.26        25.82779
512.70        25.67991
513.14        25.53427
513.58        25.52382
514.02        25.66619
514.46        25.92245
514.90        26.18798
515.34        26.22935
515.78        26.05475
516.22        25.78432
516.66        25.54944
517.10         25.2257
517.54        24.85454
517.98         25.4647
518.42         25.4432
518.86        25.75111
519.30        25.88149
519.74        26.00364
520.18        26.08477
520.62        26.05127
521.06        25.91989
521.50        25.69717
521.93        25.44519
522.37        25.27779
522.81        25.22364
523.25         25.2559
523.69        25.33389
524.13        25.38845
524.57        25.39562
525.01        25.37404
525.45        25.33342
525.89        25.28831
526.32        25.24487
526.76        25.19798
527.20        25.14359
527.64         25.0834
528.08        25.01707
528.52        24.94165
528.96        24.87172
529.40        24.82627
529.83        24.80478
530.27        24.80873
530.71        24.79684
531.15        24.70654
531.59        24.53385
532.03        24.30316
532.46        24.07777
532.90        23.97552
533.34        24.00834
533.78        24.13348
534.22        24.28278
534.66        24.35033
535.09        24.30465
535.53        24.19002
535.97        24.03463
536.41        23.88017
536.85        23.75005
537.28        23.64513
537.72        23.59168
538.16        23.55949
538.60        23.66284
539.04        23.78804
539.47        23.92312
539.91        24.05799
540.35        24.19366
540.79        24.12886
541.22        24.19183
541.66        24.23766
542.10        24.38789
542.54        24.24129
542.97        24.44399
543.41         24.5514
543.85        24.73601
544.29        24.93225
544.72        25.09689
545.16        25.23486
545.60        25.33222
546.04        25.31283
546.47        25.26616
546.91        25.49321
547.35        25.93679
547.79        26.25606
548.22        26.39838
548.66        26.46206
549.10        26.49346
549.53        26.67617
549.97        27.02377
550.41        27.06586
550.84         27.3018
551.28        27.45914
551.72        27.69763
552.15        27.93804
552.59        28.17702
553.03        28.42152
553.46        28.63536
553.90        28.79413
554.34        28.89093
554.77        28.93474
555.21        28.96194
555.65        29.01727
556.08        29.10966
556.52        29.22569
556.96        29.34906
557.39        29.49007
557.83        29.63214
558.27        29.70387
558.70        29.72145
559.14        29.77105
559.57        29.85008
560.01        29.95076
560.45         30.0437
560.88        30.04516
561.32        30.01249
561.75        30.03786
562.19        30.23273
562.63         30.3321
563.06        30.36486
563.50         30.4347
563.93        30.53485
564.37        30.69356
564.80        30.76838
565.24        30.89637
565.68        31.01199
566.11        31.12794
566.55        31.26752
566.98        31.33182
567.42        31.32626
567.85        31.74526
568.29        31.72614
568.72        32.03412
569.16        32.37885
569.60        32.63114
570.03        32.74959
570.47        32.92463
570.90        33.00872
571.34        33.16345
571.77        33.09098
572.21        33.36525
572.64        33.56226
573.08        33.90373
573.51        33.99343
573.95        34.46919
574.38        34.84901
574.82        34.94186
575.25        34.93211
575.69         34.6519
576.12        34.57998
576.56        34.56813
576.99        34.74268
577.42        34.89034
577.86        34.65343
578.29        34.90241
578.73         35.5127
579.16        35.01636
579.60        34.70646
580.03        34.51746
580.47        34.63299
580.90        34.22381
581.33        34.20535
581.77        34.26538
582.20        34.78352
582.64         34.3679
583.07        33.83744
583.51         33.6554
583.94        33.15376
584.37        33.22863
584.81        32.83753
585.24        32.88163
585.68        33.02563
586.11        32.89153
586.54        32.83374
586.98        32.52703
587.41        32.54953
587.85        32.47702
588.28        32.43166
588.71        32.27831
589.15        32.06201
589.58        31.82976
590.01        31.95117
590.45        32.17261
590.88        32.16253
591.31         32.0557
591.75        31.73436
592.18        31.90048
592.61        31.86936
593.05        32.09846
593.48        32.07399
593.91        32.89518
594.35        32.22948
594.78        32.27617
595.21        32.68571
595.65        33.14994
596.08        33.10112
596.51        33.09324
596.94        33.07259
597.38        33.17004
597.81        33.46323
598.24        33.64116
598.68        34.44521
599.11        34.31182
599.54        35.49187
599.97        35.05398
600.41        35.39909
600.84        35.95195
601.27        36.43744
601.70        36.93261
602.14        37.19061
602.57        37.54884
603.00        37.99662
603.43        38.66409
603.87        38.85128
604.30        39.37604
604.73        40.07798
605.16        39.94025
605.60        40.45532
606.03        41.01217
606.46        41.81626
606.89        42.51695
607.32        42.62563
607.76        42.72587
608.19        43.16117
608.62        43.92216
609.05        43.86921
609.48        44.11417
609.92        44.49049
610.35        44.38167
610.78         45.2454
611.21        46.19697
611.64        45.60008
612.07        46.32695
612.50        46.63708
612.94        46.50629
613.37        47.15517
613.80        47.34098
614.23        47.54912
614.66        48.04485
615.09        48.35484
615.52        48.81926
615.96        49.17784
616.39        49.47654
616.82        49.76988
617.25        49.52069
617.68        49.73255
618.11        50.18297
618.54        50.67741
618.97        50.72925
619.40        50.29873
619.84        50.31499
620.27        50.18455
620.70        50.63946
621.13         51.3131
621.56        51.54751
621.99        51.43108
622.42        51.46045
622.85        51.73389
623.28        51.85971
623.71        51.77694
624.14        52.07417
624.57        51.76439
625.00        51.53161
625.43        51.80413
625.86        51.36127
626.29        51.42606
626.72        51.24852
627.15        51.17213
627.58        51.05839
628.01        50.87495
628.44         50.7759
628.87        50.78765
629.30        50.03098
629.73        50.18935
630.16         49.6381
630.59        49.39402
631.02        49.00061
631.45        48.63148
631.88         48.2737
632.31        47.91283
632.74        47.55445
633.17        47.17571
633.60         46.7556
634.03        46.28971
634.46        45.79193
634.89         45.2699
635.32        44.73396
635.75         44.1989
636.18        43.67284
636.61        43.17707
637.04        42.74006
637.47        42.36207
637.89        42.03307
638.32        41.72601
638.75        41.41988
639.18        41.10629
639.61        40.79726
640.04        40.47868
640.47        40.12667
640.90        39.74544
641.33        39.34525
641.76        38.97853
642.18        38.73513
642.61        38.62551
643.04        38.62509
643.47         38.6764
643.90        38.68055
644.33        38.61332
644.76        38.51125
645.18        38.40818
645.61        38.36241
646.04        38.39534
646.47        38.48331
646.90        38.64136
647.33         38.8955
647.75        39.24088
648.18        39.66712
648.61        40.11347
649.04        40.48213
649.47        40.76381
649.89        40.97198
650.32        41.18377
650.75        41.59655
651.18        42.22565
651.61        42.82137
652.03        43.37697
652.46        44.21756
652.89        45.23251
653.32        45.70815
653.74        45.73395
654.17        46.34707
654.60        46.81953
655.03        47.99486
655.46        47.34708
655.88        49.76862
656.31        51.06778
656.74        59.14161
657.16        55.75119
657.59         50.8772
658.02        51.31473
658.45          51.811
658.87        52.81871
659.30        53.35441
659.73        53.51641
660.15        54.51794
660.58        54.22314
661.01        54.31973
661.44        54.27792
661.86        54.50328
662.29        54.98888
662.72        55.69591
663.14        56.45272
663.57        56.60184
664.00        56.28982
664.42        56.31435
664.85        56.73625
665.27        57.12783
665.70        57.45287
666.13        57.45404
666.55        57.88638
666.98        58.08212
667.41        58.27125
667.83         58.4338
668.26        58.56953
668.69        58.68649
669.11        58.79132
669.54        58.90442
669.96        59.03222
670.39        59.18557
670.82        59.36938
671.24        59.52503
671.67        59.66577
672.09        59.92268
672.52        60.23424
672.94        60.34938
673.37        60.28191
673.80        60.20647
674.22        60.19287
674.65        60.22885
675.07        60.34214
675.50        60.55672
675.92         60.8185
676.35        60.95181
676.77        60.92916
677.20        60.92595
677.62        60.78374
678.05        60.76298
678.47        60.82156
678.90         60.9454
679.32        61.11728
679.75        61.28522
680.17        61.43337
680.60        61.65582
681.02        61.91676
681.45        61.95472
681.87        61.83135
682.30        61.94188
682.72         62.2433
683.15        62.24706
683.57        62.00769
684.00        61.92178
684.42        62.14788
684.85        62.31304
685.27        62.45526
685.70         62.7137
686.12        62.98624
686.54        63.17477
686.97         63.2845
687.39        62.94087
687.82        62.71101
688.24        62.88427
688.66        63.31765
689.09        63.15855
689.51        63.29918
689.94        63.29324
690.36        63.44436
690.78        63.47779
691.21        63.40916
691.63        63.50554
692.06        63.80129
692.48         63.7453
692.90          63.916
693.33        64.36295
693.75        64.15244
694.17        64.17615
694.60        64.13405
695.02        64.03375
695.44         63.8634
695.87        63.86292
696.29        63.98026
696.71        63.68342
697.14        63.24653
697.56        63.62576
697.98        64.55728
698.41         65.6197
698.83        65.04915
699.25        64.79528
699.68        64.75041
700.10        64.62917
700.52        64.54536
700.94        64.71949
701.37        64.78098
701.79        64.92668
702.21         65.0088
702.64        65.05709
703.06        65.09036
703.48        65.15375
703.90        65.25936
704.33        65.39021
704.75        65.50425
705.17        65.48151
705.59        65.30604
706.01        65.12381
706.44        64.86472
706.86        64.87543
707.28         65.1245
707.70        65.55443
708.12        66.02125
708.55        66.28143
708.97        66.28835
709.39        66.15159
709.81        65.95555
710.23        65.81706
710.66        65.79142
711.08        65.86016
711.50        65.98015
711.92        66.09051
712.34        66.17286
712.76        66.25508
713.19         66.3254
713.61         66.4161
714.03        66.50481
714.45        66.58083
714.87        66.65366
715.29         66.7458
715.71        66.85888
716.13        66.98525
716.56        67.08858
716.98        67.18569
717.40        67.24389
717.82        67.26552
718.24        67.26183
718.66        67.25214
719.08         67.2431
719.50        67.23203
719.92        67.21037
720.34         67.1616
720.76        67.08654
721.19        66.99253
721.61        66.91425
722.03        66.87051
722.45        66.89011
722.87        66.95527
723.29        67.05389
723.71        67.15491
724.13        67.24981
724.55        67.34507
724.97        67.46117
725.39        67.61623
725.81        67.80389
726.23        68.03355
726.65        68.28149
727.07        68.34463
727.49        68.48499
727.91        68.49709
728.33        68.47215
728.75        68.42019
729.17        68.35989
729.59        68.29414
730.01         68.2439
730.43        68.24655
730.85        68.30785
731.27        68.41644
731.69        68.55325
732.10        68.69452
732.52        68.81442
732.94        68.91367
733.36        68.97687
733.78        68.98715
734.20         68.9605
734.62        68.88923
735.04        68.78104
735.46        68.74834
735.88        68.81845
736.30        68.56715
736.72        68.72736
737.13        68.82517
737.55        68.99392
737.97        69.28114
738.39        69.58558
738.81        69.45699
739.23        69.05937
739.65        69.17439
740.06        69.64639
740.48        69.89865
740.90        69.95056
741.32        68.95905
741.74        69.35958
742.16         69.2026
742.57        69.22931
742.99        69.36631
743.41        69.57817
743.83        69.73444
744.25        69.77578
744.67        69.75011
745.08        69.67677
745.50        69.56184
745.92         69.4372
746.34        69.29436
746.75        69.16269
747.17        69.09383
747.59        69.10526
748.01        69.19939
748.42        69.35071
748.84        69.51279
749.26        69.67694
749.68        69.72514
750.09        69.71569
750.51        69.97767
750.93        70.39525
751.35        70.41995
751.76        70.08124
752.18        69.76699
752.60        69.75462
753.01        69.55166
753.43        69.32442
753.85        69.26403
754.27        69.36264
754.68        70.06081
755.10        70.62138
755.52        70.54295
755.93         70.1491
756.35        70.21872
756.77        70.40551
757.18        70.30099
757.60        70.38126
758.02        70.47163
758.43        70.67121
758.85        70.71308
759.26         71.0978
759.68         70.4404
760.10        70.71407
760.51        70.43055
760.93         70.2765
761.34        70.01824
761.76        70.71784
762.18        70.46753
762.59        69.57897
763.01        69.48278
763.42        70.18114
763.84         70.6504
764.26        70.75665
764.67        70.67205
765.09        70.56498
765.50        70.77829
765.92        71.35849
766.33        71.50719
766.75        71.17719
767.16        70.86246
767.58        70.60896
768.00        70.30578
768.41        70.09303
768.83        70.14378
769.24        70.43427
769.66        70.94278
770.07        71.46217
770.49        71.44509
770.90        71.03112
771.32        71.12891
771.73        71.70137
772.15         71.8763
772.56        71.64417
772.97        71.54715
773.39        71.54353
773.80        71.34222
774.22        70.92808
774.63        70.41905
775.05        69.97934
775.46        69.87809
775.88        70.14449
776.29        70.73423
776.70        71.38534
777.12        71.67917
777.53        71.52159
777.95        71.00622
778.36        70.39162
778.77        70.12241
779.19        70.30999
779.60        70.85896
780.02        71.48276
780.43        71.88816
780.84         71.9807
781.26        71.51038
781.67        70.82003
782.09        71.32581
782.50        72.70335
782.91        72.80588
783.33        71.69485
783.74         71.5316
784.15        71.93079
784.57        72.14653
784.98        71.96732
785.39        71.77078
785.81        71.56767
786.22        71.31303
786.63        71.07678
787.04        70.94476
787.46        70.94099
787.87        71.05254
788.28        71.26566
788.70        71.50732
789.11        71.73608
789.52        72.00407
789.93        72.26561
790.35        72.34986
790.76         72.2654
791.17        72.24072
791.58        72.30309
792.00        72.12966
792.41        71.68519
792.82        71.88885
793.23         71.5038
793.65        71.14914
794.06        70.75983
794.47        71.05067
794.88        71.70851
795.29        73.02908
795.71        72.54448
796.12        72.09165
796.53        72.59634
796.94        72.09467
797.35        71.24811
797.76        70.97243
798.18        71.30864
798.59        71.48801
799.00        71.45161
799.41         71.6938
799.82        72.12949
800.23        72.36765
800.64        72.34988
801.06        72.14277
801.47        71.89162
801.88        71.78011
802.29        71.85435
802.70        72.03321
803.11        72.21629
803.52        72.24703
803.93         72.1034
804.34        71.86519
804.75         71.5955
805.17        71.47625
805.58        71.59083
805.99        71.57283
806.40        71.49094
806.81        72.23585
807.22        73.43427
807.63        73.28767
808.04        72.05878
808.45        71.75355
808.86        72.51948
809.27        73.24274
809.68        73.66628
810.09        73.87753
810.50        73.77926
810.91        73.35506
811.32        72.78782
811.73        72.36086
812.14        72.15901
812.55        72.15471
812.96        72.25145
813.37        72.18749
813.78        71.95385
814.19        71.80647
814.60        71.76957
815.01        71.72237
815.42        71.66975
815.83        71.66193
816.24        71.72889
816.65        71.88577
817.05        72.13335
817.46        72.42944
817.87        72.68934
818.28        72.73722
818.69        72.55772
819.10        72.19605
819.51        71.82279
819.92        71.79256
820.33        72.19129
820.74        72.77405
821.14        73.37089
821.55        73.97756
821.96        74.37608
822.37        73.97978
822.78        73.01335
823.19        72.47441
823.60        72.51302
824.00        72.65435
824.41        72.76696
824.82         72.9279
825.23        73.08319
825.64        73.23299
826.04        73.36948
826.45         73.4264
826.86        73.40659
827.27        73.31132
827.68        73.17912
828.08        73.10978
828.49        73.08074
828.90        73.10921
829.31        73.16608
829.72        73.19361
830.12        73.19141
830.53        73.13651
830.94         73.0774
831.35        73.05795
831.75        73.10686
832.16        73.16962
832.57        73.21595
832.97        73.17282
833.38        73.01124
833.79        72.76268
834.20        72.51093
834.60         72.3752
835.01        72.39754
835.42        72.55103
835.82        72.74875
836.23        72.78744
836.64        72.64404
837.04        72.37283
837.45        72.10261
837.86        72.08768
838.26        72.39184
838.67        72.90025
839.08        73.43613
839.48        73.66293
839.89        73.48502
840.29        73.03388
840.70         72.5358
841.11        72.24734
841.51        72.25699
841.92         72.4332
842.33        72.74738
842.73        73.15909
843.14        73.53049
843.54        73.93211
843.95        74.21247
844.35        74.19815
844.76        73.87965
845.17        73.34018
845.57        72.75611
845.98        72.42724
846.38        72.43108
846.79        72.67835
847.19         73.1448
847.60         73.6388
848.00        74.12154
848.41        74.56219
848.81        74.95033
849.22        75.19079
849.62         75.3106
850.03        75.26707
850.43        75.13433
850.84        74.96316
851.24        74.84077
851.65        74.71059
852.05        74.63205
852.46        74.57478
852.86        74.54237
853.27        74.57289
853.67        74.58719
854.07        74.58924
854.48        74.54808
854.88        74.49149
855.29        74.39769
855.69        74.38483
856.10        74.39279
856.50        74.47749
856.90        74.57549
857.31        74.61242
857.71        74.63837
858.12        74.60392
858.52         74.5674
858.92        74.50726
859.33        74.40842
859.73        74.31546
860.13        74.21982
860.54        74.12204
860.94        74.08654
861.34        74.07687
861.75        74.05962
862.15        74.07607
862.55         74.0895
862.96        74.12218
863.36        74.15784
863.76        74.14262
864.17        74.06316
864.57        73.94271
864.97        73.86365
865.38        73.93924
865.78        74.23088
866.18        74.63499
866.58         74.9761
866.99        74.95521
867.39        74.54345
867.79        73.81657
868.19        72.89178
868.60        71.93143
869.00        70.98818
869.40        70.08434
869.80        69.38666
870.21        69.14883
870.61        69.46349
871.01        70.20919
871.41        71.08743
871.81        71.61211
872.22         71.6767
872.62        71.40958
873.02        70.96107
873.42        70.80453
873.82        70.85776
874.22        70.50535
874.63        69.97416
875.03        69.83134
875.43        70.15709
875.83        71.77913
876.23        71.74201
876.63        71.31595
877.03        69.98918
877.44        67.88919
877.84        129.6197
878.24        68.43635
878.64        69.89567
879.04        73.75253
879.44        70.62862
879.84        68.74817
880.24        72.71194
880.64        72.66189
881.04        69.60324
881.44        67.71757
881.84         67.7051
882.24        68.87065
882.65        70.53522
883.05        71.38622
883.45        70.99713
883.85        70.06976
884.25        69.13669
884.65           68.73
885.05        69.01593
885.45        69.78196
885.85        70.67287
886.25        71.12969
886.65        70.99009
887.05        70.45353
887.45        69.81955
887.85        69.51788
888.25        69.66698
888.65        70.13892
889.04        70.74739
889.44        71.10298
889.84          71.117
890.24        70.88635
890.64        70.59676
891.04        70.52686
891.44        70.70895
891.84        71.01051
892.24         71.2269
892.64        71.02688
893.04        70.37232
893.44        69.47617
893.83        68.49266
894.23         67.6495
894.63         67.0134
895.03        66.51133
895.43         66.2698
895.83        66.50172
896.23        67.19163
896.63        68.25767
897.02        69.34904
897.42        69.81009
897.82        69.50143
898.22        68.62297
898.62        67.53613
899.01        66.80936
899.41        66.63677
899.81        66.83156
900.21        67.28642
900.61        67.83625
901.00        68.38543
901.40        68.96069
901.80        69.48038
902.20        69.78159
902.59        69.83299
902.99        69.65383
903.39        69.30505
903.79        68.91073
904.18        68.53668
904.58        68.21799
904.98        68.04292
905.38        68.14552
905.77        68.52258
906.17        69.12875
906.57        69.78845
906.96        70.24957
907.36         70.3847
907.76        70.22748
908.15        69.91165
908.55        69.61117
908.95        69.41001
909.34        69.31924
909.74        69.16975
910.14        68.67045
910.53        67.80086
910.93         66.7314
911.33        65.91473
911.72        66.05554
912.12        67.19835
912.52        69.02016
912.91        70.89589
913.31        71.78957
913.70        71.50928
914.10        70.31521
914.49        68.61975
914.89        67.36266
915.29        66.91776
915.68        67.04437
916.08        67.52552
916.47        68.02432
916.87        68.38851
917.26         68.7154
917.66        68.99046
918.05        69.21202
918.45         69.3501
918.84        69.41838
919.24        69.27528
919.64        68.73232
920.03        67.81985
920.42         66.6553
920.82        65.68563
921.21        65.53954
921.61        66.25909
922.00        67.67075
922.40        69.17445
922.79        70.01807
923.19        69.98377
923.58        69.09187
923.98        67.60762
924.37        66.76022
924.77        67.06459
925.16        64.71981
925.55        66.14769
925.95        66.18317
926.34        66.71024
926.74        67.50946
927.13        68.44033
927.52        69.08633
927.92        69.32297
928.31         69.3119
928.70          69.104
929.10        68.86832
929.49         68.6848
929.89        68.48343
930.28        68.38003
930.67         68.5564
931.07        68.99316
931.46        69.71018
931.85         70.3819
932.24        70.51767
932.64        70.02016
933.03        68.92159
933.42        67.62793
933.82        66.98846
934.21        67.20519
934.60        68.04454
934.99         68.7786
935.39        68.69506
935.78        67.70226
936.17        65.44415
936.56        62.31073
936.96        63.13211
937.35        62.61212
937.74        64.82041
938.13        67.07894
938.53         68.4726
938.92        68.88786
939.31        68.66193
939.70        68.14153
940.09        67.82085
940.49        67.92084
940.88        68.27158
941.27        68.75316
941.66        69.25204
942.05        69.69923
942.44        70.11679
942.84        70.51491
943.23         70.9034
943.62        71.25256
944.01        71.59041
944.40        71.71769
944.79         71.3314
945.18        70.40232
945.57        68.98006
945.97        67.61634
946.36        67.24541
946.75           68.11
947.14        69.84272
947.53        71.60596
947.92        72.24847
948.31        71.58522
948.70         69.9938
949.09        68.05035
949.48        66.77744
949.87        66.52005
950.26        66.95524
950.65        67.77068
951.04        68.44486
951.43        68.75636
951.82        68.87697
952.21        68.80241
952.60        68.50092
952.99        68.01787
953.38        67.34908
953.77          66.634
954.16        66.12418
954.55        65.89743
954.94        65.92825
955.33        66.15308
955.72        66.43748
956.11        66.73043
956.50        67.05366
956.89        67.41053
957.28        67.79683
957.66        68.18575
958.05        68.46375
958.44        68.58639
958.83          68.511
959.22        68.24004
959.61        67.80547
960.00        67.23898
960.39          66.616
960.78        66.01185
961.16        65.42823
961.55        64.98374
961.94        64.72387
962.33        64.65043
962.72        64.74492
963.11        64.92695
963.49        65.07146
963.88        65.06297
964.27        64.97071
964.66        64.84171
965.04        64.77448
965.43        64.79453
965.82        64.87383
966.21        65.01752
966.60        65.23379
966.98        65.51891
967.37        65.84076
967.76        66.17301
968.15        66.45368
968.53        66.67014
968.92        66.74486
969.31        66.70196
969.69        66.58582
970.08        66.35473
970.47        66.04024
970.86        65.58522
971.24        64.86056
971.63        63.93505
972.02        62.90719
972.40        61.95273
972.79        61.38052
973.17        61.30832
973.56        61.56544
973.95        62.14747
974.33        63.00969
974.72        63.93097
975.11        64.88077
975.49        65.55115
975.88        65.48047
976.26        64.62968
976.65        63.18223
977.04        61.48813
977.42         60.1842
977.81        59.51458
978.19        59.31226
978.58        59.52849
978.96        60.04724
979.35        60.71105
979.74        61.68371
980.12        62.69593
980.51        63.00018
980.89        62.59431
981.28        61.58362
981.66        60.65014
982.05        60.81318
982.43        62.17238
982.82        64.36285
983.20        66.74795
983.59        67.85446
983.97         67.3467
984.35        65.62594
984.74        63.38861
985.12        61.62444
985.51        60.66449
985.89         60.1727
986.28        60.14527
986.66        60.60825
987.04        61.37054
987.43        62.49717
987.81        63.36626
988.20        63.16894
988.58         61.7113
988.96        58.85735
989.35        55.30709
989.73        53.42738
990.12        54.36283
990.50        57.42694
990.88        60.69112
991.27        61.93734
991.65        61.08242
992.03        58.75922
992.42        56.14994
992.80         55.5435
993.18        57.60268
993.56        61.18129
993.95        65.01083
994.33        67.82439
994.71        69.10364
995.10        69.34715
995.48         68.6889
995.86        67.17918
996.24        64.95329
996.63         61.8906
997.01        58.44657
997.39        56.14394
997.77        55.71977
998.15        56.82216
998.54        58.60617
998.92        60.04321
999.30        60.94091
999.68        61.63672
1000.06        61.83204
1000.45         60.8874
1000.83         59.0283
1001.21        56.66441
1001.59        54.76621
1001.97        54.08279
1002.35        54.46988
1002.73        55.72598
1003.12        57.40717
1003.50        58.42808
1003.88        58.17145
1004.26        57.04402
1004.64        55.40104
1005.02        53.71305
1005.40        52.18351
1005.78        50.59572
1006.16        49.52287
1006.54        50.09965
1006.92        52.19765
1007.30        55.03206
1007.69         57.4844
1008.07        58.61914
1008.45        58.23317
1008.83        56.42954
1009.21        52.83679
1009.59        47.95104
1009.97         43.2172
1010.35        39.30542
1010.73        37.80254
1011.11        39.63112
1011.49        44.06354
1011.86        50.63728
1012.24        56.41615
1012.62        58.63838
1013.00        57.18011
1013.38        53.01677
1013.76        47.93942
1014.14         45.1829
1014.52        45.67495
1014.90        48.43769
1015.28        51.85062
1015.66        53.14825
1016.04        51.39692
1016.41        47.34491
1016.79        41.97338
1017.17         38.0171
1017.55        36.94968
1017.93        37.66494
1018.31        39.36156
1018.69        41.44312
1019.06         43.6246
1019.44        46.00053
1019.82        47.90599
1020.20        47.47288
1020.58        44.10588
1020.95        38.51125
1021.33         31.7102
1021.71        23.96569
1022.09        14.16307
1022.46       -1.951161
1022.84        -23.4986
1023.22        -27.0484
1023.60       -2.885146
1023.97        22.90407
1024.35        37.22369
1024.73        42.03593
