SpectraSmart Spectrum 2.9.0.0
--------- Device Information -----------
Spectrum Name :  反射率_0
Saving Time :  2024/04/27 00:44:34
Spectro-Module Model Name : SE2030-DUVN
Spectro-Module Serial Number : OS361AC55029948
Wavelength Start : 200
Wavelength End : 1025
Wavelength Unit : Wavelength(nm)
Spectrum Unit : Reflectance(%)
-----------Spectrum Setting ------------
Integration Time : 20ms
Average : 10
Boxcar : 0
Background removal :  enabled
linearity correction :  enabled
SC :  disabled
Intensity correction :  disabled
DWT denoise :  enabled
savitzky-golay :  disabled
FFT :  disabled
Running average :  disabled
Kalman :  disabled
High pass :  disabled
---------------BEGIN--------------------
Wavelength(nm)             Reflectance(%)
200.29               0
200.75        42.59904
201.21        47.07133
201.67        51.00678
202.13         52.1501
202.58        50.31371
203.04        46.15554
203.50        40.86856
203.96        38.47924
204.42        41.71423
204.88        49.86858
205.34        59.55249
205.80        64.29298
206.26        62.37606
206.72        56.38892
207.18        49.75201
207.64        44.94606
208.10        41.90059
208.55        39.73149
209.01        37.69468
209.47        36.20214
209.93        36.01591
210.39        37.16871
210.85        39.10671
211.31        42.15854
211.77        47.56451
212.23        58.69451
212.69        86.19087
213.14        135.9242
213.60         139.842
214.06        109.9382
214.52        87.45323
214.98        75.60409
215.44        68.34275
215.90        61.35844
216.36        55.92907
216.81        54.83377
217.27        59.34131
217.73        71.82049
218.19        88.80211
218.65        91.00191
219.11        74.46699
219.57        53.40437
220.02        40.58236
220.48        41.78657
220.94        56.06092
221.40        85.02244
221.86        128.0619
222.32        157.8461
222.77        149.6212
223.23        120.8535
223.69        91.65982
224.15        73.63814
224.61        65.15791
225.06        60.94547
225.52         59.5435
225.98        59.54135
226.44        60.31384
226.90        62.36224
227.36        64.85649
227.81        66.03966
228.27        65.74195
228.73        64.28831
229.19        62.89408
229.65        63.13958
230.10        65.06632
230.56          68.134
231.02        71.17535
231.48        72.35751
231.93        71.31284
232.39        69.12939
232.85        66.83546
233.31        65.78748
233.77        66.16833
234.22        67.55127
234.68        69.31063
235.14         70.5817
235.60        71.10541
236.05         71.2155
236.51        71.17364
236.97         71.6011
237.43        72.71033
237.88        74.28172
238.34        76.00393
238.80        77.80607
239.26        79.74894
239.71        82.44111
240.17          85.501
240.63        88.49398
241.08        91.18159
241.54        92.82083
242.00        94.77448
242.46        100.1468
242.91        111.7973
243.37        131.6946
243.83        161.0442
244.28        188.2129
244.74          193.42
245.20         174.552
245.66        147.7601
246.11         128.492
246.57        118.0915
247.03        112.5148
247.48          107.82
247.94        99.53327
248.40        89.70422
248.85        81.29816
249.31        76.14477
249.77        74.33318
250.22        75.00172
250.68        77.55385
251.14        80.93365
251.59        81.79441
252.05        79.00033
252.51        74.95375
252.96        70.91978
253.42        68.27656
253.88        67.09776
254.33        66.48902
254.79        67.88143
255.25        72.31898
255.70        79.19035
256.16        87.74367
256.62        94.80769
257.07        95.48117
257.53         91.2736
257.99        85.35635
258.44        79.98325
258.90        77.39245
259.35        76.56237
259.81        76.88539
260.27        77.42168
260.72        77.19657
261.18        76.38067
261.63        75.00471
262.09        73.78695
262.55        72.85667
263.00        72.07224
263.46        71.50522
263.91        70.65159
264.37        69.31305
264.83        67.50362
265.28        65.40067
265.74        63.57614
266.19         62.3489
266.65         61.8213
267.11        61.70888
267.56        61.74862
268.02        61.54322
268.47        60.95322
268.93        60.13619
269.38        59.10518
269.84        57.95872
270.30        56.73995
270.75        55.41875
271.21        54.15709
271.66        53.12981
272.12        52.37128
272.57        51.79812
273.03        51.27402
273.48         50.5489
273.94        49.62291
274.39        48.53252
274.85        47.44032
275.31        46.39565
275.76        45.40755
276.22        44.52218
276.67        43.69204
277.13        42.97739
277.58        42.31631
278.04        41.72299
278.49        41.15381
278.95        40.68385
279.40        40.23883
279.86        39.87333
280.31        39.42097
280.77        38.78484
281.22        37.92407
281.68        36.97528
282.13        36.06514
282.59        35.47614
283.04        35.19878
283.50        35.17149
283.95        35.22715
284.41        35.12332
284.86        34.79687
285.32         34.3619
285.77        33.92058
286.22        33.68739
286.68        33.69613
287.13         33.8281
287.59        33.99716
288.04        34.02346
288.50        33.89225
288.95        33.62931
289.41        33.32697
289.86        33.03689
290.32        32.82662
290.77        32.66634
291.22        32.56704
291.68        32.52376
292.13        32.54061
292.59        32.67294
293.04        32.96226
293.50        33.48552
293.95         34.2466
294.40        35.22024
294.86        36.37553
295.31        37.65043
295.77         39.0206
296.22        40.47199
296.68        41.98257
297.13         43.5066
297.58        45.04583
298.04        46.60548
298.49        48.21396
298.95        49.94417
299.40        51.78938
299.85        53.72923
300.31        55.71693
300.76        57.65321
301.21        59.52942
301.67        61.39542
302.12        63.26053
302.58        65.23324
303.03        67.28259
303.48        69.40354
303.94         71.5843
304.39        73.73565
304.84         75.8668
305.30        78.00263
305.75        80.11086
306.20        82.24055
306.66        84.40414
307.11        86.53862
307.57        88.60854
308.02        90.44497
308.47        92.05578
308.93        93.48983
309.38        94.84841
309.83        96.41585
310.29        98.24319
310.74        100.2454
311.19        102.1897
311.65        103.6617
312.10         104.551
312.55        104.9835
313.00        105.2742
313.46        105.9149
313.91        106.9913
314.36        108.3883
314.82        109.8224
315.27        110.8483
315.72        111.3285
316.18        111.4398
316.63        111.4008
317.08         111.602
317.53        112.1501
317.99        112.9121
318.44        113.7358
318.89        114.3468
319.35        114.6582
319.80        114.7608
320.25        114.7816
320.70         114.917
321.16         115.221
321.61        115.6824
322.06        116.1646
322.51        116.4615
322.97        116.5152
323.42        116.3933
323.87        116.3221
324.32        116.6876
324.78        117.5189
325.23        118.7829
325.68        120.0397
326.13        120.5631
326.59         120.184
327.04        119.1531
327.49        117.9988
327.94        117.5942
328.39        118.1506
328.85        119.3743
329.30        120.9304
329.75        121.9197
330.20        122.0519
330.66        121.5743
331.11        120.8967
331.56        120.5862
332.01        120.8351
332.46        121.4299
332.92        122.1518
333.37        122.8281
333.82        123.2896
334.27        123.6643
334.72         123.956
335.17        124.1347
335.63        124.2243
336.08        124.2936
336.53        124.4675
336.98        125.0217
337.43        126.0006
337.88         127.283
338.34        128.6929
338.79        130.0566
339.24        131.1917
339.69        132.1398
340.14        132.7561
340.59        132.8382
341.05        132.4499
341.50        131.6829
341.95        130.9252
342.40        130.7716
342.85         131.356
343.30        132.5103
343.75        133.9389
344.20        135.1215
344.66        135.8724
345.11        136.3166
345.56        136.5249
346.01        136.6288
346.46        136.7107
346.91        136.7384
347.36        136.7578
347.81        136.8716
348.26        137.0893
348.72        137.3724
349.17        137.7204
349.62        138.1546
350.07        138.6421
350.52        139.1942
350.97        139.5632
351.42         139.364
351.87        138.5698
352.32        137.3131
352.77        136.0705
353.22        135.5416
353.67        135.8484
354.13        136.7922
354.58        137.8755
355.03        138.2092
355.48        137.5721
355.93        136.2291
356.38        134.7441
356.83        133.9683
357.28        134.0634
357.73        134.7283
358.18        135.4314
358.63        135.3269
359.08        134.2147
359.53        132.4078
359.98        130.3793
360.43        128.8051
360.88        127.8552
361.33        127.3227
361.78        126.9204
362.23        126.2055
362.68        125.0777
363.13        123.7149
363.58        122.3509
364.03         121.317
364.48        120.6734
364.93        120.2692
365.38        119.9132
365.83         119.322
366.28        118.4214
366.73        117.3258
367.18        116.1363
367.63        114.9991
368.08        113.9721
368.53        113.0073
368.98        112.1255
369.43        111.3593
369.88        110.7002
370.33        110.1516
370.78        109.6268
371.23        108.9791
371.68        108.1742
372.13        107.2331
372.58        106.2698
373.03        105.4741
373.48        104.8749
373.93        104.4063
374.38        103.9187
374.83        103.1808
375.28        102.1545
375.72        100.9154
376.17        99.68124
376.62        98.64778
377.07        97.88725
377.52         97.3668
377.97        96.99248
378.42        96.62577
378.87        96.21888
379.32        95.76511
379.77        95.39671
380.22        95.30828
380.67         95.4897
381.11        95.89566
381.56        96.12464
382.01        95.62807
382.46        94.35848
382.91        92.58593
383.36        90.83998
383.81        89.83755
384.26        89.69056
384.71        90.15765
385.15        90.88778
385.60        91.26295
386.05        91.08604
386.50        90.53649
386.95        89.76598
387.40        89.01635
387.85        88.39042
388.29        87.76125
388.74        87.23615
389.19        86.74843
389.64        86.28333
390.09        85.85983
390.54        85.49315
390.98        85.17442
391.43        84.93892
391.88        84.75903
392.33        84.58913
392.78        84.33545
393.23        83.98281
393.67        83.61128
394.12         83.3232
394.57        82.90018
395.02        82.44687
395.47        82.39552
395.91        82.64664
396.36        82.58141
396.81        82.16988
397.26        81.74079
397.71        81.34866
398.15        80.94682
398.60         80.6599
399.05        80.33115
399.50        79.98759
399.95        79.96128
400.39        80.15625
400.84        79.78575
401.29        78.96226
401.74        78.76457
402.18        79.08572
402.63        78.65667
403.08        77.64771
403.53        77.24757
403.97        77.49614
404.42        77.77692
404.87        77.93359
405.32         77.9004
405.76        77.61345
406.21        77.30479
406.66        76.99179
407.11        76.42406
407.55        75.85277
408.00        75.80736
408.45        76.25677
408.90        76.93192
409.34        77.42361
409.79        76.85017
410.24        75.55137
410.68        74.96645
411.13        75.20637
411.58        75.43652
412.03        75.48499
412.47        75.46793
412.92        75.30762
413.37        75.01675
413.81        74.68379
414.26        74.50771
414.71        74.49753
415.15        74.62806
415.60        74.81139
416.05        74.97864
416.49        75.09869
416.94        75.18347
417.39        75.24376
417.83        75.27348
418.28        75.28566
418.73        75.28125
419.17        75.26913
419.62        75.27193
420.07        75.27461
420.51        75.23701
420.96        75.20944
421.41        75.13321
421.85        74.97167
422.30        75.03326
422.74        75.13332
423.19        74.63403
423.64        73.71774
424.08        73.53364
424.53        74.07486
424.98        74.33434
425.42        74.25063
425.87        74.57272
426.31        75.15636
426.76        74.99498
427.21        74.26991
427.65        74.15457
428.10        74.58266
428.54        74.75404
428.99        74.69846
429.44        74.38614
429.88        74.10355
430.33        74.97775
430.77        76.45323
431.22        76.87035
431.66        76.13093
432.11        75.03628
432.56        74.03561
433.00        73.82417
433.45        74.65209
433.89         75.7142
434.34        75.96275
434.78        77.76919
435.23        75.90379
435.67        73.46762
436.12        74.03757
436.57        74.35352
437.01        75.37856
437.46        75.78994
437.90        75.61698
438.35        74.33244
438.79        74.66005
439.24        74.44027
439.68        74.42425
440.13         74.7162
440.57        75.27341
441.02        75.44238
441.46        75.25528
441.91        75.98688
442.35        77.15237
442.80        76.92096
443.24        75.60941
443.69        75.53608
444.13        76.60861
444.58        77.06041
445.02        76.78051
445.47        76.58462
445.91         76.5975
446.36        76.72524
446.80        76.95982
447.24        77.36346
447.69         77.7796
448.13        77.72495
448.58        77.31339
449.02        77.19177
449.47         77.3968
449.91        77.41782
450.36        77.28493
450.80        77.29928
451.25         77.4492
451.69        77.49061
452.13        77.42297
452.58        77.31123
453.02        77.19732
453.47        77.15453
453.91        77.18581
454.36        77.26141
454.80         77.3195
455.24        77.21218
455.69        76.92717
456.13        76.64375
456.58        76.45148
457.02        75.94612
457.46        75.39195
457.91        75.71494
458.35        76.56229
458.79        76.66771
459.24        76.02633
459.68        75.12054
460.13        74.23598
460.57        74.19314
461.01         74.4697
461.46        74.63603
461.90        74.72564
462.34        76.46564
462.79        75.46922
463.23        75.36119
463.68        75.89078
464.12        75.66743
464.56         75.0344
465.01        74.23197
465.45        73.50721
465.89        73.45506
466.34        73.87745
466.78        74.02684
467.22        73.90072
467.67        73.19764
468.11        73.33435
468.55        73.38909
468.99        73.65115
469.44        73.65186
469.88        73.38459
470.32        73.15145
470.77        73.00163
471.21        72.88931
471.65        72.81261
472.10        72.78452
472.54         72.7987
472.98        72.78404
473.42        72.70357
473.87        72.80434
474.31          72.934
474.75        72.41294
475.20        71.51799
475.64        71.44636
476.08        72.11282
476.52         72.2466
476.97        71.74608
477.41        71.55114
477.85        71.92735
478.29        71.29095
478.74         72.0939
479.18        72.82114
479.62        71.86455
480.06        71.75079
480.50        71.70998
480.95        71.90573
481.39        72.37094
481.83        71.16007
482.27        71.35036
482.72        72.09836
483.16        71.39167
483.60        71.48129
484.04        71.69349
484.48        72.01971
484.93        72.23946
485.37        72.22603
485.81        71.06126
486.25        71.17254
486.69        73.61916
487.14        74.03964
487.58        71.27702
488.02        71.88824
488.46        70.66885
488.90        70.42272
489.34        71.92507
489.79        72.96982
490.23        71.92533
490.67        71.35342
491.11        70.92342
491.55        70.81642
491.99        70.95364
492.43        70.82508
492.88        70.46284
493.32        70.37827
493.76        70.57884
494.20        70.74622
494.64        70.84095
495.08        70.94515
495.52        71.05112
495.96        71.12768
496.41        71.14433
496.85        71.17104
497.29        71.07942
497.73        70.89967
498.17        69.90106
498.61        69.91029
499.05        70.55644
499.49        70.84333
499.93        70.44903
500.37        70.38781
500.82        70.62681
501.26        70.63291
501.70        70.41595
502.14        70.86104
502.58        70.97104
503.02        71.15145
503.46        71.09319
503.90        70.99043
504.34        70.85107
504.78        70.64324
505.22        70.39762
505.66        70.13998
506.10        69.93289
506.54         69.8214
506.98        69.80705
507.42        70.05881
507.86        70.17313
508.30        70.31757
508.74        70.35564
509.18        70.32063
509.62        70.23444
510.06        70.14594
510.50        70.07846
510.94         70.0143
511.38        69.96515
511.82        69.94976
512.26        69.97195
512.70        70.03571
513.14         70.1214
513.58        70.19199
514.02        70.23557
514.46        70.25201
514.90        70.26206
515.34        70.30418
515.78        70.37916
516.22        70.46773
516.66        70.52751
517.10        70.49258
517.54        70.35573
517.98        70.15082
518.42        69.92514
518.86        69.75213
519.30        69.65741
519.74        69.62022
520.18        69.63649
520.62        69.69514
521.06        69.78526
521.50        69.91407
521.93        70.04813
522.37        70.10876
522.81        70.09156
523.25        70.00821
523.69        69.91676
524.13        69.91652
524.57        70.01769
525.01        70.17393
525.45        70.32085
525.89        70.35326
526.32        70.23942
526.76        70.04787
527.20        69.79632
527.64        69.51765
528.08        69.24307
528.52        68.96612
528.96        68.76385
529.40        68.75428
529.83        68.94138
530.27        69.29397
530.71        69.66959
531.15        69.84342
531.59        69.76499
532.03        69.49557
532.46        69.15514
532.90        68.98815
533.34        69.03767
533.78        69.18683
534.22        69.34441
534.66        69.45821
535.09        69.44214
535.53        69.18846
535.97         68.7821
536.41        68.52939
536.85        68.47703
537.28        68.47836
537.72        68.52229
538.16        68.64575
538.60        68.82829
539.04        69.05567
539.47        69.26963
539.91        69.42345
540.35         69.4879
540.79        69.47637
541.22        69.41534
541.66        69.37657
542.10        69.37052
542.54        69.37778
542.97        69.37492
543.41        69.35744
543.85        69.31073
544.29        69.25486
544.72         69.1788
545.16        69.09406
545.60        68.99561
546.04        68.91917
546.47         68.8914
546.91         68.8991
547.35        68.97378
547.79        69.19457
548.22         69.4837
548.66        69.68462
549.10        69.79524
549.53        69.66885
549.97        69.39252
550.41        69.12484
550.84        68.98608
551.28        69.00839
551.72        69.10101
552.15        69.24181
552.59        69.48809
553.03         68.8294
553.46        69.34863
553.90        69.25858
554.34        69.16592
554.77        69.06925
555.21        69.04118
555.65        69.06031
556.08        69.22567
556.52        69.41098
556.96        69.56083
557.39         69.6375
557.83        69.60693
558.27        69.28977
558.70          68.797
559.14        68.58408
559.57        68.64782
560.01        68.67037
560.45         68.6478
560.88        68.80042
561.32        69.09078
561.75        69.29356
562.19         69.3909
562.63        69.29371
563.06        69.09452
563.50        69.19729
563.93        69.47434
564.37        69.53236
564.80         69.3864
565.24         69.1507
565.68        68.73605
566.11        69.38895
566.55        68.64134
566.98        68.49618
567.42        68.35371
567.85        68.58854
568.29        69.13495
568.72        69.48233
569.16         69.6747
569.60        70.05004
570.03        70.02715
570.47        70.32723
570.90        70.83285
571.34         69.7309
571.77        70.66093
572.21        70.68972
572.64        70.51812
573.08        70.91653
573.51        69.97798
573.95        70.01421
574.38        70.57293
574.82        70.61869
575.25        70.30101
575.69        70.26762
576.12        70.55456
576.56        69.97925
576.99        70.07222
577.42        70.25571
577.86        70.16207
578.29        71.24369
578.73        71.16746
579.16         71.0168
579.60          70.254
580.03        70.23103
580.47        70.00609
580.90        70.97818
581.33        71.07042
581.77        70.91286
582.20        71.30852
582.64        71.69931
583.07        70.93515
583.51        70.41315
583.94        70.20991
584.37        70.24406
584.81        70.59279
585.24        70.76409
585.68        70.66526
586.11        70.64213
586.54        70.93687
586.98        69.85693
587.41         69.2605
587.85        69.99199
588.28        70.24029
588.71        69.87367
589.15        69.58524
589.58        70.05486
590.01         69.2846
590.45        69.45886
590.88        70.10959
591.31        70.08879
591.75        69.56301
592.18        69.14816
592.61        69.11028
593.05        69.88067
593.48        70.82035
593.91        70.96238
594.35        70.28634
594.78        69.48483
595.21        68.82121
595.65        69.30035
596.08        70.89338
596.51        70.35297
596.94        69.93682
597.38        69.46375
597.81        69.60075
598.24        70.32146
598.68        69.92206
599.11        69.39006
599.54        71.03257
599.97        70.51729
600.41        70.13515
600.84        69.44591
601.27        69.90074
601.70         70.0416
602.14         69.9662
602.57        69.77988
603.00        69.70197
603.43        68.93683
603.87        70.08286
604.30         70.2059
604.73        70.12632
605.16        69.43427
605.60        69.29265
606.03        69.08087
606.46        69.03049
606.89        69.41875
607.32        69.71727
607.76        69.35433
608.19        69.75063
608.62        69.54321
609.05         69.3397
609.48        69.23793
609.92        70.17392
610.35        69.74779
610.78         69.3349
611.21        69.19978
611.64        69.38285
612.07        69.64854
612.50        69.54171
612.94        69.46954
613.37        69.23805
613.80        69.58382
614.23        68.72061
614.66        68.71073
615.09        69.05391
615.52        69.28182
615.96        69.21063
616.39        69.64367
616.82        69.84692
617.25        68.86302
617.68        69.11209
618.11        69.04945
618.54        69.39162
618.97        69.47578
619.40        69.26995
619.84        69.41589
620.27        69.23782
620.70         69.1895
621.13        69.06483
621.56         68.6066
621.99        67.90363
622.42        67.81334
622.85        68.27174
623.28        67.82394
623.71        68.12193
624.14        68.36147
624.57        68.47573
625.00        68.50028
625.43        68.51607
625.86        68.46437
626.29        68.50046
626.72        68.00731
627.15        68.42344
627.58        68.49193
628.01        68.50388
628.44        68.69405
628.87        68.52652
629.30        68.14349
629.73        67.88071
630.16        68.13844
630.59        67.96635
631.02        68.22627
631.45        68.52086
631.88        68.72874
632.31        68.79165
632.74         68.7614
633.17        68.66967
633.60        68.54115
634.03        68.40213
634.46        68.24019
634.89        68.06966
635.32        67.93481
635.75        67.85074
636.18        67.74034
636.61         67.6375
637.04        67.63237
637.47        67.72546
637.89        67.88051
638.32        68.01017
638.75        68.03851
639.18        67.94508
639.61        67.75562
640.04        67.54539
640.47        67.43584
640.90        67.45777
641.33        67.57909
641.76        67.74065
642.18        67.85068
642.61        67.85724
643.04        67.79449
643.47        67.70743
643.90        67.66798
644.33        67.69173
644.76        67.75471
645.18        67.80937
645.61        67.76154
646.04        67.60818
646.47        67.39506
646.90        67.19077
647.33        67.09109
647.75        67.08981
648.18        67.20677
648.61        67.43835
649.04        67.51214
649.47        67.32771
649.89        68.01263
650.32        67.72143
650.75          67.569
651.18        67.18147
651.61        67.26652
652.03         67.8009
652.46        68.10111
652.89        68.08578
653.32        68.08709
653.74        68.21097
654.17         67.5606
654.60        68.01273
655.03        67.43314
655.46        67.42769
655.88        67.31367
656.31        71.47892
656.74        75.64919
657.16        73.91415
657.59        72.18289
658.02        69.55038
658.45        68.89291
658.87        67.92818
659.30        68.35662
659.73        68.18832
660.15        69.15848
660.58        68.10723
661.01        67.87337
661.44        67.74176
661.86        67.45788
662.29        67.02496
662.72        67.51105
663.14        67.54311
663.57        67.51091
664.00        67.15351
664.42        67.19488
664.85        67.65176
665.27        68.10751
665.70        68.38966
666.13        68.48881
666.55        68.37489
666.98        67.97471
667.41        67.41304
667.83        67.34335
668.26        67.12279
668.69        67.25425
669.11        67.46651
669.54        67.63961
669.96        67.73314
670.39        67.82147
670.82        67.90781
671.24        67.88532
671.67         67.7966
672.09        67.78771
672.52        67.87936
672.94         67.9522
673.37        67.98819
673.80        67.98704
674.22        67.95551
674.65        67.89899
675.07        67.83705
675.50         67.7311
675.92        67.60471
676.35        67.50721
676.77        67.45257
677.20        67.42395
677.62        67.42877
678.05        67.47538
678.47        67.55626
678.90        67.67628
679.32        67.79519
679.75        67.85608
680.17        67.83788
680.60        67.76912
681.02        67.70313
681.45        67.65871
681.87        67.68236
682.30        67.90475
682.72         68.2342
683.15        68.24825
683.57         67.9875
684.00        67.85764
684.42        67.92883
684.85        68.02143
685.27        68.13715
685.70        68.40884
686.12        68.73129
686.54        68.89011
686.97        68.84607
687.39        68.65647
687.82        68.38564
688.24        68.24944
688.66        68.14657
689.09        68.14828
689.51        68.19755
689.94        68.24411
690.36        68.27402
690.78        68.29124
691.21        68.31099
691.63        68.33871
692.06        68.38097
692.48         68.4472
692.90        68.49023
693.33        68.44358
693.75        68.29649
694.17        68.03764
694.60        67.79792
695.02        67.77396
695.44        67.96354
695.87        68.38647
696.29        68.85828
696.71        68.68429
697.14        68.01951
697.56        67.88076
697.98        68.27373
698.41         68.3933
698.83        68.22243
699.25        68.29652
699.68        68.53103
700.10        68.58923
700.52        68.42007
700.94        68.13348
701.37        67.86207
701.79         67.8233
702.21        68.05051
702.64        68.44912
703.06        68.87167
703.48        69.06409
703.90        68.96286
704.33         68.6552
704.75        68.26237
705.17        67.97086
705.59          67.852
706.01        67.85034
706.44        67.94667
706.86        68.13424
707.28        68.37438
707.70        68.64513
708.12        68.90628
708.55        69.13317
708.97         69.2808
709.39        69.22058
709.81        69.00607
710.23        68.88246
710.66         68.8875
711.08        68.92622
711.50        68.94208
711.92        68.90291
712.34        68.79981
712.76        68.66326
713.19        68.51965
713.61        68.44791
714.03        68.45506
714.45        68.52222
714.87        68.64894
715.29        68.83825
715.71        69.07101
716.13         69.3248
716.56        69.53539
716.98        69.68967
717.40        69.73409
717.82        69.68636
718.24        69.54433
718.66        69.30703
719.08        69.01051
719.50        68.69321
719.92        68.43987
720.34        68.36324
720.76        68.48647
721.19        68.76604
721.61        69.16472
722.03        69.54283
722.45        69.83697
722.87          70.071
723.29         70.1908
723.71        70.11523
724.13        69.85194
724.55        69.43533
724.97        68.98772
725.39        68.71541
725.81        68.67463
726.23        68.80578
726.65        69.02175
727.07        69.29509
727.49        69.34244
727.91        69.46909
728.33        69.61134
728.75        69.73323
729.17        69.83264
729.59        69.91914
730.01        69.99238
730.43        70.04111
730.85        70.06162
731.27        70.05968
731.69        70.02158
732.10        69.92112
732.52        69.76153
732.94        69.57427
733.36         69.4167
733.78        69.24871
734.20        69.07515
734.62        69.15172
735.04        69.54215
735.46        69.05228
735.88        69.71825
736.30        69.86758
736.72        70.08435
737.13        70.29218
737.55        70.41347
737.97        70.53098
738.39        70.58098
738.81        70.28062
739.23        69.77747
739.65        69.77142
740.06        70.18159
740.48        70.35896
740.90        70.24909
741.32        70.24799
741.74        70.37867
742.16        70.47139
742.57        70.52179
742.99        70.55454
743.41        70.55711
743.83        70.49259
744.25        70.36215
744.67        70.16988
745.08        69.98467
745.50        69.89337
745.92        69.92416
746.34         70.0479
746.75        70.19724
747.17        70.23952
747.59        70.15631
748.01         70.0153
748.42        69.87592
748.84        69.80462
749.26        69.85841
749.68        70.02887
750.09        70.25871
750.51        70.55756
750.93        70.78612
751.35        70.58932
751.76        70.06637
752.18        69.75203
752.60        69.69673
753.01        69.63411
753.43        69.52841
753.85        69.47803
754.27        69.48716
754.68        69.55125
755.10        69.66591
755.52         69.8139
755.93        69.96407
756.35        70.09554
756.77         70.2748
757.18        70.40365
757.60         70.4553
758.02        70.87899
758.43        71.56016
758.85        70.59386
759.26        70.52171
759.68        70.05322
760.10        69.99979
760.51        70.45968
760.93        70.92552
761.34        70.83808
761.76        70.85588
762.18        70.60741
762.59        70.49268
763.01        70.69499
763.42        71.20471
763.84        71.42538
764.26        71.30308
764.67        71.18196
765.09        71.11871
765.50        70.86539
765.92        70.52438
766.33         70.3004
766.75        70.12894
767.16        69.96656
767.58        69.79758
768.00        69.58653
768.41        69.47639
768.83        69.92243
769.24         70.7039
769.66        71.02654
770.07        70.83642
770.49        70.45154
770.90        70.10665
771.32        70.38918
771.73        71.15581
772.15        71.38116
772.56        71.01659
772.97        70.67191
773.39        70.48452
773.80        70.38945
774.22        70.40161
774.63        70.59273
775.05        70.82626
775.46        70.94908
775.88        70.89015
776.29        70.72303
776.70        70.53023
777.12        70.47766
777.53        70.60767
777.95        70.80414
778.36        71.03004
778.77         71.1873
779.19        71.27216
779.60        71.35413
780.02        71.35299
780.43        71.29303
780.84        71.22501
781.26        70.64326
781.67        69.88747
782.09         70.6657
782.50        72.49479
782.91        72.58787
783.33        71.07496
783.74        70.56973
784.15        71.18254
784.57         71.3733
784.98        71.12119
785.39        71.10642
785.81        71.33962
786.22        71.64352
786.63         71.9417
787.04        72.11271
787.46        72.13345
787.87        72.02615
788.28        71.89389
788.70        71.82558
789.11        71.81548
789.52        71.98135
789.93        72.20663
790.35         72.0018
790.76        71.47847
791.17        71.34445
791.58        71.60111
792.00        71.59566
792.41        71.32363
792.82        71.31384
793.23         71.5457
793.65        71.41405
794.06        71.08984
794.47        71.48516
794.88        72.39858
795.29        72.77705
795.71        72.51671
796.12        72.29748
796.53        72.22034
796.94        71.94697
797.35        71.65135
797.76        72.01092
798.18        72.81778
798.59        73.16229
799.00         72.9167
799.41        72.54939
799.82        72.22722
800.23        72.03719
800.64        72.04144
801.06        72.16934
801.47        72.35918
801.88         72.4195
802.29        72.29162
802.70        72.02747
803.11        71.70399
803.52        71.44577
803.93        71.32787
804.34        71.33626
804.75        71.42867
805.17        71.65999
805.58        72.07082
805.99         72.1947
806.40        72.14024
806.81        73.12189
807.22        74.64981
807.63        74.31752
808.04        72.43042
808.45        71.57735
808.86         71.9669
809.27         72.2002
809.68        72.09438
810.09        72.01727
810.50        71.93114
810.91        71.74665
811.32        71.61203
811.73        71.75577
812.14        72.20541
812.55        72.89171
812.96        73.58903
813.37        73.86629
813.78        73.61069
814.19        72.99259
814.60        72.24013
815.01        71.65784
815.42        71.32862
815.83        71.15971
816.24        71.14655
816.65        71.27499
817.05        71.51637
817.46        71.85854
817.87        72.19959
818.28         72.3214
818.69        72.18698
819.10        71.82629
819.51        71.42165
819.92        71.32118
820.33        71.61269
820.74        72.18763
821.14        72.83349
821.55        73.19995
821.96        73.19838
822.37        72.93675
822.78        72.56513
823.19        72.33905
823.60        72.34285
824.00        72.51448
824.41        72.72647
824.82        72.88138
825.23        72.92422
825.64        72.90344
826.04         72.8377
826.45        72.70298
826.86        72.52953
827.27        72.33163
827.68        72.14238
828.08        72.05031
828.49        72.02741
828.90        72.06902
829.31         72.1953
829.72        72.43634
830.12        72.79599
830.53         73.1889
830.94        73.49494
831.35        73.46855
831.75        73.08141
832.16        72.39926
832.57        71.62853
832.97        71.07355
833.38        70.83503
833.79        70.82687
834.20        70.99995
834.60        71.26021
835.01        71.56165
835.42        71.97302
835.82        72.41994
836.23        72.68442
836.64        72.74804
837.04        72.60645
837.45        72.47074
837.86        72.77213
838.26        73.60136
838.67        74.78191
839.08        75.90382
839.48        76.19414
839.89        75.47026
840.29        74.03392
840.70        72.51405
841.11         71.6159
841.51        71.52636
841.92        72.01817
842.33         72.8494
842.73         73.5835
843.14        73.93201
843.54        74.06974
843.95        74.08311
844.35        74.17086
844.76         74.3605
845.17        74.55598
845.57         74.6662
845.98        74.53723
846.38        74.17604
846.79        73.66226
847.19        73.13316
847.60        72.76846
848.00        72.63602
848.41        72.65385
848.81        72.80698
849.22         72.9749
849.62        73.15156
850.03         73.3605
850.43        73.55487
850.84        73.58733
851.24        73.48721
851.65        73.20458
852.05        72.99314
852.46        73.18456
852.86        73.82083
853.27        74.75716
853.67        75.59997
854.07        75.93571
854.48        75.66787
854.88        74.95901
855.29        74.00411
855.69        73.31315
856.10        72.99509
856.50        72.99937
856.90         73.1566
857.31        73.19562
857.71        73.08086
858.12        72.84087
858.52        72.59328
858.92        72.39583
859.33        72.26364
859.73        72.21523
860.13        72.16538
860.54        72.01365
860.94        71.78965
861.34         71.5082
861.75        71.29011
862.15        71.37647
862.55        71.77104
862.96        72.33931
863.36        72.92609
863.76        73.17923
864.17        72.99263
864.57        72.52617
864.97        71.84576
865.38        71.06167
865.78        70.28864
866.18         69.5052
866.58        68.92001
866.99        68.88888
867.39        69.48203
867.79        70.56435
868.19        71.79416
868.60        72.62606
869.00        72.94726
869.40        72.85093
869.80        72.50874
870.21         72.2817
870.61        72.36985
871.01        72.61245
871.41        72.85453
871.81        72.88551
872.22        72.65484
872.62        72.23357
873.02         71.8008
873.42        71.63208
873.82        71.78503
874.22        72.16634
874.63        72.51359
875.03        72.43449
875.43        71.85319
875.83        70.93263
876.23        69.97813
876.63        69.45024
877.03        69.46763
877.44        69.86354
877.84        70.46875
878.24        70.98518
878.64          71.246
879.04        71.20956
879.44        71.01281
879.84        70.96365
880.24        71.09072
880.64        71.23904
881.04        71.25149
881.44         70.9156
881.84        70.22103
882.24        69.32162
882.65        68.41135
883.05        67.75955
883.45        67.46098
883.85        67.43134
884.25        67.68441
884.65        68.22168
885.05        68.96066
885.45        69.85667
885.85          70.661
886.25        71.00861
886.65        70.84713
887.05        70.27654
887.45        69.55253
887.85        69.13438
888.25        69.15175
888.65        69.46179
889.04        69.89674
889.44         70.2168
889.84        70.31717
890.24        70.27924
890.64        70.10415
891.04        69.79074
891.44        69.37868
891.84        68.88718
892.24        68.40665
892.64         68.0677
893.04        67.92416
893.44        67.99064
893.83        68.25367
894.23        68.61745
894.63        69.05421
895.03        69.51741
895.43        70.05002
895.83        70.73962
896.23        71.53501
896.63        72.34736
897.02        72.89146
897.42        72.76357
897.82        71.93635
898.22        70.63099
898.62        69.21743
899.01        68.22928
899.41        67.83846
899.81         67.8863
900.21        68.26503
900.61        68.77977
901.00        69.30746
901.40        69.87087
901.80        70.34404
902.20         70.5176
902.59        70.37331
902.99        69.96021
903.39        69.40673
903.79        68.95406
904.18        68.68372
904.58        68.53466
904.98        68.57108
905.38        68.88635
905.77        69.45391
906.17        70.26693
906.57        71.02724
906.96         71.2287
907.36        70.76592
907.76        69.80872
908.15        68.80835
908.55        68.47404
908.95         68.9781
909.34        70.10542
909.74        71.42271
910.14        72.29111
910.53        72.46829
910.93        72.16578
911.33        71.54401
911.72        70.83853
912.12        70.23669
912.52        69.68175
912.91        69.21806
913.31        68.94783
913.70         68.8821
914.10        68.97655
914.49        69.27907
914.89        69.74808
915.29        70.34846
915.68        71.07195
916.08        71.63286
916.47        71.64908
916.87        71.08772
917.26        70.05975
917.66        69.02032
918.05        68.50998
918.45        68.65039
918.84        69.33369
919.24        70.20035
919.64           70.74
920.03        70.79618
920.42        70.47913
920.82        70.09029
921.21        70.04634
921.61        70.42283
922.00         71.1101
922.40        71.79574
922.79         72.0967
923.19        71.87747
923.58        71.32339
923.98        70.69135
924.37        70.27802
924.77        70.18112
925.16        70.24953
925.55        70.43242
925.95        70.62321
926.34        70.77615
926.74        70.92259
927.13        70.93163
927.52        70.51703
927.92        69.73484
928.31        68.69574
928.70        67.75112
929.10        67.41244
929.49        67.76743
929.89        68.59303
930.28        69.74317
930.67        70.82616
931.07        71.61777
931.46        72.27329
931.85        72.55982
932.24          72.179
932.64        71.20274
933.03         69.7178
933.42        68.29668
933.82        67.77409
934.21        68.31216
934.60        69.74362
934.99        71.51981
935.39        72.60762
935.78        72.72588
936.17        72.05424
936.56        71.07892
936.96        70.58289
937.35        70.76373
937.74        71.36321
938.13        71.95363
938.53        71.90466
938.92        71.10188
939.31        69.83885
939.70        68.54311
940.09        67.78784
940.49        67.68015
940.88        68.06982
941.27        68.73033
941.66        69.24488
942.05        69.45953
942.44        69.51559
942.84        69.51056
943.23          69.583
943.62        69.78205
944.01        69.99461
944.40        70.23605
944.79        70.57186
945.18        70.97185
945.57        71.41259
945.97         71.6737
946.36        71.49093
946.75        70.79442
947.14        69.74863
947.53        68.63833
947.92        67.85136
948.31        67.50076
948.70        67.50861
949.09        67.78242
949.48        68.14777
949.87        68.51776
950.26        68.90528
950.65        69.32582
951.04         69.8112
951.43        70.32887
951.82        70.81364
952.21        71.11675
952.60        71.03304
952.99        70.56836
953.38        69.85042
953.77        69.10078
954.16        68.65776
954.55        68.60757
954.94        68.83241
955.33        69.27217
955.72        69.79408
956.11         70.3039
956.50        70.85262
956.89        71.21217
957.28         71.0134
957.66        70.21897
958.05        68.98344
958.44        67.76829
958.83        67.25307
959.22         67.5533
959.61        68.49573
960.00        69.64211
960.39        70.16048
960.78        69.80036
961.16        68.82022
961.55         67.7012
961.94        67.05228
962.33        67.04456
962.72        67.53255
963.11        68.26533
963.49        68.80104
963.88        68.88329
964.27        68.63197
964.66        68.38831
965.04        68.69025
965.43        69.57616
965.82        70.93591
966.21        72.16881
966.60        72.16297
966.98        70.66802
967.37        68.20742
967.76        65.74503
968.15        64.46413
968.53        64.57918
968.92         65.8065
969.31        67.51387
969.69        68.42713
970.08        68.03964
970.47        66.76584
970.86        65.42525
971.24        65.18267
971.63        66.26797
972.02        68.32864
972.40        70.62883
972.79        71.45708
973.17        70.39229
973.56        68.09517
973.95        65.56031
974.33        64.03802
974.72        63.80584
975.11        64.46098
975.49        65.66212
975.88          66.669
976.26        67.20538
976.65        67.45889
977.04         67.5016
977.42        67.39363
977.81         67.1711
978.19        66.75217
978.58        66.37856
978.96        66.46416
979.35        67.03919
979.74        67.99968
980.12        69.10486
980.51         69.6415
980.89        69.55224
981.28         69.0778
981.66         68.4297
982.05        67.87887
982.43        67.55074
982.82        67.29048
983.20        67.45963
983.59        68.60107
983.97        70.82061
984.35        73.90173
984.74        76.80753
985.12        78.03487
985.51        77.14471
985.89        74.60869
986.28        71.57387
986.66            69.7
987.04        69.50343
987.43        70.56503
987.81         72.2395
988.20        73.11982
988.58        72.74859
988.96        71.46313
989.35        69.99586
989.73        69.35497
990.12        69.72566
990.50        70.84058
990.88        71.85634
991.27        71.36997
991.65        69.18221
992.03        65.91447
992.42        62.88026
992.80        61.81872
993.18         63.0682
993.56        66.13965
993.95        69.91471
994.33        72.34285
994.71        72.51736
995.10        71.15051
995.48        69.14692
995.86        67.95269
996.24         67.9697
996.63        68.57565
997.01        69.68599
997.39        70.77804
997.77        71.52066
998.15        72.23197
998.54        72.56412
998.92        71.81109
999.30        70.07953
999.68        67.57519
1000.06        65.31203
1000.45        64.74117
1000.83        66.22835
1001.21        69.53724
1001.59        73.61279
1001.97        75.87827
1002.35         75.3669
1002.73        72.88369
1003.12        69.99721
1003.50        68.67876
1003.88        69.45353
1004.26        71.59396
1004.64        74.45673
1005.02        76.63512
1005.40        77.42844
1005.78        77.48179
1006.16        76.60239
1006.54        74.45306
1006.92        71.36206
1007.30        67.50144
1007.69        64.33368
1008.07        63.83913
1008.45        66.51694
1008.83        72.04126
1009.21        78.81137
1009.59        82.73881
1009.97        81.93899
1010.35        77.56877
1010.73        71.61857
1011.11        67.00394
1011.49        64.61702
1011.86        63.64978
1012.24        63.70572
1012.62        64.26983
1013.00        65.10509
1013.38        66.43908
1013.76        68.24389
1014.14        70.05601
1014.52        71.47222
1014.90        72.37565
1015.28        72.43987
1015.66        71.43362
1016.04        69.47157
1016.41        66.63266
1016.79        63.80679
1017.17        62.72249
1017.55        63.74661
1017.93        66.28293
1018.31        69.09517
1018.69        70.39049
1019.06        69.74404
1019.44        67.53986
1019.82        64.28355
1020.20        61.47808
1020.58        60.00438
1020.95        59.40442
1021.33        59.51527
1021.71        59.94135
1022.09        60.57128
1022.46        61.85603
1022.84        63.37179
1023.22        63.98674
1023.60        63.31702
1023.97        61.34873
1024.35        59.78307
1024.73         60.7088
