SpectraSmart Spectrum 2.9.0.0
--------- Device Information -----------
Spectrum Name :  反射率_0
Saving Time :  2024/04/27 00:43:05
Spectro-Module Model Name : SE2030-DUVN
Spectro-Module Serial Number : OS361AC55029948
Wavelength Start : 200
Wavelength End : 1025
Wavelength Unit : Wavelength(nm)
Spectrum Unit : Reflectance(%)
-----------Spectrum Setting ------------
Integration Time : 20ms
Average : 10
Boxcar : 0
Background removal :  enabled
linearity correction :  enabled
SC :  disabled
Intensity correction :  disabled
DWT denoise :  enabled
savitzky-golay :  disabled
FFT :  disabled
Running average :  disabled
Kalman :  disabled
High pass :  disabled
---------------BEGIN--------------------
Wavelength(nm)             Reflectance(%)
200.29               0
200.75        40.74845
201.21        37.85271
201.67        35.54319
202.13        34.10409
202.58        33.29922
203.04        33.19998
203.50        34.04151
203.96        36.03057
204.42        39.11122
204.88        43.14698
205.34        46.87142
205.80        48.40538
206.26        47.36139
206.72        44.26636
207.18        41.02096
207.64        39.19135
208.10        38.90156
208.55        40.55746
209.01        43.02436
209.47        42.81576
209.93        39.41711
210.39        35.42626
210.85        33.71727
211.31        36.36229
211.77        44.85779
212.23        65.23311
212.69        115.1984
213.14        192.0889
213.60        175.7976
214.06         110.744
214.52        70.27988
214.98        53.39728
215.44        47.29022
215.90        45.40962
216.36        45.11871
216.81         43.1419
217.27        38.59587
217.73         32.2458
218.19        25.16315
218.65          23.337
219.11        28.83663
219.57        35.98355
220.02        42.37849
220.48        49.39152
220.94        58.43835
221.40        71.57887
221.86        87.89471
222.32        95.06689
222.77        84.84883
223.23        67.13706
223.69        51.50459
224.15        42.65991
224.61        39.07158
225.06        38.00944
225.52        38.60271
225.98        39.96578
226.44        41.71185
226.90         44.1528
227.36        46.24253
227.81        46.13376
228.27        43.84205
228.73        40.01736
229.19        36.53698
229.65        35.56723
230.10        37.15042
230.56        40.61166
231.02        44.20415
231.48        45.11436
231.93        42.98274
232.39        39.28223
232.85        35.88052
233.31        35.19297
233.77        37.41298
234.22        41.59613
234.68        46.39283
235.14        49.80457
235.60        51.19703
236.05        51.20312
236.51        50.28252
236.97        49.46261
237.43         49.2706
237.88        49.34903
238.34        49.78978
238.80        51.07413
239.26        53.45955
239.71        57.75632
240.17        63.44728
240.63        68.64291
241.08        72.06197
241.54        72.83929
242.00        73.15465
242.46        78.42213
242.91        92.68944
243.37        118.7566
243.83        157.5659
244.28        191.4867
244.74          194.34
245.20        166.1101
245.66        129.8727
246.11        106.8604
246.57        98.06884
247.03        96.74768
247.48        98.59837
247.94        97.23535
248.40         92.4045
248.85        87.69862
249.31        83.92967
249.77        79.97106
250.22        74.98077
250.68        67.57298
251.14        58.77382
251.59        54.25883
252.05        57.39104
252.51        66.07726
252.96        74.05241
253.42        75.84953
253.88        72.28281
254.33        65.89375
254.79        61.35815
255.25        62.48833
255.70          68.771
256.16        78.29241
256.62        86.81026
257.07        87.98228
257.53        83.26311
257.99        76.61287
258.44        70.95335
258.90        68.91155
259.35        69.30154
259.81        71.08222
260.27        72.82487
260.72        72.91044
261.18        71.55023
261.63        69.24763
262.09        67.07453
262.55        65.52979
263.00        64.52158
263.46        63.94462
263.91         63.2569
264.37        62.17874
264.83        60.67162
265.28        58.90137
265.74        57.37578
266.19        56.36209
266.65        55.94257
267.11        55.85891
267.56        55.82592
268.02        55.41738
268.47        54.52168
268.93        53.32143
269.38        51.94537
269.84        50.65774
270.30        49.52146
270.75        48.44156
271.21        47.46088
271.66        46.57493
272.12        45.77192
272.57        45.04434
273.03        44.29556
273.48        43.34528
273.94        42.24409
274.39        41.03356
274.85        39.93007
275.31        39.08232
275.76        38.48446
276.22        38.10217
276.67        37.80372
277.13        37.50865
277.58        37.11878
278.04        36.68114
278.49        36.14688
278.95        35.57373
279.40        34.93036
279.86        34.29845
280.31        33.61876
280.77        32.92776
281.22        32.20701
281.68        31.52556
282.13        30.94381
282.59        30.63353
283.04        30.56122
283.50        30.69161
283.95        30.85737
284.41         30.8075
284.86        30.49286
285.32        30.03192
285.77        29.56784
286.22        29.37175
286.68        29.48602
287.13        29.77343
287.59        30.13272
288.04        30.36005
288.50        30.42248
288.95        30.36092
289.41        30.23119
289.86        30.03711
290.32        29.84986
290.77        29.66299
291.22         29.5576
291.68        29.64072
292.13        29.92709
292.59        30.41701
293.04        31.07686
293.50        31.86185
293.95        32.73696
294.40        33.71631
294.86        34.78147
295.31        35.89354
295.77        37.05681
296.22        38.26213
296.68        39.54899
297.13        40.96771
297.58        42.53546
298.04        44.23236
298.49        46.02005
298.95        47.85635
299.40        49.70071
299.85        51.55881
300.31        53.41722
300.76        55.23637
301.21        57.02072
301.67        58.79163
302.12        60.54349
302.58         62.3637
303.03        64.21843
303.48        66.11789
303.94        68.05312
304.39        69.93634
304.84         71.7853
305.30        73.63493
305.75        75.47141
306.20        77.36741
306.66        79.33864
307.11        81.31185
307.57        83.25134
308.02         84.9928
308.47        86.53496
308.93        87.92554
309.38         89.2235
309.83        90.64385
310.29          92.227
310.74        93.89938
311.19        95.50639
311.65        96.76736
312.10        97.59708
312.55        98.08205
313.00        98.42394
313.46         98.9391
313.91         99.6835
314.36        100.5996
314.82        101.5277
315.27        102.2237
315.72        102.6095
316.18        102.8021
316.63        102.9179
317.08        103.1832
317.53        103.6596
317.99         104.261
318.44        104.9128
318.89        105.4657
319.35        105.8641
319.80        106.1555
320.25        106.3781
320.70        106.5955
321.16        106.8282
321.61        107.0925
322.06        107.3532
322.51          107.57
322.97        107.7187
323.42        107.8141
323.87        107.9419
324.32        108.2603
324.78        108.7532
325.23        109.4563
325.68        110.0998
326.13        110.2522
326.59        109.8371
327.04        109.0238
327.49        108.1945
327.94        107.9856
328.39        108.5408
328.85        109.6361
329.30        111.0167
329.75        111.9516
330.20        112.1938
330.66        111.9138
331.11        111.4327
331.56        111.1965
332.01        111.3606
332.46        111.7667
332.92        112.2311
333.37        112.6208
333.82        112.8138
334.27        112.9357
334.72         113.049
335.17        113.2181
335.63        113.4745
336.08        113.8437
336.53        114.3629
336.98        115.1533
337.43        116.2059
337.88        117.4371
338.34        118.6879
338.79        119.8182
339.24        120.6852
339.69        121.3233
340.14        121.6693
340.59        121.6515
341.05        121.3497
341.50        120.8216
341.95        120.3383
342.40        120.3048
342.85        120.8108
343.30        121.7431
343.75        122.8901
344.20         123.877
344.66        124.5651
345.11        125.0333
345.56        125.3154
346.01        125.4839
346.46        125.5984
346.91        125.6487
347.36        125.6828
347.81         125.801
348.26        126.0141
348.72        126.2759
349.17        126.5904
349.62         126.991
350.07        127.4447
350.52        127.9561
350.97        128.2822
351.42        128.0387
351.87        127.2088
352.32        125.9485
352.77        124.7091
353.22        124.1517
353.67        124.3945
354.13        125.2284
354.58        126.2503
355.03        126.7312
355.48         126.458
355.93        125.6393
356.38          124.62
356.83        123.9241
357.28        123.6687
357.73        123.6583
358.18        123.6361
358.63        123.2146
359.08        122.3016
359.53        121.0596
359.98        119.7006
360.43        118.5035
360.88        117.5418
361.33        116.7381
361.78        115.9699
362.23        115.0538
362.68        113.9683
363.13        112.8048
363.58        111.7005
364.03        110.8476
364.48        110.2693
364.93        109.8687
365.38        109.5238
365.83        109.0527
366.28        108.3956
366.73        107.6111
367.18        106.7234
367.63         105.769
368.08        104.7808
368.53        103.7549
368.98        102.7574
369.43        101.8919
369.88        101.1805
370.33         100.608
370.78        100.1034
371.23        99.54267
371.68        98.88964
372.13        98.16711
372.58        97.43765
373.03        96.80402
373.48        96.27695
373.93        95.80763
374.38        95.30871
374.83        94.65352
375.28         93.8231
375.72        92.85583
376.17         91.8927
376.62        91.02791
377.07        90.30585
377.52         89.7169
377.97        89.22644
378.42        88.79012
378.87         88.3868
379.32        87.99356
379.77         87.6693
380.22        87.49744
380.67        87.45509
381.11        87.53065
381.56        87.45692
382.01        86.90263
382.46        85.86395
382.91        84.53172
383.36         83.2562
383.81         82.5065
384.26        82.34921
384.71        82.61156
385.15        83.08866
385.60        83.41049
386.05        83.43731
386.50         83.2616
386.95        82.87945
387.40        82.30141
387.85        81.58398
388.29        80.69165
388.74        79.86329
389.19        79.22097
389.64        78.78966
390.09        78.54072
390.54        78.37562
390.98        78.10413
391.43        77.72028
391.88        77.26299
392.33        76.83866
392.78        76.53882
393.23        76.36214
393.67        76.38782
394.12        76.53113
394.57        76.14046
395.02         75.3632
395.47        75.12309
395.91        75.38367
396.36        75.26434
396.81        74.76875
397.26        74.42248
397.71         74.2377
398.15        74.01648
398.60        73.84438
399.05        73.57084
399.50        73.25671
399.95        73.30529
400.39        73.58041
400.84        73.27351
401.29        72.45894
401.74        71.94415
402.18        71.79915
402.63        71.54627
403.08        71.23752
403.53        71.12183
403.97        71.19561
404.42         71.4061
404.87        71.59566
405.32        71.50766
405.76        71.09359
406.21        70.46167
406.66        69.82505
407.11        69.52921
407.55         69.6641
408.00        70.09173
408.45         70.6049
408.90        70.81347
409.34         70.5877
409.79        70.03973
410.24        69.39314
410.68        68.97815
411.13        68.88096
411.58        68.97923
412.03        69.14471
412.47        69.17927
412.92        69.00154
413.37        68.71905
413.81        68.42136
414.26        68.29342
414.71        68.34648
415.15        68.54482
415.60        68.79105
416.05        69.00155
416.49        69.13966
416.94        69.21648
417.39        69.26252
417.83        69.31266
418.28        69.38098
418.73        69.44516
419.17        69.49536
419.62         69.5243
420.07        69.52371
420.51        69.48389
420.96        69.43591
421.41        69.35769
421.85        69.22993
422.30        69.16142
422.74        69.08568
423.19        68.93422
423.64        68.71538
424.08        68.61906
424.53        68.65105
424.98        68.70304
425.42        68.77431
425.87        68.98141
426.31        69.23038
426.76        69.12698
427.21        68.74617
427.65        68.55055
428.10        68.58021
428.54         68.6762
428.99         68.8791
429.44        68.96976
429.88        69.05962
430.33         69.8136
430.77        70.81236
431.22        71.13004
431.66        70.71109
432.11         69.7802
432.56        68.78585
433.00        68.89881
433.45        70.17233
433.89        71.01968
434.34        70.74676
434.78        71.51155
435.23        71.11618
435.67        68.63863
436.12        70.02647
436.57        70.01689
437.01        70.27901
437.46        70.47004
437.90        70.68449
438.35        69.57207
438.79        70.03288
439.24        69.89563
439.68        69.96078
440.13        70.32909
440.57        70.94559
441.02        70.96138
441.46        70.49764
441.91        71.24934
442.35        72.65585
442.80        72.39538
443.24        70.80534
443.69        70.61533
444.13        71.75658
444.58        72.15597
445.02        71.76471
445.47        71.74506
445.91        72.11862
446.36        72.41792
446.80        72.60866
447.24        72.80163
447.69        72.97263
448.13        73.07199
448.58        73.10816
449.02        73.04468
449.47        72.91951
449.91        72.79474
450.36        72.70195
450.80        72.56908
451.25        72.43797
451.69        72.35409
452.13        72.33836
452.58        72.35453
453.02        72.39928
453.47        72.48672
453.91        72.59326
454.36        72.71049
454.80        72.79073
455.24        72.68974
455.69        72.39892
456.13        72.10625
456.58        71.92278
457.02        71.30472
457.46        70.92112
457.91        71.10812
458.35        71.71967
458.79        71.72973
459.24        71.13837
459.68        70.39278
460.13        69.77573
460.57        69.54707
461.01        69.84093
461.46        70.05344
461.90        70.53815
462.34        71.37109
462.79         71.2142
463.23        71.24811
463.68         71.0582
464.12        70.76441
464.56        70.35596
465.01        69.83595
465.45        69.29585
465.89        68.93369
466.34        68.73933
466.78        68.96167
467.22        69.54595
467.67        68.76479
468.11        68.72251
468.55        68.59804
468.99        68.92693
469.44         68.8989
469.88        68.51646
470.32        68.17996
470.77        67.95912
471.21        67.87187
471.65        67.93199
472.10        67.96299
472.54        68.19413
472.98        68.22247
473.42        68.08979
473.87        68.00115
474.31        67.90987
474.75        67.42897
475.20        66.76936
475.64        66.78884
476.08        67.38939
476.52        67.46366
476.97        66.89645
477.41        66.89118
477.85        66.92443
478.29         66.3317
478.74        66.84451
479.18        67.46787
479.62        67.13629
480.06        67.22416
480.50        67.19432
480.95        67.28454
481.39        67.52736
481.83        66.73779
482.27        66.71313
482.72        67.25468
483.16        66.70255
483.60        66.74518
484.04        66.73329
484.48        66.95304
484.93        67.29565
485.37        66.68698
485.81        66.94498
486.25         66.1328
486.69        69.00727
487.14          68.949
487.58        66.80193
488.02        67.10502
488.46        66.14249
488.90        65.86884
489.34        67.11037
489.79        67.45576
490.23        67.21507
490.67        66.58305
491.11         65.8586
491.55        65.68072
491.99         65.9828
492.43        65.93052
492.88        65.51673
493.32        65.39552
493.76        65.58131
494.20        65.72161
494.64        65.78528
495.08        65.89352
495.52        66.01369
495.96        66.03633
496.41        65.96608
496.85         65.9463
497.29        65.88386
497.73        65.88197
498.17        65.17355
498.61        65.14722
499.05        65.49068
499.49        65.58111
499.93        65.20307
500.37        65.25249
500.82        65.61355
501.26        65.67937
501.70        65.47201
502.14        65.47737
502.58        65.70199
503.02        65.83204
503.46        65.85381
503.90        65.92995
504.34        66.01027
504.78        65.93807
505.22        65.69915
505.66        65.36511
506.10        65.03555
506.54         64.8049
506.98        64.69653
507.42        64.91522
507.86        64.96497
508.30        65.07008
508.74        65.06775
509.18        65.00361
509.62        64.91292
510.06        64.86264
510.50        64.87389
510.94        64.91197
511.38        64.96152
511.82        65.00139
512.26        65.02456
512.70        65.04846
513.14        65.06503
513.58         65.0582
514.02        65.02877
514.46        64.97325
514.90        64.93137
515.34        64.96931
515.78        65.09131
516.22        65.27325
516.66        65.43767
517.10        65.46075
517.54         65.3195
517.98        65.05682
518.42        64.75782
518.86        64.55772
519.30         64.4947
519.74        64.53548
520.18         64.6272
520.62        64.67057
521.06        64.64895
521.50        64.62496
521.93        64.62055
522.37        64.62505
522.81        64.65217
523.25         64.6924
523.69        64.75376
524.13        64.85113
524.57        64.97406
525.01        65.10888
525.45        65.20557
525.89        65.18191
526.32        65.02271
526.76        64.78521
527.20        64.51774
527.64        64.30238
528.08        64.17001
528.52        64.09606
528.96        64.09721
529.40        64.19598
529.83         64.3755
530.27        64.62988
530.71         64.8699
531.15        64.95964
531.59          64.873
532.03        64.64451
532.46        64.35896
532.90        64.20155
533.34        64.20281
533.78        64.27472
534.22        64.35065
534.66        64.40488
535.09        64.36604
535.53        64.12692
535.97        63.76025
536.41        63.54298
536.85        63.51234
537.28        63.52834
537.72        63.58274
538.16        63.71297
538.60        63.89757
539.04        64.12267
539.47        64.31387
539.91        64.39772
540.35        64.34827
540.79        64.19254
541.22        63.99893
541.66        63.90226
542.10        63.92689
542.54         64.0347
542.97        64.16135
543.41        64.23399
543.85        64.22189
544.29        64.16238
544.72        64.07287
545.16        64.01692
545.60        64.00022
546.04        64.00913
546.47        64.04842
546.91        64.13609
547.35        64.26651
547.79        64.38911
548.22        64.46774
548.66        64.55692
549.10        64.64954
549.53         64.4323
549.97        64.01665
550.41        63.70897
550.84        63.60878
551.28        63.73936
551.72        64.00144
552.15        64.13986
552.59        64.14841
553.03        64.02921
553.46        64.15078
553.90        64.13489
554.34        64.08786
554.77        64.03091
555.21        64.00591
555.65        64.06131
556.08        64.18888
556.52        64.33149
556.96        64.41813
557.39        64.50565
557.83        64.52905
558.27        64.15343
558.70        63.53593
559.14        63.30787
559.57        63.47435
560.01        63.66536
560.45        63.80088
560.88        63.92895
561.32         64.0409
561.75        64.13702
562.19        64.22354
562.63        64.10725
563.06        63.87756
563.50        63.96398
563.93        64.24727
564.37         64.3403
564.80        64.24838
565.24        64.07619
565.68        63.73568
566.11        64.35246
566.55        63.63219
566.98        63.49765
567.42         63.4197
567.85        63.50187
568.29        64.04764
568.72        64.41955
569.16        64.78919
569.60         65.0071
570.03        65.09663
570.47        65.46182
570.90        66.21398
571.34        64.87751
571.77        65.35188
572.21        65.98058
572.64        65.49949
573.08        65.81712
573.51        65.01182
573.95        65.20303
574.38        66.01824
574.82        65.92757
575.25        65.40921
575.69        65.41097
576.12        65.58682
576.56        64.83513
576.99        65.02906
577.42        65.56483
577.86        65.51508
578.29        66.51595
578.73        66.47433
579.16        66.25921
579.60         65.4954
580.03        65.40527
580.47        65.12009
580.90        66.37475
581.33        66.51707
581.77        66.28278
582.20        66.80735
582.64        67.04601
583.07        66.45853
583.51         65.8933
583.94        65.38638
584.37        65.33582
584.81        65.79752
585.24        66.05896
585.68        65.97799
586.11        65.97243
586.54        66.22022
586.98        65.22678
587.41        64.53287
587.85        65.32458
588.28        65.12536
588.71        65.08285
589.15        64.56885
589.58        65.15458
590.01          64.478
590.45        64.71731
590.88        65.67804
591.31        65.53141
591.75        64.63139
592.18        64.13783
592.61        64.36306
593.05        64.93921
593.48        65.96611
593.91        65.93845
594.35        65.51416
594.78        64.34941
595.21        64.34212
595.65        64.72678
596.08        65.66636
596.51        65.64932
596.94        64.77643
597.38        64.37959
597.81        64.44881
598.24        65.55717
598.68        65.20611
599.11        64.77606
599.54        65.88701
599.97        65.44682
600.41        65.49426
600.84        64.93685
601.27        65.14388
601.70        65.09633
602.14        64.97202
602.57        64.76912
603.00        64.67113
603.43        64.30305
603.87        65.32135
604.30        65.43044
604.73        65.22709
605.16        64.40792
605.60        64.29385
606.03        64.06577
606.46        64.00652
606.89        64.38669
607.32        64.59854
607.76        64.42994
608.19        64.79337
608.62        64.73684
609.05        64.50626
609.48         64.5489
609.92        65.41965
610.35        64.87274
610.78        64.26165
611.21        64.48875
611.64        64.36069
612.07        64.65645
612.50        64.54037
612.94         64.5338
613.37        64.47673
613.80        64.39201
614.23        63.81531
614.66         63.7447
615.09        64.03069
615.52        64.20648
615.96         64.1608
616.39        64.28311
616.82        64.62723
617.25        63.85124
617.68        64.06755
618.11        64.02309
618.54         64.2579
618.97        64.34358
619.40        64.30819
619.84        63.95711
620.27        64.04799
620.70        63.96656
621.13        63.94113
621.56        63.38594
621.99         62.9493
622.42        62.94628
622.85        63.51993
623.28        63.42267
623.71        63.28411
624.14         63.8572
624.57        63.75093
625.00        63.86374
625.43        63.78466
625.86        63.67798
626.29         63.6164
626.72        63.16384
627.15        63.38476
627.58        63.31032
628.01        63.15044
628.44        63.39312
628.87        63.40926
629.30        62.98109
629.73        62.96432
630.16        63.35164
630.59          63.182
631.02        63.36054
631.45        63.48949
631.88        63.57175
632.31        63.56753
632.74        63.54258
633.17        63.41387
633.60        63.30767
634.03        63.21058
634.46        63.11089
634.89        63.00837
635.32        62.92044
635.75        62.85486
636.18        62.74472
636.61        62.62432
637.04        62.58384
637.47        62.62995
637.89        62.72939
638.32        62.81505
638.75        62.83867
639.18        62.78489
639.61        62.67054
640.04        62.54768
640.47        62.49999
640.90        62.54649
641.33        62.66239
641.76        62.79924
642.18        62.88491
642.61        62.87598
643.04        62.80051
643.47        62.69853
643.90        62.63381
644.33        62.62319
644.76        62.65166
645.18        62.67974
645.61        62.62621
646.04        62.48803
646.47        62.29998
646.90        62.13112
647.33        62.07523
647.75         62.1229
648.18        62.30615
648.61        62.60128
649.04        62.65883
649.47        62.39142
649.89        62.97517
650.32        62.75624
650.75        62.42717
651.18        62.41116
651.61        62.40631
652.03        62.64308
652.46        62.96546
652.89        63.25075
653.32        63.07094
653.74        62.67771
654.17        62.39448
654.60          62.903
655.03        62.95597
655.46        62.42463
655.88        62.52235
656.31        66.81124
656.74        71.26862
657.16        69.70026
657.59        68.08708
658.02        64.87637
658.45        63.85014
658.87        63.42232
659.30        62.73531
659.73        62.68653
660.15        64.07327
660.58        62.85796
661.01        62.88631
661.44        62.85898
661.86        62.54681
662.29        61.95267
662.72        62.23407
663.14         62.1972
663.57        62.21962
664.00        62.02746
664.42        62.14801
664.85        62.57717
665.27        63.01339
665.70        63.30095
666.13        63.39582
666.55        63.27103
666.98        62.86735
667.41        62.30675
667.83        62.20536
668.26        61.97834
668.69        62.09197
669.11        62.29729
669.54        62.49584
669.96        62.64854
670.39        62.78243
670.82        62.90447
671.24        62.99289
671.67        63.04353
672.09         63.0375
672.52        63.00583
672.94        62.96519
673.37        62.93065
673.80         62.8945
674.22        62.86781
674.65        62.83075
675.07        62.79893
675.50        62.76982
675.92        62.74131
676.35        62.69442
676.77        62.63112
677.20        62.55528
677.62         62.4919
678.05        62.48083
678.47        62.52464
678.90        62.61191
679.32         62.7066
679.75        62.76381
680.17        62.76671
680.60         62.7339
681.02        62.68755
681.45        62.65662
681.87        62.66417
682.30        62.69587
682.72        62.76074
683.15         62.8228
683.57        62.89394
684.00        62.98833
684.42        63.10513
684.85        63.23024
685.27        63.34757
685.70         63.4682
686.12        63.55925
686.54        63.58543
686.97        63.53941
687.39        63.44041
687.82        63.31275
688.24        63.21701
688.66        63.16889
689.09        63.15248
689.51        63.16762
689.94        63.19553
690.36        63.20992
690.78        63.22501
691.21        63.24797
691.63        63.29289
692.06        63.36303
692.48         63.4622
692.90        63.54781
693.33        63.54585
693.75        63.44139
694.17        63.24913
694.60        63.07644
695.02        62.97767
695.44        63.15204
695.87        63.41652
696.29        63.68543
696.71        63.55194
697.14        63.14037
697.56        62.95584
697.98         62.9877
698.41        63.49032
698.83        63.14965
699.25        63.35908
699.68        63.63306
700.10        63.72229
700.52        63.56432
700.94        63.26851
701.37        62.97689
701.79        62.88701
702.21        63.04033
702.64        63.35179
703.06        63.70577
703.48        63.89824
703.90        63.87353
704.33        63.70333
704.75        63.46268
705.17        63.26316
705.59        63.15549
706.01         63.1034
706.44        63.12359
706.86        63.26259
707.28        63.49788
707.70        63.80124
708.12        64.11348
708.55        64.30508
708.97        64.46238
709.39        64.32642
709.81        64.01808
710.23        63.84122
710.66        63.84936
711.08        63.92048
711.50        63.97939
711.92        63.97621
712.34        63.89316
712.76        63.76203
713.19        63.62681
713.61        63.59166
714.03        63.66699
714.45        63.82406
714.87          64.028
715.29        64.23043
715.71        64.40552
716.13        64.54781
716.56        64.64187
716.98        64.75276
717.40        64.84926
717.82        64.92049
718.24        64.91624
718.66         64.7588
719.08        64.46069
719.50        64.08135
719.92        63.72625
720.34        63.54893
720.76        63.58334
721.19        63.75828
721.61        64.04824
722.03         64.3577
722.45        64.62975
722.87         64.8743
723.29        65.02177
723.71        64.96464
724.13        64.69887
724.55        64.27168
724.97         63.8282
725.39        63.53232
725.81        63.43075
726.23        63.60945
726.65        64.02534
727.07        63.92964
727.49        64.33441
727.91        64.41859
728.33        64.51958
728.75        64.64646
729.17        64.80901
729.59        64.96119
730.01        65.06178
730.43        65.09145
730.85        65.04233
731.27        64.93095
731.69        64.78596
732.10        64.65154
732.52        64.55293
732.94        64.47028
733.36         64.4142
733.78        64.37067
734.20        64.34641
734.62        64.20597
735.04        64.69826
735.46        64.19603
735.88        64.80098
736.30        64.90604
736.72        65.07537
737.13        65.30085
737.55        65.47874
737.97        65.61717
738.39        65.63865
738.81        65.25021
739.23        64.64015
739.65        64.65035
740.06        65.18176
740.48        65.40943
740.90        65.27208
741.32        65.27374
741.74        65.42979
742.16        65.49892
742.57        65.47511
742.99        65.40956
743.41        65.32207
743.83        65.22594
744.25        65.13142
744.67        65.02335
745.08        64.94106
745.50        64.92365
745.92        64.98454
746.34        65.11272
746.75        65.24664
747.17         65.2706
747.59        65.17365
748.01        64.99586
748.42        64.82327
748.84        64.79921
749.26        64.95988
749.68        65.22135
750.09         65.4931
750.51         65.7393
750.93        65.85053
751.35        65.60439
751.76        65.10026
752.18        64.75567
752.60        64.62539
753.01         64.5238
753.43        64.42987
753.85        64.41805
754.27         64.4892
754.68        64.64214
755.10        64.84666
755.52        65.04533
755.93        65.19975
756.35        65.29382
756.77        65.39989
757.18        65.48607
757.60         65.5483
758.02        65.90405
758.43        66.42109
758.85        65.64557
759.26        65.52027
759.68        64.84847
760.10        64.81841
760.51        65.08185
760.93        65.76431
761.34        65.38744
761.76        65.99245
762.18        65.94007
762.59        65.90672
763.01        65.83722
763.42        65.82661
763.84        65.76675
764.26        65.67749
764.67        65.64331
765.09        65.65896
765.50        65.56625
765.92        65.39722
766.33        65.17662
766.75        64.89555
767.16        64.75343
767.58        64.74942
768.00        64.71352
768.41        64.69835
768.83        65.04117
769.24        65.57173
769.66        65.66755
770.07        65.37345
770.49        65.12983
770.90        65.10249
771.32        65.54621
771.73        66.27817
772.15         66.5321
772.56        66.24796
772.97        65.82979
773.39         65.4614
773.80        65.27671
774.22        65.32283
774.63         65.6126
775.05        65.96416
775.46        66.14539
775.88        66.06393
776.29        65.82095
776.70        65.54804
777.12        65.47888
777.53        65.67471
777.95        66.00739
778.36        66.37723
778.77        66.58516
779.19        66.59014
779.60        66.48576
780.02        66.28504
780.43        66.07452
780.84        65.91525
781.26        65.53189
781.67        65.12145
782.09        65.55095
782.50        66.58469
782.91        66.85808
783.33        66.36012
783.74        66.24461
784.15        66.52803
784.57        66.49759
784.98        66.21572
785.39        66.12847
785.81        66.27205
786.22        66.52307
786.63        66.80634
787.04        67.00206
787.46        67.08757
787.87        67.08636
788.28        67.04982
788.70        67.03425
789.11        67.03542
789.52         67.0561
789.93        67.07679
790.35        67.06042
790.76        67.00966
791.17        66.93288
791.58        66.85709
792.00        66.76133
792.41        66.66537
792.82        66.69185
793.23        66.78644
793.65        66.61345
794.06        66.32845
794.47        66.52621
794.88        67.03036
795.29        67.56388
795.71        67.06499
796.12        66.87347
796.53        66.77406
796.94        66.52982
797.35        66.26064
797.76        66.45978
798.18        67.01147
798.59        67.30553
799.00        67.25108
799.41        67.16267
799.82        67.10964
800.23        67.08033
800.64        67.09554
801.06        67.11134
801.47        67.14057
801.88        67.11951
802.29        67.03606
802.70        66.92524
803.11        66.78495
803.52        66.60457
803.93        66.40862
804.34        66.20937
804.75        66.09523
805.17        66.21831
805.58         66.6274
805.99        67.16811
806.40        67.71392
806.81        68.22807
807.22        68.54851
807.63        68.32684
808.04        67.70783
808.45        67.28709
808.86        67.16515
809.27        67.07892
809.68        66.98482
810.09        66.92195
810.50        66.87978
810.91        66.86198
811.32        66.92327
811.73        67.13918
812.14        67.50528
812.55        67.97691
812.96        68.41899
813.37        68.58899
813.78        68.42336
814.19        68.01495
814.60        67.50212
815.01        67.07279
815.42        66.77776
815.83        66.56261
816.24          66.442
816.65        66.43723
817.05        66.55144
817.46        66.77541
817.87        67.02672
818.28        67.12102
818.69        67.02482
819.10        66.75486
819.51        66.48828
819.92        66.55503
820.33        67.01457
820.74        67.74643
821.14        68.47673
821.55        68.76648
821.96        68.51965
822.37        67.88084
822.78        67.08818
823.19        66.54742
823.60        66.40265
824.00        66.56872
824.41        66.89445
824.82        67.21553
825.23        67.43993
825.64         67.6181
826.04        67.75898
826.45        67.82863
826.86        67.84422
827.27        67.80808
827.68        67.71011
828.08        67.58141
828.49        67.39367
828.90        67.16053
829.31        66.99657
829.72        67.08372
830.12        67.46111
830.53        68.01779
830.94        68.53089
831.35        68.56646
831.75        68.05233
832.16        67.12848
832.57        66.10086
832.97        65.43587
833.38        65.27137
833.79        65.44402
834.20        65.86512
834.60        66.38596
835.01        66.92393
835.42        67.56902
835.82        68.16402
836.23        68.35312
836.64        68.10361
837.04        67.45417
837.45        66.78766
837.86        66.80897
838.26         67.6787
838.67        69.16747
839.08        70.71924
839.48        71.28182
839.89        70.58305
840.29        69.00775
840.70        67.29688
841.11         66.3266
841.51        66.32199
841.92        66.99746
842.33        68.03897
842.73        68.88646
843.14        69.21428
843.54        69.23859
843.95        69.11282
844.35        69.12888
844.76        69.34653
845.17        69.64584
845.57         69.8849
845.98        69.83324
846.38        69.47188
846.79        68.89349
847.19        68.29555
847.60        67.95535
848.00        67.95271
848.41        68.17638
848.81         68.4993
849.22        68.62342
849.62        68.50909
850.03        68.24483
850.43        67.93749
850.84        67.68821
851.24        67.59261
851.65        67.54887
852.05        67.68195
852.46         68.0942
852.86        68.75173
853.27        69.57779
853.67         70.2851
854.07        70.60248
854.48        70.46114
854.88        69.95984
855.29        69.22569
855.69        68.64175
856.10        68.28338
856.50        68.15175
856.90        68.12183
857.31        67.98866
857.71        67.74906
858.12        67.41486
858.52         67.1411
858.92        67.05606
859.33        67.17201
859.73        67.47758
860.13        67.78371
860.54        67.81035
860.94        67.53964
861.34        67.04054
861.75        66.52486
862.15        66.38597
862.55        66.69115
862.96        67.27892
863.36        67.97891
863.76        68.41467
864.17        68.45041
864.57        68.23356
864.97         67.8117
865.38        67.26627
865.78        66.69319
866.18        66.07057
866.58         65.5415
866.99        65.36642
867.39        65.61351
867.79        66.18987
868.19        66.90801
868.60        67.44426
869.00        67.73142
869.40        67.82502
869.80        67.74702
870.21        67.56828
870.61        67.40167
871.01        67.17789
871.41        66.93736
871.81         66.7388
872.22        66.58358
872.62        66.47256
873.02         66.3999
873.42        66.32696
873.82        66.23956
874.22        66.14438
874.63        66.02583
875.03        65.88453
875.43        65.70962
875.83        65.50383
876.23        65.30258
876.63        65.15897
877.03        65.09711
877.44        65.09808
877.84        65.14803
878.24        65.23669
878.64        65.30816
879.04        65.20412
879.44         65.0779
879.84        65.28235
880.24        65.82111
880.64        66.54594
881.04        67.13365
881.44        67.08102
881.84        66.31028
882.24        65.02575
882.65         63.6735
883.05        62.93911
883.45        63.00458
883.85        63.67806
884.25        64.66563
884.65        65.44772
885.05        65.82654
885.45        65.93282
885.85        65.87805
886.25        65.83996
886.65        65.87615
887.05        65.90403
887.45        65.87093
887.85        65.72209
888.25        65.45458
888.65        65.12331
889.04         64.7991
889.44         64.5975
889.84         64.5281
890.24         64.5537
890.64        64.61658
891.04           64.62
891.44         64.5426
891.84        64.43609
892.24        64.31758
892.64         64.2053
893.04        64.12756
893.44        64.08637
893.83        64.16718
894.23        64.45985
894.63        64.97776
895.03        65.64641
895.43        66.34547
895.83        66.88693
896.23        67.18387
896.63        67.25465
897.02         67.0889
897.42        66.71322
897.82        66.18364
898.22        65.56632
898.62        64.94489
899.01        64.42457
899.41        64.06749
899.81        63.84145
900.21        63.81831
900.61        64.09678
901.00        64.64503
901.40        65.39552
901.80        66.10495
902.20        66.38751
902.59        66.17445
902.99        65.57413
903.39        64.82594
903.79        64.33721
904.18        64.22325
904.58        64.36537
904.98         64.6807
905.38         65.0423
905.77        65.39198
906.17        65.80112
906.57        66.14339
906.96        66.20426
907.36        65.93768
907.76        65.38628
908.15        64.84357
908.55        64.76949
908.95        65.25857
909.34        66.19628
909.74        67.15806
910.14        67.52137
910.53        67.11129
910.93         66.1478
911.33        65.00352
911.72        64.24268
912.12        64.07327
912.52         64.3232
912.91        64.73882
913.31        64.95219
913.70        64.87556
914.10        64.60676
914.49         64.4027
914.89        64.60433
915.29        65.29632
915.68        66.32863
916.08        67.33176
916.47        67.77621
916.87        67.54156
917.26         66.7905
917.66        65.89468
918.05        65.26637
918.45        65.03405
918.84        65.12553
919.24        65.35309
919.64        65.52509
920.03        65.58006
920.42        65.54788
920.82        65.57325
921.21        65.81661
921.61        66.27661
922.00        66.90949
922.40         67.4622
922.79        67.65305
923.19        67.38879
923.58        66.81082
923.98        66.16333
924.37        65.73753
924.77        65.63136
925.16        65.72276
925.55        65.95412
925.95        66.19878
926.34        66.39903
926.74        66.56322
927.13        66.60159
927.52        66.30404
927.92        65.71271
928.31        64.90056
928.70        64.08669
929.10        63.58004
929.49        63.44603
929.89        63.55072
930.28        63.91447
930.67        64.44328
931.07        65.03526
931.46        65.78477
931.85        66.39883
932.24        66.45089
932.64        65.93283
933.03         64.9353
933.42        63.98308
933.82         63.8587
934.21        64.70005
934.60          66.312
934.99        68.13577
935.39        69.14465
935.78          69.071
936.17        68.12963
936.56        66.82421
936.96        65.95597
937.35        65.74987
937.74        65.95881
938.13        66.25941
938.53         66.1677
938.92         65.5809
939.31        64.74466
939.70          63.888
940.09        63.29109
940.49        63.00541
940.88        62.93986
941.27          63.088
941.66        63.43705
942.05         63.9416
942.44        64.62426
942.84        65.30659
943.23        65.69157
943.62        65.72659
944.01        65.42908
944.40        65.07282
944.79        65.14637
945.18        65.72901
945.57        66.66055
945.97        67.49274
946.36        67.56349
946.75         66.7002
947.14        65.22964
947.53        63.61423
947.92        62.48693
948.31        62.02987
948.70        62.07113
949.09        62.49319
949.48         63.0859
949.87        63.72405
950.26        64.44266
950.65        65.16139
951.04        65.74464
951.43        66.12764
951.82        66.27349
952.21         66.1822
952.60        65.90571
952.99        65.50835
953.38        65.04552
953.77        64.58794
954.16        64.23136
954.55        63.99888
954.94        63.84163
955.33        63.82556
955.72         64.0377
956.11        64.46044
956.50        65.09097
956.89        65.59249
957.28        65.41137
957.66        64.46709
958.05        62.98083
958.44        61.53111
958.83        60.95842
959.22        61.40678
959.61        62.64698
960.00        64.13082
960.39        64.82677
960.78        64.42193
961.16         63.2426
961.55        61.87946
961.94        61.10373
962.33         61.1258
962.72        61.75551
963.11         62.6764
963.49        63.31838
963.88        63.38551
964.27        63.03471
964.66        62.66994
965.04        62.91576
965.43         63.8337
965.82        65.28732
966.21        66.62979
966.60         66.6579
966.98        65.11052
967.37        62.56761
967.76        60.04632
968.15        58.79885
968.53        59.05172
968.92        60.47901
969.31        62.46517
969.69        63.74834
970.08        63.76971
970.47        62.90427
970.86        61.83525
971.24        61.54099
971.63        62.24323
972.02        63.65947
972.40        65.21471
972.79         65.5782
973.17        64.47949
973.56        62.45055
973.95        60.39549
974.33        59.44702
974.72        59.82193
975.11        61.15892
975.49        62.93183
975.88        64.05219
976.26         64.1449
976.65        63.46826
977.04        62.41874
977.42        61.58248
977.81        61.12474
978.19        60.86274
978.58        60.76264
978.96         60.7411
979.35        60.73941
979.74        60.85212
980.12        61.14519
980.51        61.46367
980.89        61.86865
981.28          62.304
981.66        62.76435
982.05        63.25348
982.43        63.79069
982.82        64.33506
983.20        64.99928
983.59        65.88003
983.97        67.01917
984.35         68.3038
984.74        69.35561
985.12         69.7999
985.51        69.48886
985.89        68.61655
986.28        67.56262
986.66        66.80531
987.04        66.54823
987.43        66.61523
987.81        66.94563
988.20         67.2838
988.58        67.51659
988.96        67.62179
989.35        67.53693
989.73        67.14738
990.12        66.45176
990.50        65.55486
990.88        64.44997
991.27        63.22366
991.65        62.03132
992.03        60.89724
992.42        60.21275
992.80        60.47118
993.18        61.72055
993.56        63.85721
993.95        66.13293
994.33        67.26266
994.71        66.73113
995.10        65.00947
995.48        62.95424
995.86        61.93965
996.24        62.29546
996.63        63.51469
997.01        65.29436
997.39        66.62553
997.77         67.0099
998.15        66.83346
998.54        66.10962
998.92        64.70988
999.30        62.86845
999.68         60.6819
1000.06        58.81492
1000.45         58.1878
1000.83        59.05755
1001.21        61.29095
1001.59         64.3304
1001.97        66.64958
1002.35        67.55558
1002.73         67.4118
1003.12        66.89663
1003.50        66.86282
1003.88        67.64643
1004.26        68.82265
1004.64        70.25177
1005.02        71.61282
1005.40        72.63269
1005.78        73.56895
1006.16        73.89834
1006.54        72.75987
1006.92        70.27895
1007.30        66.86327
1007.69        63.85084
1008.07        62.98547
1008.45        64.75314
1008.83        68.75455
1009.21        73.86482
1009.59        77.17316
1009.97        77.21774
1010.35        74.81583
1010.73        70.97977
1011.11        67.24393
1011.49        64.28006
1011.86        61.73924
1012.24        59.95205
1012.62         59.3222
1013.00        59.81706
1013.38        61.50365
1013.76        63.84768
1014.14        65.32343
1014.52        65.23155
1014.90        63.85222
1015.28        62.02955
1015.66        61.08768
1016.04         61.2863
1016.41        62.18098
1016.79         63.2837
1017.17        63.77734
1017.55        63.40614
1017.93        62.59092
1018.31        61.55964
1018.69        60.51512
1019.06        59.57779
1019.44        58.63342
1019.82        57.98866
1020.20        58.35077
1020.58        59.74813
1020.95        61.64322
1021.33        63.52684
1021.71        64.78895
1022.09        65.39947
1022.46        65.72861
1022.84        65.36551
1023.22        63.70812
1023.60        60.93668
1023.97        57.29361
1024.35        54.53336
1024.73        54.45523
