SpectraSmart Spectrum 2.9.0.0
--------- Device Information -----------
Spectrum Name :  反射率_0
Saving Time :  2024/04/27 00:42:37
Spectro-Module Model Name : SE2030-DUVN
Spectro-Module Serial Number : OS361AC55029948
Wavelength Start : 200
Wavelength End : 1025
Wavelength Unit : Wavelength(nm)
Spectrum Unit : Reflectance(%)
-----------Spectrum Setting ------------
Integration Time : 20ms
Average : 10
Boxcar : 0
Background removal :  enabled
linearity correction :  enabled
SC :  disabled
Intensity correction :  disabled
DWT denoise :  enabled
savitzky-golay :  disabled
FFT :  disabled
Running average :  disabled
Kalman :  disabled
High pass :  disabled
---------------BEGIN--------------------
Wavelength(nm)             Reflectance(%)
200.29               0
200.75        47.85484
201.21        42.20947
201.67        36.46271
202.13        32.21863
202.58        29.32046
203.04        27.33804
203.50        26.44169
203.96        27.23931
204.42        30.01435
204.88        34.62596
205.34        39.96964
205.80        43.82198
206.26        45.17049
206.72        44.37008
207.18        41.93363
207.64        38.05766
208.10         32.4902
208.55        24.25513
209.01        13.66364
209.47        8.493399
209.93        12.90154
210.39        21.76473
210.85        29.75916
211.31        35.41644
211.77        40.50272
212.23         48.0038
212.69        64.96708
213.14        99.37926
213.60        108.4229
214.06        91.78821
214.52        76.86901
214.98        67.75044
215.44        60.80787
215.90        53.26881
216.36        46.12202
216.81        41.22336
217.27        39.36476
217.73        41.26342
218.19        44.52068
218.65        40.80251
219.11          30.496
219.57        20.27521
220.02         15.5597
220.48        18.80315
220.94        29.97676
221.40        51.16904
221.86        81.52343
222.32        100.6587
222.77        91.78615
223.23        68.32848
223.69        46.63246
224.15        36.14339
224.61         34.4264
225.06        36.44642
225.52        39.46735
225.98         40.8635
226.44        40.34298
226.90        39.14335
227.36        37.56063
227.81        35.93742
228.27        34.66249
228.73        33.36631
229.19        32.48874
229.65        32.63166
230.10        33.69515
230.56        35.54564
231.02        37.26551
231.48         37.3528
231.93        35.67157
232.39        33.08316
232.85        30.69894
233.31        30.00299
233.77        31.09067
234.22        33.40787
234.68        36.10498
235.14        37.96566
235.60        38.60396
236.05        38.42243
236.51        37.67207
236.97        36.87811
237.43        36.39896
237.88        36.12601
238.34        36.29942
238.80        37.57485
239.26        40.27524
239.71        44.95905
240.17        51.38807
240.63        58.13725
241.08        63.98442
241.54        68.15584
242.00        71.42529
242.46        76.64145
242.91        86.31155
243.37        101.1317
243.83        121.8855
244.28        140.8812
244.74        144.3438
245.20        131.2392
245.66        111.8986
246.11         95.3562
246.57        82.89384
247.03        72.51471
247.48        63.45893
247.94        56.31895
248.40        52.38709
248.85        51.03151
249.31        51.76699
249.77         54.1412
250.22        57.92843
250.68        63.25565
251.14        69.66461
251.59        74.05285
252.05        74.31477
252.51        72.10806
252.96        67.64599
253.42        61.68706
253.88        55.27062
254.33        48.75055
254.79        45.18263
255.25        46.97086
255.70         53.3708
256.16        62.97373
256.62        71.69872
257.07        73.27882
257.53        68.97874
257.99        62.59797
258.44        57.13059
258.90        55.18181
259.35        55.67097
259.81        57.51225
260.27        59.27909
260.72         59.3321
261.18        57.85349
261.63        55.44101
262.09        53.16752
262.55        51.63416
263.00        50.75317
263.46        50.32561
263.91        49.78844
264.37        48.74343
264.83        47.16666
265.28        45.28362
265.74         43.6078
266.19        42.47883
266.65        41.97584
267.11        41.84767
267.56         41.8128
268.02        41.44089
268.47        40.62792
268.93        39.55091
269.38        38.36012
269.84        37.33089
270.30        36.52295
270.75        35.82862
271.21        35.23204
271.66        34.66423
272.12        34.09401
272.57        33.53024
273.03        32.92026
273.48        32.16712
273.94        31.31566
274.39        30.37768
274.85        29.49641
275.31        28.75192
275.76         28.1401
276.22        27.65508
276.67        27.22565
277.13        26.81846
277.58        26.37486
278.04        25.92721
278.49        25.43134
278.95        24.92212
279.40        24.37183
279.86         23.8397
280.31        23.29578
280.77        22.78162
281.22        22.28156
281.68        21.83352
282.13        21.44951
282.59        21.20494
283.04        21.07512
283.50        21.04739
283.95        21.04777
284.41        20.96544
284.86        20.78011
285.32        20.54822
285.77        20.32637
286.22        20.24365
286.68        20.31742
287.13        20.47092
287.59        20.66075
288.04        20.78407
288.50        20.82998
288.95        20.81484
289.41        20.75887
289.86        20.63835
290.32        20.49625
290.77        20.33355
291.22        20.22566
291.68        20.27673
292.13        20.49518
292.59        20.86323
293.04        21.32136
293.50        21.78382
293.95        22.21981
294.40        22.66943
294.86        23.15091
295.31        23.68631
295.77        24.29724
296.22        24.96188
296.68        25.71914
297.13        26.62299
297.58        27.67277
298.04        28.84151
298.49        30.04843
298.95        31.17698
299.40        32.19071
299.85        33.13402
300.31        34.05058
300.76        35.00302
301.21         36.0218
301.67        37.09645
302.12        38.23259
302.58        39.49786
303.03        40.85983
303.48        42.32754
303.94        43.82955
304.39        45.21264
304.84        46.47943
305.30        47.68647
305.75        48.91872
306.20        50.37397
306.66        52.08615
307.11         53.9563
307.57        55.86432
308.02        57.55448
308.47        58.99546
308.93        60.27351
309.38        61.50022
309.83        62.93534
310.29        64.63595
310.74        66.50887
311.19        68.40643
311.65        70.06069
312.10        71.37502
312.55        72.42374
313.00        73.34322
313.46         74.3609
313.91        75.52666
314.36        76.79206
314.82        78.06513
315.27        79.20724
315.72        80.14938
316.18        80.95003
316.63        81.63905
317.08        82.30807
317.53         82.9899
317.99        83.64639
318.44         84.2611
318.89        84.78355
319.35        85.19868
319.80        85.53422
320.25        85.81902
320.70        86.09758
321.16        86.38488
321.61        86.70424
322.06        87.02897
322.51        87.32057
322.97        87.55719
323.42        87.75153
323.87        87.96459
324.32        88.31563
324.78        88.79036
325.23        89.41496
325.68        89.98856
326.13        90.19258
326.59        89.96579
327.04        89.43237
327.49         88.8661
327.94        88.72755
328.39        89.12439
328.85        89.89521
329.30        90.87034
329.75        91.52409
330.20        91.68369
330.66        91.47136
331.11        91.13417
331.56          91.008
332.01        91.20644
332.46        91.60983
332.92        92.05406
333.37        92.40648
333.82        92.55985
334.27        92.61287
334.72        92.64117
335.17        92.74414
335.63        92.95953
336.08        93.30298
336.53        93.77088
336.98        94.40076
337.43        95.17824
337.88        96.06088
338.34        96.97431
338.79        97.89684
339.24        98.73067
339.69         99.4612
340.14        99.98611
340.59        100.1656
341.05        100.0325
341.50        99.65918
341.95        99.25579
342.40        99.13763
342.85        99.39344
343.30        99.94057
343.75        100.6793
344.20        101.4261
344.66        102.0925
345.11        102.7062
345.56        103.2111
346.01        103.5299
346.46        103.6708
346.91        103.6612
347.36        103.5871
347.81        103.6059
348.26         103.753
348.72        103.9724
349.17         104.248
349.62        104.5797
350.07        104.9377
350.52        105.3432
350.97        105.6254
351.42        105.5093
351.87        104.9786
352.32        104.1299
352.77        103.2933
353.22         102.957
353.67        103.2036
354.13        103.8815
354.58        104.6614
355.03        104.9531
355.48        104.5976
355.93        103.7694
356.38        102.7978
356.83        102.1796
357.28        102.0206
357.73        102.1492
358.18        102.2954
358.63        102.0349
359.08        101.2727
359.53        100.1799
359.98        98.99498
360.43        98.04922
360.88        97.41886
361.33        96.98846
361.78        96.61607
362.23        96.08642
362.68        95.35174
363.13         94.5102
363.58         93.6478
364.03        92.88004
364.48        92.23699
364.93        91.65885
365.38        91.13667
365.83        90.67123
366.28         90.2462
366.73        89.86665
367.18        89.46106
367.63        88.90919
368.08        88.19659
368.53          87.363
368.98        86.51004
369.43        85.80316
369.88        85.28245
370.33        84.89672
370.78        84.57252
371.23        84.18834
371.68        83.70231
372.13        83.14931
372.58        82.55787
373.03        81.96973
373.48        81.39799
373.93        80.82227
374.38        80.23451
374.83        79.63385
375.28        79.02361
375.72        78.39664
376.17        77.80981
376.62        77.24681
377.07        76.71814
377.52         76.2458
377.97        75.81668
378.42        75.42082
378.87        75.05664
379.32        74.69433
379.77        74.40448
380.22        74.29264
380.67        74.34238
381.11        74.53703
381.56        74.61729
382.01        74.23704
382.46        73.37494
382.91        72.21488
383.36        71.08286
383.81        70.41956
384.26        70.29572
384.71        70.55279
385.15         71.0155
385.60         71.3684
386.05        71.48431
386.50        71.43853
386.95        71.21405
387.40        70.79669
387.85        70.23084
388.29         69.4944
388.74        68.79512
389.19        68.24719
389.64        67.87466
390.09        67.64184
390.54        67.48907
390.98        67.29355
391.43        67.05749
391.88        66.80598
392.33        66.56464
392.78         66.3513
393.23        66.16498
393.67        66.00596
394.12        65.91203
394.57        65.70014
395.02        65.39799
395.47        65.30862
395.91        65.24908
396.36        65.13439
396.81        64.92695
397.26        64.76315
397.71        64.61902
398.15        64.42378
398.60        64.25845
399.05        63.95735
399.50        63.60529
399.95         63.6558
400.39        63.99046
400.84        63.74046
401.29        62.97947
401.74        62.67922
402.18        62.81194
402.63        62.48355
403.08        61.81102
403.53        61.54341
403.97        61.71301
404.42        61.98159
404.87        62.18965
405.32        62.19792
405.76        61.95077
406.21        61.52542
406.66        61.06133
407.11        60.80691
407.55        60.83778
408.00        60.98659
408.45        61.16489
408.90        61.35577
409.34        61.41241
409.79        61.03595
410.24        60.40032
410.68          60.052
411.13        60.05917
411.58        60.14893
412.03        60.23145
412.47        60.26775
412.92        60.20086
413.37        60.07443
413.81        59.94236
414.26        59.93906
414.71        60.06489
415.15        60.29993
415.60        60.55662
416.05        60.75219
416.49        60.85548
416.94        60.88185
417.39        60.87059
417.83        60.86945
418.28        60.90118
418.73        60.95159
419.17        61.00911
419.62        61.05914
420.07        61.08193
420.51        61.05916
420.96        61.03199
421.41        60.96874
421.85        60.84553
422.30        60.86196
422.74        60.89553
423.19        60.57002
423.64         59.9957
424.08        59.87467
424.53        60.20436
424.98         60.4116
425.42        60.46426
425.87        60.73301
426.31        61.12143
426.76        61.14487
427.21        60.85114
427.65        60.63885
428.10         60.5434
428.54        60.52568
428.99        60.64925
429.44        60.54732
429.88        60.40167
430.33        61.26206
430.77        62.61604
431.22        62.90393
431.66        62.13426
432.11         61.3004
432.56        60.80061
433.00        60.84421
433.45         61.4871
433.89        62.25686
434.34         62.8606
434.78        62.95218
435.23        62.10531
435.67        60.20317
436.12         61.0908
436.57        61.40604
437.01        62.01126
437.46        62.31834
437.90        62.30523
438.35        61.77553
438.79        61.76965
439.24        61.80595
439.68         62.1053
440.13        62.33343
440.57        62.49796
441.02        62.69689
441.46        62.87725
441.91         63.2868
442.35        63.68411
442.80        63.41731
443.24        62.67067
443.69        62.65002
444.13        63.28614
444.58        63.53479
445.02        63.36006
445.47        63.38786
445.91        63.63927
446.36         63.8592
446.80        64.02135
447.24        64.21772
447.69        64.44091
448.13        64.49073
448.58         64.6424
449.02        64.66233
449.47        64.64564
449.91        64.58354
450.36        64.50814
450.80        64.40738
451.25         64.3228
451.69        64.26871
452.13        64.26678
452.58        64.30912
453.02        64.37799
453.47        64.44896
453.91         64.4912
454.36        64.50864
454.80        64.49831
455.24        64.33253
455.69        64.00325
456.13        63.81493
456.58        63.82193
457.02        62.98751
457.46        62.48643
457.91        62.62874
458.35         63.3741
458.79        63.48442
459.24        62.97075
459.68        62.21836
460.13        61.39722
460.57        61.69562
461.01        61.51175
461.46        61.53849
461.90        61.61837
462.34        62.68267
462.79        62.23168
463.23        62.41247
463.68        62.40031
464.12        62.18672
464.56        61.77261
465.01           61.17
465.45        60.51709
465.89        60.38057
466.34         60.6467
466.78        60.60825
467.22        60.27125
467.67        60.10191
468.11        60.16604
468.55        60.23283
468.99        60.24701
469.44        60.15547
469.88        59.96021
470.32        59.73202
470.77        59.52128
471.21        59.37601
471.65        59.30216
472.10        59.28143
472.54        59.31456
472.98        59.35383
473.42        59.36517
473.87        59.54513
474.31         59.7352
474.75         59.3391
475.20        58.56264
475.64        58.36544
476.08        58.73393
476.52        58.72386
476.97        58.27906
477.41         58.1866
477.85        58.56404
478.29        57.95464
478.74        58.29655
479.18        58.62257
479.62        58.46181
480.06        58.48036
480.50        58.33459
480.95        58.38181
481.39        58.65654
481.83        57.83899
482.27        58.16279
482.72        58.28937
483.16        58.07188
483.60        58.09953
484.04        58.11438
484.48        58.35068
484.93        58.64285
485.37        58.29289
485.81        57.54114
486.25        57.61026
486.69        59.47118
487.14        59.79539
487.58        57.72456
488.02        58.53155
488.46        57.66311
488.90        57.30294
489.34        58.09016
489.79         58.8704
490.23        58.43275
490.67        58.01624
491.11        57.40509
491.55        57.22338
491.99        57.42073
492.43        57.33848
492.88        56.99155
493.32        56.88412
493.76        57.02694
494.20        57.13879
494.64        57.18876
495.08        57.26939
495.52        57.35326
495.96        57.34487
496.41        57.25168
496.85        57.21879
497.29        57.15305
497.73        57.11003
498.17        56.44274
498.61        56.36493
499.05        56.62315
499.49        56.80842
499.93        56.66602
500.37        56.61678
500.82        56.62815
501.26        56.67082
501.70        56.74888
502.14        56.82552
502.58        56.88176
503.02        56.96443
503.46        57.08159
503.90        56.94467
504.34        57.05048
504.78        56.94785
505.22        56.78246
505.66        56.59501
506.10        56.46155
506.54        56.35824
506.98        56.26701
507.42        56.69764
507.86        56.65756
508.30        56.76328
508.74        56.71094
509.18        56.56243
509.62        56.36744
510.06        56.22702
510.50        56.17919
510.94        56.18307
511.38        56.22176
511.82         56.2662
512.26        56.30346
512.70        56.34929
513.14        56.38878
513.58        56.40386
514.02        56.39396
514.46         56.3391
514.90        56.26812
515.34        56.32561
515.78        56.37038
516.22        56.49699
516.66        56.60946
517.10        56.62639
517.54        56.53154
517.98        56.36298
518.42        56.16697
518.86        56.01262
519.30        55.92687
519.74        55.88947
520.18        55.90216
520.62        55.96533
521.06        56.07004
521.50        56.21853
521.93         56.3742
522.37        56.45655
522.81        56.45553
523.25        56.38337
523.69        56.29076
524.13        56.26392
524.57        56.31662
525.01        56.41534
525.45        56.50927
525.89        56.51542
526.32        56.41001
526.76        56.24541
527.20        56.04918
527.64        55.86714
528.08        55.72208
528.52        55.60078
528.96        55.52845
529.40        55.54348
529.83         55.6414
530.27         55.8154
530.71         55.9964
531.15         56.0795
531.59        56.03888
532.03        55.89345
532.46        55.70281
532.90        55.60438
533.34        55.61729
533.78        55.67635
534.22         55.7132
534.66        55.69059
535.09        55.55322
535.53        55.21553
535.97         54.7896
536.41        54.58933
536.85        54.65686
537.28        54.84756
537.72        55.08679
538.16        55.29632
538.60        55.42908
539.04        55.50317
539.47        55.51431
539.91        55.49341
540.35        55.44234
540.79        55.35763
541.22        55.25227
541.66         55.1709
542.10        55.11921
542.54        55.09139
542.97         55.0812
543.41        55.09764
543.85        55.12937
544.29         55.1844
544.72         55.2251
545.16        55.22721
545.60        55.17724
546.04         55.0874
546.47        55.01415
546.91        55.04578
547.35        55.18953
547.79        55.41275
548.22        55.63346
548.66        55.71171
549.10        55.68401
549.53        55.57012
549.97        55.42255
550.41        55.20715
550.84        55.01473
551.28        54.97416
551.72         55.0413
552.15        55.17065
552.59        55.38164
553.03        54.97574
553.46        55.61116
553.90         55.5041
554.34         55.0638
554.77        55.60145
555.21        55.11629
555.65        55.00193
556.08        55.26941
556.52        55.39563
556.96        55.48792
557.39        55.55943
557.83        55.58092
558.27        55.33038
558.70        54.88128
559.14         54.5922
559.57        54.50923
560.01        54.49013
560.45        54.54032
560.88        54.77266
561.32        55.10319
561.75        55.29997
562.19        55.33939
562.63        55.14658
563.06        54.85162
563.50        54.92864
563.93        55.25263
564.37        55.32415
564.80        55.14636
565.24        54.92574
565.68        54.61676
566.11         55.1693
566.55        54.61361
566.98        54.61394
567.42         54.6515
567.85        54.76151
568.29        54.93666
568.72        55.24369
569.16        55.71056
569.60        55.79307
570.03        55.62598
570.47         55.9582
570.90        56.15876
571.34        55.20924
571.77        55.92871
572.21        56.11405
572.64        56.01415
573.08        56.31855
573.51        55.63348
573.95        55.65317
574.38        56.06787
574.82        56.42379
575.25         56.0508
575.69        56.09278
576.12        56.28669
576.56        55.45695
576.99        55.75957
577.42        55.52175
577.86        55.72327
578.29        56.59244
578.73        56.64194
579.16        56.44448
579.60        55.62993
580.03        55.55582
580.47        55.51682
580.90        56.38219
581.33        56.45463
581.77        56.54045
582.20        56.73359
582.64        57.02394
583.07        56.28651
583.51         55.9109
583.94        55.76233
584.37         55.7453
584.81         55.8917
585.24        55.95865
585.68        55.87521
586.11        55.97396
586.54        56.28188
586.98        55.43806
587.41        55.17714
587.85        55.90203
588.28        55.60258
588.71         55.3723
589.15         55.1633
589.58        55.51042
590.01        54.84415
590.45        55.12203
590.88        55.67004
591.31        55.58625
591.75        54.97202
592.18          54.577
592.61        54.62819
593.05        55.21176
593.48        56.36272
593.91        56.03336
594.35        55.62559
594.78        54.90534
595.21        54.46404
595.65        54.75939
596.08        55.75377
596.51        55.68461
596.94        55.10667
597.38        54.80966
597.81        54.96609
598.24        55.49435
598.68        55.07753
599.11        54.84134
599.54        56.24033
599.97        55.68962
600.41        55.48634
600.84        54.93039
601.27        55.36763
601.70        55.22229
602.14        55.18512
602.57        55.07741
603.00        55.17816
603.43        54.60558
603.87        55.45552
604.30        55.43053
604.73        55.15993
605.16        54.93679
605.60        54.77549
606.03        54.65451
606.46        54.61795
606.89        54.21664
607.32        55.09535
607.76        54.66343
608.19        54.91067
608.62        54.80512
609.05        54.79237
609.48        54.65559
609.92        55.06521
610.35        54.98943
610.78        54.61697
611.21        54.37128
611.64        54.58295
612.07        54.70543
612.50        54.53407
612.94        54.52993
613.37        54.60175
613.80        54.48354
614.23        54.14532
614.66          54.155
615.09        54.48266
615.52        54.59758
615.96        54.40776
616.39        54.68405
616.82         54.7118
617.25        54.26893
617.68        54.25227
618.11        54.26856
618.54        54.56693
618.97        54.55916
619.40        54.25628
619.84        54.26853
620.27        54.08742
620.70        54.09378
621.13        54.15819
621.56        53.52243
621.99        53.46752
622.42        53.33786
622.85        53.53429
623.28         53.4234
623.71        53.38609
624.14         53.6908
624.57        53.86837
625.00        53.73352
625.43        53.81499
625.86        53.64785
626.29        53.50067
626.72        53.27814
627.15        53.36535
627.58        53.42785
628.01        53.47489
628.44        53.59555
628.87        53.41061
629.30        53.22848
629.73        53.21354
630.16        53.26364
630.59        53.27463
631.02        53.42066
631.45        53.60596
631.88        53.72403
632.31        53.74324
632.74        53.69613
633.17        53.59903
633.60        53.47715
634.03        53.34871
634.46         53.2039
634.89        53.05737
635.32        52.94701
635.75        52.88446
636.18        52.80976
636.61        52.73799
637.04        52.72181
637.47         52.7607
637.89        52.83223
638.32        52.89072
638.75        52.91462
639.18        52.89344
639.61        52.83046
640.04        52.75819
640.47        52.73057
640.90        52.75996
641.33        52.83536
641.76        52.91776
642.18        52.94823
642.61        52.89737
643.04           52.79
643.47        52.67804
643.90        52.64663
644.33        52.70808
644.76        52.82872
645.18        52.95026
645.61        52.96354
646.04        52.85865
646.47        52.68661
646.90         52.4917
647.33        52.36164
647.75        52.30421
648.18        52.25667
648.61        52.27744
649.04        52.43305
649.47        52.57004
649.89        53.13754
650.32        52.70051
650.75        52.50858
651.18        52.28525
651.61        52.33188
652.03         52.6232
652.46        52.83992
652.89        52.92832
653.32        52.88174
653.74        52.81573
654.17        52.65986
654.60        52.81864
655.03        52.53239
655.46        52.67324
655.88        52.44909
656.31        55.83938
656.74         58.7435
657.16        57.45898
657.59        56.53088
658.02        54.26141
658.45        53.75473
658.87        52.82809
659.30         53.0697
659.73        52.72381
660.15        53.61287
660.58        52.91459
661.01        52.78334
661.44        52.57502
661.86        52.38736
662.29        52.18727
662.72        52.46103
663.14        52.20655
663.57        52.15851
664.00        52.09916
664.42        52.22432
664.85        52.53217
665.27         52.8988
665.70        53.18835
666.13        53.29386
666.55        53.18619
666.98        52.83552
667.41        52.34249
667.83        52.22152
668.26        51.98382
668.69        52.01894
669.11        52.13075
669.54        52.26046
669.96         52.3801
670.39         52.5073
670.82        52.63166
671.24        52.70751
671.67        52.72467
672.09        52.67529
672.52         52.6024
672.94        52.54617
673.37         52.5247
673.80        52.52384
674.22        52.53643
674.65        52.51762
675.07        52.47166
675.50        52.41092
675.92        52.35395
676.35        52.29578
676.77        52.23912
677.20        52.26455
677.62         52.2215
678.05        52.23286
678.47        52.25038
678.90        52.28311
679.32        52.31551
679.75        52.33617
680.17        52.33848
680.60        52.32261
681.02        52.30923
681.45        52.32398
681.87        52.38093
682.30        52.47706
682.72        52.58703
683.15        52.61196
683.57        52.56255
684.00         52.5004
684.42        52.47709
684.85        52.53182
685.27        52.66592
685.70        52.88236
686.12         53.0952
686.54        53.17162
686.97        53.08282
687.39        52.87674
687.82         52.6237
688.24        52.45455
688.66        52.40695
689.09        52.44422
689.51        52.53257
689.94        52.59502
690.36        52.61373
690.78        52.58499
691.21        52.54545
691.63        52.57925
692.06        52.68171
692.48        52.76201
692.90        52.77805
693.33        52.74391
693.75        52.65022
694.17        52.44653
694.60         52.2354
695.02        52.19672
695.44        52.33327
695.87        52.63922
696.29        52.97634
696.71        52.85137
697.14        52.36863
697.56        52.23337
697.98        52.46809
698.41        52.54465
698.83        52.45401
699.25        52.55915
699.68        52.78088
700.10        52.85635
700.52        52.74003
700.94        52.51775
701.37         52.2977
701.79        52.25949
702.21        52.43198
702.64        52.73767
703.06        53.06368
703.48        53.21653
703.90        53.14518
704.33        52.91565
704.75        52.61277
705.17         52.3656
705.59        52.22879
706.01        52.16709
706.44        52.17519
706.86        52.27034
707.28        52.43026
707.70        52.61488
708.12        52.79783
708.55        53.00505
708.97        53.18165
709.39        53.14056
709.81        52.92371
710.23        52.80428
710.66        52.81752
711.08        52.83649
711.50        52.83048
711.92        52.82113
712.34        52.80408
712.76         52.7882
713.19        52.76884
713.61        52.76503
714.03        52.76996
714.45        52.78107
714.87        52.82084
715.29        52.92645
715.71        53.09438
716.13        53.30122
716.56        53.48209
716.98        53.59958
717.40        53.60598
717.82         53.5223
718.24        53.37071
718.66        53.18855
719.08        53.00674
719.50        52.83464
719.92        52.70059
720.34        52.64207
720.76        52.66311
721.19        52.73606
721.61        52.86822
722.03        53.02843
722.45        53.19096
722.87        53.34911
723.29        53.45102
723.71        53.41882
724.13        53.24824
724.55        52.97261
724.97        52.67228
725.39         52.4857
725.81        52.45392
726.23        52.52395
726.65        52.65134
727.07        52.87744
727.49        52.98223
727.91         53.1334
728.33        53.27024
728.75         53.3907
729.17          53.488
729.59        53.55098
730.01        53.57822
730.43        53.57449
730.85        53.54499
731.27        53.48678
731.69        53.40197
732.10        53.34148
732.52        53.32026
732.94        53.25187
733.36        53.11848
733.78        53.29686
734.20        52.96589
734.62        52.99297
735.04        53.21469
735.46        52.78812
735.88        53.27938
736.30        53.38891
736.72        53.56795
737.13        53.76701
737.55        53.90759
737.97        54.00585
738.39        54.00465
738.81        53.70776
739.23        53.24081
739.65        53.15994
740.06         53.4205
740.48        53.52395
740.90        53.43203
741.32        53.46123
741.74        53.62421
742.16        53.76427
742.57        53.86721
742.99        53.95926
743.41        54.01161
743.83        53.96848
744.25        53.82927
744.67        53.60137
745.08        53.37719
745.50        53.29059
745.92        53.37859
746.34        53.60229
746.75        53.85723
747.17        53.96011
747.59        53.87626
748.01        53.66048
748.42        53.41658
748.84        53.32768
749.26        53.43484
749.68        53.62526
750.09        53.81662
750.51         53.9921
750.93        54.06126
751.35           53.84
751.76        53.41578
752.18        53.13854
752.60        53.05131
753.01        52.99634
753.43        52.94365
753.85        52.93215
754.27        52.95896
754.68        53.03592
755.10        53.14352
755.52        53.24053
755.93        53.29867
756.35         53.3079
756.77        53.35542
757.18        53.40734
757.60         53.4472
758.02         53.8636
758.43        54.52195
758.85         53.7219
759.26        53.46076
759.68         53.1659
760.10        53.40557
760.51        53.71827
760.93        54.00086
761.34        53.65897
761.76         53.6923
762.18        53.54466
762.59        53.58063
763.01        53.67637
763.42        53.86243
763.84        54.00397
764.26        54.08241
764.67        54.20484
765.09        54.33335
765.50        54.20233
765.92        53.88661
766.33        53.61865
766.75        53.42561
767.16        53.31384
767.58        53.27527
768.00        53.37949
768.41        53.58677
768.83        53.72966
769.24        53.75201
769.66        53.74059
770.07        53.69378
770.49        53.45263
770.90        53.15194
771.32        53.32587
771.73        53.87393
772.15        54.07731
772.56        53.89318
772.97        53.68014
773.39        53.55234
773.80        53.54976
774.22        53.68589
774.63        53.97944
775.05        54.27175
775.46        54.36865
775.88        54.20129
776.29        53.85342
776.70        53.47484
777.12        53.32634
777.53        53.47741
777.95        53.81702
778.36        54.22036
778.77        54.44801
779.19         54.4436
779.60         54.2998
780.02         54.0751
780.43        53.91527
780.84        53.87994
781.26        53.72889
781.67        53.55232
782.09        53.91379
782.50        54.61232
782.91        54.64395
783.33        54.05898
783.74        53.83747
784.15          54.021
784.57        54.03642
784.98         53.8936
785.39        53.86341
785.81        53.95947
786.22        54.12485
786.63        54.31321
787.04        54.44737
787.46        54.50577
787.87        54.47877
788.28        54.44516
788.70        54.45294
789.11        54.48286
789.52        54.71591
789.93        55.01078
790.35        54.68678
790.76        53.93211
791.17        53.82452
791.58        54.32327
792.00        54.43404
792.41        54.12924
792.82        54.03237
793.23        54.17873
793.65         54.2043
794.06        54.16881
794.47        54.43657
794.88        54.86951
795.29        55.00301
795.71        54.77761
796.12        54.43111
796.53        54.09149
796.94        53.92159
797.35        53.99416
797.76        54.27045
798.18        54.61296
798.59        54.82971
799.00         54.8431
799.41        54.70951
799.82        54.52745
800.23        54.46269
800.64        54.55288
801.06        54.71142
801.47        54.88995
801.88        54.93588
802.29         54.8125
802.70        54.58428
803.11        54.31062
803.52        54.08068
803.93        53.94079
804.34        53.86635
804.75        53.88399
805.17        54.04689
805.58        54.37384
805.99        54.75548
806.40        55.10292
806.81        55.44111
807.22        55.63975
807.63        55.33312
808.04        54.68629
808.45        54.32878
808.86        54.35423
809.27        54.48404
809.68        54.61423
810.09        54.67403
810.50        54.61731
810.91        54.47357
811.32        54.34092
811.73        54.36889
812.14        54.58653
812.55        54.94025
812.96        55.30737
813.37        55.46558
813.78        55.35006
814.19         55.0416
814.60         54.6638
815.01        54.38295
815.42        54.24026
815.83        54.18784
816.24        54.19198
816.65        54.18968
817.05        54.16587
817.46        54.13458
817.87        54.11664
818.28        54.09729
818.69        54.07452
819.10        54.02654
819.51        54.00546
819.92        54.10864
820.33        54.34479
820.74         54.6876
821.14         55.0017
821.55        55.06981
821.96        54.85396
822.37        54.41246
822.78        53.93372
823.19        53.74002
823.60        53.91792
824.00        54.40159
824.41        54.95278
824.82        55.23568
825.23        55.14236
825.64        54.77211
826.04        54.31898
826.45        54.06881
826.86        54.11666
827.27        54.38054
827.68        54.71036
828.08        54.87817
828.49        54.77339
828.90        54.48751
829.31        54.18029
829.72          54.105
830.12        54.34436
830.53         54.7778
830.94        55.22651
831.35        55.35336
831.75        55.08807
832.16        54.52316
832.57        53.90514
832.97        53.60294
833.38        53.70436
833.79        54.07135
834.20        54.53459
834.60        54.82722
835.01        54.87479
835.42        54.80278
835.82        54.66372
836.23        54.48476
836.64        54.32941
837.04        54.15017
837.45        54.08028
837.86        54.39382
838.26        55.12829
838.67        56.16889
839.08        57.16761
839.48        57.46223
839.89        56.89595
840.29        55.71045
840.70        54.42598
841.11        53.64548
841.51        53.52904
841.92        53.88674
842.33        54.53431
842.73        55.13559
843.14        55.46294
843.54        55.65261
843.95        55.74458
844.35        55.84695
844.76        55.96986
845.17        56.04324
845.57         56.0255
845.98        55.85135
846.38        55.53813
846.79        55.13367
847.19        54.71215
847.60        54.36089
848.00        54.12531
848.41        53.97177
848.81        53.92232
849.22        53.93806
849.62        54.03276
850.03        54.20494
850.43        54.41327
850.84         54.5407
851.24        54.59119
851.65         54.5235
852.05         54.4828
852.46        54.64845
852.86        55.03905
853.27        55.57564
853.67         56.0139
854.07        56.10363
854.48        55.79331
854.88        55.19107
855.29        54.45536
855.69        53.97619
856.10         53.8381
856.50        54.00546
856.90        54.31903
857.31        54.51668
857.71        54.55271
858.12        54.44408
858.52        54.31145
858.92        54.26281
859.33        54.31869
859.73        54.47043
860.13        54.59202
860.54        54.50826
860.94        54.22268
861.34        53.78478
861.75        53.36702
862.15        53.27588
862.55        53.55907
862.96        54.09818
863.36        54.71627
863.76        55.04785
864.17        54.97052
864.57        54.61364
864.97        54.09324
865.38        53.60155
865.78        53.24009
866.18        52.96022
866.58        52.76964
866.99        52.68391
867.39        52.71646
867.79        52.86963
868.19        53.12811
868.60        53.43677
869.00        53.78745
869.40        54.14936
869.80        54.46246
870.21        54.62054
870.61        54.64037
871.01        54.52781
871.41        54.30053
871.81         53.9852
872.22          53.607
872.62        53.15656
873.02        52.77506
873.42        52.69043
873.82        52.94268
874.22         53.4709
874.63        54.02271
875.03        54.21217
875.43        53.94064
875.83        53.31468
876.23         52.6101
876.63        52.26363
877.03        52.38375
877.44        52.82503
877.84        53.34552
878.24        53.58164
878.64        53.37868
879.04        52.68374
879.44        51.86992
879.84        51.64245
880.24        52.08655
880.64        52.93172
881.04        53.73453
881.44        53.80945
881.84        53.01474
882.24        51.61202
882.65         50.1296
883.05        49.37519
883.45        49.55885
883.85        50.44537
884.25        51.65147
884.65        52.51805
885.05        52.82027
885.45        52.74113
885.85        52.50737
886.25        52.46941
886.65        52.71555
887.05        53.10008
887.45        53.46086
887.85         53.5579
888.25         53.3344
888.65        52.90854
889.04        52.42111
889.44        52.09351
889.84        51.97528
890.24        51.99108
890.64        52.08243
891.04        52.15405
891.44        52.16901
891.84        52.17764
892.24        52.15216
892.64        52.03869
893.04        51.85202
893.44        51.61063
893.83        51.44067
894.23          51.513
894.63        51.86895
895.03        52.42595
895.43        53.04521
895.83        53.49932
896.23        53.70044
896.63        53.69538
897.02        53.50402
897.42        53.19633
897.82         52.8241
898.22        52.40784
898.62        52.00652
899.01        51.70058
899.41         51.5245
899.81        51.45415
900.21        51.50316
900.61        51.67912
901.00        51.95161
901.40        52.29714
901.80        52.59801
902.20        52.66744
902.59        52.48771
902.99        52.12221
903.39        51.70725
903.79        51.47233
904.18         51.4733
904.58        51.62652
904.98        51.90538
905.38        52.27396
905.77        52.69058
906.17        53.18489
906.57        53.58097
906.96        53.58632
907.36        53.15342
907.76        52.38008
908.15        51.60638
908.55        51.36217
908.95         51.7654
909.34        52.66251
909.74        53.67278
910.14        54.22609
910.53        54.12709
910.93        53.56932
911.33        52.76139
911.72        52.02008
912.12         51.5216
912.52        51.18668
912.91        50.97717
913.31        50.84663
913.70        50.77979
914.10        50.77961
914.49        50.94362
914.89        51.34767
915.29        51.99039
915.68        52.82373
916.08        53.56672
916.47        53.82034
916.87        53.52018
917.26        52.76907
917.66          51.959
918.05        51.57413
918.45        51.72021
918.84        52.29893
919.24        52.98578
919.64        53.31664
920.03        53.16498
920.42        52.65612
920.82        52.09511
921.21        51.89657
921.61         52.1455
922.00        52.72521
922.40        53.36008
922.79        53.68608
923.19        53.56277
923.58        53.14886
923.98        52.63703
924.37        52.25534
924.77        52.08824
925.16         52.0303
925.55        52.05852
925.95        52.12543
926.34        52.20837
926.74        52.31389
927.13        52.37795
927.52        52.22504
927.92        51.88328
928.31        51.40522
928.70        50.94607
929.10        50.72708
929.49        50.78111
929.89         50.9859
930.28        51.35891
930.67        51.83109
931.07        52.31498
931.46        52.88849
931.85        53.27295
932.24        53.06596
932.64        52.26739
933.03        50.97801
933.42        49.73225
933.82        49.30989
934.21        49.85455
934.60        51.20013
934.99        52.76931
935.39        53.50652
935.78        53.14875
936.17        51.93281
936.56        50.49157
936.96        49.82858
937.35        50.17614
937.74        51.19939
938.13        52.33416
938.53        52.70706
938.92         52.1232
939.31        50.93835
939.70        49.59002
940.09        48.67997
940.49         48.3479
940.88        48.40538
941.27        48.73147
941.66        49.10712
942.05           49.43
942.44        49.82003
942.84         50.1926
943.23        50.37682
943.62        50.36554
944.01        50.13285
944.40        49.92483
944.79        50.19394
945.18        50.99007
945.57         52.1481
945.97        53.20547
946.36        53.45382
946.75        52.70573
947.14        51.28921
947.53        49.64129
947.92        48.36721
948.31         47.6578
948.70        47.35315
949.09          47.425
949.48        47.81594
949.87         48.4424
950.26        49.31391
950.65        50.24119
951.04        50.88879
951.43        51.15317
951.82        51.07423
952.21        50.76551
952.60        50.46805
952.99        50.27905
953.38        50.14628
953.77        50.08752
954.16        50.12669
954.55        50.24298
954.94        50.42757
955.33        50.61526
955.72        50.66774
956.11        50.54378
956.50        50.29739
956.89        49.91822
957.28        49.40887
957.66        48.82053
958.05        48.20853
958.44         47.7536
958.83        47.71453
959.22        48.10875
959.61        48.85099
960.00        49.69638
960.39        50.17653
960.78        50.12829
961.16        49.67105
961.55        49.03637
961.94        48.52119
962.33        48.23246
962.72        48.12688
963.11         48.1467
963.49        48.21071
963.88        48.23864
964.27         48.2489
964.66        48.39573
965.04        48.93037
965.43        49.82983
965.82         51.0611
966.21        52.17043
966.60        52.30812
966.98        51.27438
967.37        49.43365
967.76        47.55019
968.15        46.58645
968.53        46.71599
968.92        47.72563
969.31        49.09219
969.69        49.74737
970.08        49.31116
970.47        48.17195
970.86        47.03498
971.24        46.90116
971.63        47.96454
972.02        49.88983
972.40        52.11953
972.79        53.33275
973.17        53.10189
973.56        51.87561
973.95        50.21232
974.33        48.79892
974.72         47.8371
975.11        47.09502
975.49        46.59193
975.88        46.38575
976.26        46.50992
976.65        46.98013
977.04        47.60068
977.42        47.98827
977.81         48.0071
978.19        47.68384
978.58        47.31592
978.96        47.37402
979.35        47.93145
979.74        48.84354
980.12        49.78249
980.51        49.97544
980.89        49.38201
981.28        48.29903
981.66         47.1893
982.05        46.63835
982.43        46.81402
982.82        47.49831
983.20        48.68527
983.59        50.28546
983.97        52.15528
984.35        54.22681
984.74        55.90746
985.12        56.45892
985.51        55.68228
985.89         53.8594
986.28          51.674
986.66        50.08606
987.04        49.43711
987.43        49.50062
987.81        50.10314
988.20        50.78988
988.58        51.33432
988.96        51.78406
989.35        52.10843
989.73          52.282
990.12        52.29922
990.50        52.17587
990.88        51.77089
991.27        50.95145
991.65        49.79049
992.03        48.39607
992.42        47.27688
992.80        47.10512
993.18        47.97203
993.56        49.74263
993.95         51.6963
994.33        52.55003
994.71        51.83504
995.10        50.04957
995.48        48.02433
995.86        47.05674
996.24        47.45861
996.63        48.75917
997.01        50.65999
997.39        52.23459
997.77        52.98263
998.15        53.22172
998.54        52.89987
998.92        51.83723
999.30         50.2464
999.68        48.24319
1000.06        46.48241
1000.45        45.88596
1000.83        46.70861
1001.21        48.78931
1001.59        51.62433
1001.97        53.82491
1002.35        54.72129
1002.73        54.63206
1003.12        54.07106
1003.50        53.64697
1003.88        53.64257
1004.26        53.73056
1004.64        53.92891
1005.02        54.29948
1005.40        54.79472
1005.78         55.5723
1006.16        56.13621
1006.54         55.6497
1006.92         54.0952
1007.30        51.76405
1007.69         49.6794
1008.07        49.12832
1008.45        50.51088
1008.83        53.58029
1009.21        57.33624
1009.59         59.3241
1009.97        58.46215
1010.35         55.4866
1010.73        51.80078
1011.11        49.40042
1011.49        48.74979
1011.86         49.1991
1012.24        50.12833
1012.62        50.76047
1013.00        50.88023
1013.38        50.74883
1013.76        50.53439
1014.14        50.53349
1014.52        50.83951
1014.90        51.22361
1015.28        51.45501
1015.66        51.29162
1016.04        50.70543
1016.41        49.84363
1016.79        48.85939
1017.17        48.06677
1017.55        47.61018
1017.93         47.3909
1018.31         47.4148
1018.69        47.68092
1019.06        48.16126
1019.44        48.95213
1019.82        49.78757
1020.20        50.04993
1020.58        49.52912
1020.95        48.33511
1021.33        47.19538
1021.71        46.91435
1022.09        47.62639
1022.46        49.32406
1022.84        51.32958
1023.22        51.89161
1023.60         50.4295
1023.97        47.44984
1024.35        44.77757
1024.73        44.39878
