SpectraSmart Spectrum 2.9.0.0
--------- Device Information -----------
Spectrum Name :  反射率_0
Saving Time :  2024/04/27 00:43:31
Spectro-Module Model Name : SE2030-DUVN
Spectro-Module Serial Number : OS361AC55029948
Wavelength Start : 200
Wavelength End : 1025
Wavelength Unit : Wavelength(nm)
Spectrum Unit : Reflectance(%)
-----------Spectrum Setting ------------
Integration Time : 20ms
Average : 10
Boxcar : 0
Background removal :  enabled
linearity correction :  enabled
SC :  disabled
Intensity correction :  disabled
DWT denoise :  enabled
savitzky-golay :  disabled
FFT :  disabled
Running average :  disabled
Kalman :  disabled
High pass :  disabled
---------------BEGIN--------------------
Wavelength(nm)             Reflectance(%)
200.29               0
200.75        39.39324
201.21        37.83045
201.67        36.71085
202.13        35.75201
202.58         34.7929
203.04        33.98049
203.50        34.36892
203.96          38.322
204.42        46.81179
204.88        59.21123
205.34        71.43245
205.80        76.70944
206.26        73.73085
206.72        64.97964
207.18        55.82374
207.64        50.70192
208.10        49.76057
208.55        52.75434
209.01        57.82097
209.47        58.22403
209.93        52.32315
210.39        45.34976
210.85        41.37643
211.31        42.46796
211.77        49.60823
212.23        67.79308
212.69        114.2866
213.14        192.4193
213.60        188.9106
214.06        133.9086
214.52        96.60962
214.98        79.62146
215.44        71.93606
215.90        66.66405
216.36        63.36071
216.81        62.49957
217.27        64.34516
217.73        70.95124
218.19        79.60762
218.65        77.68117
219.11        64.20604
219.57        48.88471
220.02        39.74585
220.48        40.14984
220.94        49.08434
221.40        67.54746
221.86         94.8485
222.32        112.8028
222.77        105.8038
223.23        85.95115
223.69        66.47196
224.15        54.84282
224.61        49.70828
225.06        47.33633
225.52        46.84278
225.98        47.37774
226.44        48.47659
226.90          50.507
227.36        52.38921
227.81        52.13407
228.27        49.78439
228.73        46.07489
229.19          42.817
229.65        42.12538
230.10        44.02819
230.56         47.7751
231.02        51.78542
231.48         53.5038
231.93        52.44099
232.39        49.89733
232.85        47.28205
233.31        46.44175
233.77        47.58692
234.22        50.02746
234.68         52.8794
235.14         54.9092
235.60        55.69811
236.05        55.66135
236.51        55.06057
236.97        54.46749
237.43        54.23536
237.88         54.3145
238.34         54.6623
238.80         55.4935
239.26        57.01347
239.71        59.76343
240.17        64.00152
240.63        70.21159
241.08        78.35979
241.54        87.47153
242.00        97.23175
242.46        108.2675
242.91        122.5628
243.37        141.4747
243.83          165.08
244.28        183.2367
244.74        180.4338
245.20        156.8587
245.66        130.7707
246.11        117.5735
246.57        117.2236
247.03        125.4347
247.48        133.6125
247.94        127.9522
248.40        111.4088
248.85        93.21276
249.31        79.70244
249.77        73.49335
250.22         73.2609
250.68        77.29009
251.14        84.50858
251.59        90.25346
252.05          91.422
252.51         90.3396
252.96        87.47279
253.42        83.97026
253.88        80.37896
254.33        76.07175
254.79        73.84428
255.25        75.83488
255.70        81.32186
256.16        89.29366
256.62        95.64462
257.07        94.43712
257.53        87.76377
257.99        79.56627
258.44         72.9171
258.90        70.50964
259.35        70.96829
259.81        73.16482
260.27        75.34546
260.72        75.47924
261.18        73.80728
261.63         70.9833
262.09        68.43374
262.55        67.03184
263.00        66.60534
263.46        66.83506
263.91        66.81519
264.37        65.80788
264.83        63.78997
265.28        61.19379
265.74        58.83012
266.19        57.33043
266.65        56.82445
267.11        56.88397
267.56        57.13249
268.02        57.00021
268.47        56.30369
268.93        55.29888
269.38        54.00512
269.84        52.51055
270.30        50.89702
270.75        49.13602
271.21        47.54271
271.66        46.53625
272.12        46.16358
272.57         46.2592
273.03        46.43587
273.48        46.03785
273.94        44.98816
274.39        43.48417
274.85        41.91131
275.31        40.65034
275.76        39.77012
276.22        39.16647
276.67        38.70139
277.13        38.29459
277.58        37.84073
278.04         37.4115
278.49        36.92245
278.95        36.36705
279.40        35.69945
279.86        35.00586
280.31        34.27429
280.77        33.61519
281.22        33.01182
281.68        32.50687
282.13        32.08017
282.59        31.80023
283.04        31.61934
283.50         31.5293
283.95        31.46534
284.41        31.34161
284.86        31.13706
285.32        30.91934
285.77        30.68722
286.22        30.50747
286.68        30.40067
287.13        30.30386
287.59        30.27917
288.04         30.3718
288.50        30.58873
288.95        30.87048
289.41        31.11052
289.86        31.07783
290.32        30.79532
290.77        30.33888
291.22        29.90217
291.68        29.75409
292.13        29.95556
292.59        30.46301
293.04         31.1804
293.50        31.96687
293.95        32.76812
294.40        33.63616
294.86        34.62078
295.31        35.78406
295.77        37.13721
296.22        38.61387
296.68        40.16513
297.13        41.71173
297.58        43.23888
298.04        44.77367
298.49         46.3259
298.95        47.93072
299.40        49.58568
299.85        51.28368
300.31        53.03013
300.76        54.81161
301.21        56.62931
301.67        58.49665
302.12        60.37127
302.58        62.27752
303.03        64.16424
303.48        66.05444
303.94        67.95015
304.39        69.78812
304.84        71.58973
305.30        73.37025
305.75         75.1269
306.20        76.95075
306.66        78.85883
307.11        80.78593
307.57        82.65456
308.02        84.23283
308.47        85.52353
308.93        86.60711
309.38        87.63139
309.83        88.94373
310.29         90.6037
310.74        92.48837
311.19        94.35503
311.65        95.77728
312.10        96.62875
312.55        97.04457
313.00        97.27328
313.46        97.70292
313.91        98.41833
314.36        99.33868
314.82        100.3109
315.27        101.1057
315.72        101.6338
316.18        101.9972
316.63        102.2807
317.08        102.6601
317.53        103.1805
317.99        103.7675
318.44        104.3399
318.89        104.7436
319.35        104.9378
319.80         104.982
320.25        104.9702
320.70        105.0501
321.16        105.2643
321.61        105.6155
322.06        106.0146
322.51        106.3252
322.97        106.4924
323.42        106.5461
323.87        106.6195
324.32        106.9528
324.78        107.5452
325.23        108.4017
325.68        109.1836
326.13        109.3435
326.59         108.784
327.04        107.7251
327.49        106.6346
327.94         106.276
328.39        106.8273
328.85        108.0267
329.30        109.5834
329.75        110.6963
330.20        111.0847
330.66        110.9463
331.11        110.5759
331.56        110.3822
332.01        110.5189
332.46        110.8163
332.92        111.1712
333.37        111.5977
333.82        111.9999
334.27        112.4639
334.72        112.9063
335.17         113.148
335.63        113.1661
336.08        113.0603
336.53        113.0323
336.98        113.4764
337.43        114.4665
337.88        115.8502
338.34        117.3443
338.79        118.5907
339.24        119.3762
339.69        119.7974
340.14        119.8895
340.59        119.7367
341.05        119.4582
341.50        119.0568
341.95        118.7083
342.40        118.6779
342.85        119.0326
343.30        119.7183
343.75        120.6294
344.20        121.5573
344.66        122.4048
345.11        123.1911
345.56        123.8563
346.01        124.3295
346.46        124.6187
346.91        124.7417
347.36        124.7888
347.81         124.929
348.26         125.192
348.72        125.5105
349.17        125.8469
349.62        126.1733
350.07        126.4552
350.52        126.7324
350.97        126.8399
351.42         126.512
351.87        125.7548
352.32        124.6808
352.77        123.6616
353.22        123.2391
353.67        123.5003
354.13        124.2698
354.58        125.1841
355.03        125.5839
355.48        125.2808
355.93        124.4597
356.38        123.4519
356.83        122.7621
357.28         122.503
357.73        122.4948
358.18        122.4851
358.63        122.0863
359.08        121.2093
359.53        120.0139
359.98        118.7181
360.43        117.6136
360.88        116.7711
361.33        116.1008
361.78        115.4651
362.23        114.6566
362.68        113.6437
363.13        112.5227
363.58        111.4274
364.03        110.5467
364.48        109.9093
364.93        109.4228
365.38        108.9901
365.83        108.4677
366.28        107.8088
366.73        107.0701
367.18        106.2514
367.63        105.3478
368.08        104.3817
368.53        103.3565
368.98        102.3692
369.43        101.5744
369.88        100.9998
370.33        100.6102
370.78        100.2798
371.23        99.79593
371.68        99.10085
372.13        98.24175
372.58        97.34337
373.03        96.60946
373.48        96.07696
373.93        95.66964
374.38         95.2486
374.83         94.6021
375.28        93.69469
375.72        92.60267
376.17        91.51407
376.62        90.58959
377.07        89.89148
377.52         89.3862
377.97        89.01757
378.42        88.70698
378.87        88.41595
379.32        88.12825
379.77        87.90404
380.22        87.82889
380.67        87.88596
381.11        88.06634
381.56        88.09388
382.01        87.62617
382.46        86.64815
382.91        85.33399
383.36        84.06717
383.81        83.36793
384.26        83.30413
384.71        83.69702
385.15        84.25037
385.60         84.4416
386.05        84.12369
386.50        83.46106
386.95        82.62132
387.40        81.87211
387.85        81.31024
388.29        80.79909
388.74        80.42323
389.19        80.09363
389.64        79.78849
390.09        79.54572
390.54        79.32597
390.98        79.03566
391.43        78.69689
391.88        78.30272
392.33        77.94631
392.78        77.70141
393.23        77.56026
393.67        77.63924
394.12        77.83537
394.57        77.41665
395.02         76.5513
395.47        76.26843
395.91        76.55064
396.36        76.46179
396.81        75.99918
397.26        75.72575
397.71        75.62108
398.15        75.38101
398.60        75.08495
399.05        74.71542
399.50         74.3419
399.95        74.17056
400.39         74.1695
400.84        74.00008
401.29        73.66084
401.74        73.38318
402.18        73.18845
402.63        72.92324
403.08        72.64626
403.53        72.48601
403.97        72.44019
404.42        72.45977
404.87        72.49567
405.32        72.43095
405.76        72.23295
406.21        72.08733
406.66        71.96527
407.11        71.61722
407.55        71.21989
408.00        71.18217
408.45        71.47663
408.90        71.90475
409.34        72.16008
409.79        71.55212
410.24         70.3957
410.68         69.8825
411.13        70.11049
411.58        70.41758
412.03        70.60303
412.47        70.63406
412.92        70.41788
413.37        70.00752
413.81         69.5562
414.26        69.35375
414.71         69.4258
415.15        69.71315
415.60        70.06923
416.05         70.3131
416.49        70.38449
416.94          70.341
417.39        70.24629
417.83        70.17995
418.28        70.17854
418.73        70.20368
419.17        70.26997
419.62        70.41179
420.07        70.60776
420.51        70.81807
420.96        71.00505
421.41        71.03413
421.85        70.86758
422.30        70.67535
422.74        70.43005
423.19        70.09922
423.64        69.73253
424.08        69.54919
424.53        69.58015
424.98        69.74592
425.42        70.00401
425.87        70.38124
426.31         70.7505
426.76        70.68867
427.21        70.30669
427.65        70.21387
428.10        70.40472
428.54        70.52442
428.99        70.61727
429.44        70.54298
429.88        70.46739
430.33        71.22118
430.77        72.36854
431.22        72.65706
431.66        72.03384
432.11        71.25237
432.56        70.65687
433.00        70.41353
433.45        70.72787
433.89        71.65774
434.34        72.40379
434.78        73.18163
435.23        72.29182
435.67        69.86642
436.12        70.80386
436.57        70.97701
437.01        71.61955
437.46        71.84406
437.90        71.65281
438.35        70.92352
438.79        71.03065
439.24        70.97559
439.68        71.10785
440.13        71.60721
440.57        72.34081
441.02        72.39329
441.46         71.8839
441.91        72.40984
442.35        73.54829
442.80        73.38571
443.24        72.20227
443.69        72.21648
444.13          73.272
444.58        73.80113
445.02        73.26169
445.47        73.03554
445.91        73.09051
446.36        73.18814
446.80         73.3298
447.24        73.60905
447.69        73.95519
448.13         74.1064
448.58        74.16911
449.02        74.19999
449.47        74.25653
449.91        74.23994
450.36        74.18411
450.80        74.12979
451.25        74.09895
451.69         74.0347
452.13        73.95634
452.58        73.88235
453.02        73.82583
453.47        73.80909
453.91        73.81773
454.36        73.85375
454.80        73.91172
455.24        73.79484
455.69        73.47549
456.13        73.36703
456.58        73.57449
457.02        72.51952
457.46        72.40211
457.91        72.57369
458.35        73.31104
458.79         73.3687
459.24        72.77962
459.68        71.99187
460.13        71.24593
460.57        71.00688
461.01        71.46893
461.46        70.83222
461.90        71.69193
462.34        72.22443
462.79        72.20639
463.23        72.34223
463.68        72.28361
464.12        72.29287
464.56        72.20138
465.01        71.31641
465.45         70.0097
465.89        69.84289
466.34         70.6191
466.78        70.97029
467.22        70.81655
467.67        70.31139
468.11        70.40447
468.55        70.33668
468.99        70.33389
469.44         70.1721
469.88        69.87444
470.32        69.64503
470.77        69.52672
471.21        69.47686
471.65        69.48804
472.10        69.58648
472.54        69.71368
472.98        69.75031
473.42        69.66087
473.87        69.58546
474.31        69.48701
474.75        69.14587
475.20        68.71346
475.64        68.69785
476.08        69.04401
476.52        69.06898
476.97        68.71164
477.41        68.52097
477.85        68.69999
478.29        67.99294
478.74        68.88546
479.18        68.91279
479.62        68.68664
480.06        68.57746
480.50        68.51127
480.95         68.5792
481.39        68.80628
481.83        68.09892
482.27        68.19631
482.72        68.74007
483.16        68.33021
483.60        68.49206
484.04        68.64922
484.48        68.92259
484.93        69.10899
485.37        68.96464
485.81        68.20488
486.25        67.84965
486.69         70.0382
487.14        70.15438
487.58        68.01093
488.02        68.80842
488.46        67.46278
488.90        67.92535
489.34         69.0078
489.79        70.17496
490.23        69.00967
490.67        68.38622
491.11        67.89537
491.55        67.64202
491.99        67.61307
492.43        67.44088
492.88        67.17413
493.32        67.23956
493.76        67.57738
494.20        67.79504
494.64        67.83183
495.08         67.7893
495.52        67.71832
495.96        67.70591
496.41        67.76223
496.85        67.86569
497.29         67.8499
497.73        67.85553
498.17        67.09838
498.61        66.90466
499.05        67.04104
499.49        67.27248
499.93        67.28078
500.37        67.32649
500.82        67.34051
501.26        67.39355
501.70        67.48418
502.14          67.548
502.58         67.6037
503.02        67.69639
503.46        67.82674
503.90        67.99469
504.34        68.12132
504.78        68.07648
505.22        67.84489
505.66        67.45194
506.10        67.04364
506.54        66.85354
506.98        66.87418
507.42        67.00488
507.86        67.22031
508.30        66.90771
508.74        67.20099
509.18        67.09518
509.62        66.96409
510.06        66.87512
510.50        66.85265
510.94        66.84727
511.38        66.84512
511.82        66.86005
512.26        66.88876
512.70        66.94499
513.14        67.00787
513.58        67.03695
514.02        67.02741
514.46        66.98209
514.90        66.95208
515.34        67.02415
515.78        67.20189
516.22        67.44453
516.66        67.66258
517.10        67.71396
517.54        67.57226
517.98        67.29753
518.42        66.96333
518.86        66.68731
519.30        66.51603
519.74        66.41804
520.18        66.40285
520.62         66.4804
521.06        66.63691
521.50        66.87234
521.93        67.11951
522.37        67.24171
522.81        67.21846
523.25        67.07677
523.69        66.89861
524.13          66.824
524.57        66.87772
525.01        67.00327
525.45        67.13711
525.89        67.17546
526.32         67.0872
526.76        66.94202
527.20        66.74775
527.64        66.53516
528.08        66.33434
528.52        66.08854
528.96        65.88387
529.40        65.97482
529.83        66.30802
530.27        66.57463
530.71        66.69776
531.15        66.79313
531.59        66.83472
532.03        66.71083
532.46        66.46616
532.90         66.2942
533.34        66.22245
533.78        66.16238
534.22        66.10902
534.66        66.13608
535.09        66.18624
535.53        66.11632
535.97        65.93516
536.41        65.82379
536.85        65.79453
537.28        65.73598
537.72        65.68066
538.16        65.73425
538.60        65.89689
539.04          66.132
539.47        66.34787
539.91        66.44715
540.35        66.39504
540.79        66.23095
541.22         66.0264
541.66        65.91655
542.10        65.92908
542.54         66.0265
542.97        66.14433
543.41        66.21293
543.85        66.19663
544.29        66.12616
544.72         66.0284
545.16        65.96264
545.60        65.93259
546.04        65.98866
546.47        66.09675
546.91        66.07915
547.35        65.99139
547.79        66.09454
548.22        66.35288
548.66        66.57076
549.10        66.73307
549.53        66.67182
549.97        66.44708
550.41        66.21638
550.84        66.08501
551.28        66.05558
551.72        66.06963
552.15        66.17291
552.59        66.43324
553.03        65.86825
553.46         66.4369
553.90        66.37682
554.34         66.2618
554.77        66.09853
555.21        65.96616
555.65        65.95824
556.08        66.05473
556.52        66.15227
556.96        66.19736
557.39        66.31442
557.83        66.44212
558.27         66.2168
558.70        65.72829
559.14        65.54405
559.57        65.65836
560.01        65.64574
560.45        65.53673
560.88        65.71826
561.32        66.13186
561.75        66.34929
562.19        66.34337
562.63        66.23174
563.06        66.06852
563.50         65.9754
563.93        65.93078
564.37        65.93221
564.80         65.9938
565.24        66.01665
565.68        65.83098
566.11        66.51333
566.55        65.70998
566.98        65.59087
567.42        65.57512
567.85        65.68605
568.29        65.91862
568.72        66.25501
569.16        66.72329
569.60        66.87867
570.03        66.89552
570.47        67.04435
570.90        67.52635
571.34        66.40184
571.77        67.11471
572.21        67.45209
572.64        67.38747
573.08        67.40569
573.51        66.54364
573.95        66.54256
574.38        67.30998
574.82        67.22436
575.25        66.94559
575.69        67.21779
576.12        67.28446
576.56        66.59988
576.99        66.81084
577.42        67.01537
577.86        66.75993
578.29         67.7644
578.73        67.98981
579.16         67.8495
579.60        66.90602
580.03        66.84949
580.47        66.86742
580.90        67.64238
581.33        67.55473
581.77        67.70896
582.20        67.95422
582.64        67.87406
583.07        67.49641
583.51        67.01866
583.94        66.70282
584.37        66.74342
584.81        67.19101
585.24        67.26299
585.68         66.8609
586.11        67.21797
586.54        67.39717
586.98         66.4538
587.41        65.87095
587.85         66.9259
588.28        66.61543
588.71        66.51836
589.15        66.17335
589.58        66.65434
590.01         65.8929
590.45        66.20007
590.88        67.02657
591.31        67.01722
591.75        66.33455
592.18        65.92252
592.61          66.061
593.05        66.38016
593.48        67.67265
593.91        67.15854
594.35        67.08984
594.78        66.00653
595.21         66.0478
595.65        66.39513
596.08        67.44884
596.51        67.18262
596.94        66.65728
597.38        66.24809
597.81        66.24799
598.24        67.06195
598.68        66.53677
599.11        66.24619
599.54        67.64983
599.97        66.99964
600.41        66.78167
600.84        66.19746
601.27         66.8006
601.70        66.63461
602.14        66.96409
602.57        66.67898
603.00        66.37361
603.43          65.743
603.87        66.73296
604.30        66.98754
604.73        66.92847
605.16        65.91557
605.60        65.98033
606.03        65.83118
606.46        65.93301
606.89        66.16138
607.32        66.39097
607.76        65.89152
608.19        66.46538
608.62        66.41468
609.05        66.36462
609.48        66.22582
609.92        66.90299
610.35        66.42839
610.78        66.13851
611.21          65.778
611.64          66.026
612.07        66.25682
612.50        66.21403
612.94        66.20362
613.37        66.03681
613.80        66.36367
614.23         65.5348
614.66         65.5922
615.09        65.99773
615.52        66.14911
615.96        65.96043
616.39        66.07069
616.82        66.29718
617.25        65.83353
617.68        65.88718
618.11        65.90756
618.54         66.1958
618.97        66.21902
619.40         65.9867
619.84        65.91107
620.27        65.89516
620.70        65.88134
621.13        65.80585
621.56        65.52259
621.99        65.08407
622.42        64.99963
622.85        65.06431
623.28        64.90755
623.71        65.22525
624.14        65.19692
624.57        65.79594
625.00        65.39967
625.43        65.70762
625.86        65.57491
626.29        65.51842
626.72        65.12706
627.15        65.30562
627.58        65.29014
628.01         65.2621
628.44        65.25919
628.87        65.30334
629.30        64.98398
629.73        64.84364
630.16        65.13438
630.59        65.00601
631.02        65.22507
631.45        65.44526
631.88        65.61452
632.31        65.68923
632.74        65.69975
633.17        65.65453
633.60        65.54421
634.03        65.38566
634.46        65.18207
634.89        64.96677
635.32        64.80827
635.75        64.72997
636.18        64.65414
636.61        64.59727
637.04        64.61445
637.47        64.69495
637.89        64.82678
638.32        64.94327
638.75        64.95224
639.18        64.82862
639.61        64.77073
640.04        64.54111
640.47        64.44829
640.90        64.44056
641.33        64.55877
641.76        64.73973
642.18        64.83668
642.61        64.80247
643.04        64.71319
643.47        64.60677
643.90        64.57359
644.33        64.62473
644.76        64.73067
645.18        64.83747
645.61        64.84127
646.04        64.73457
646.47        64.56735
646.90        64.39173
647.33        64.28836
647.75        64.25546
648.18        64.28695
648.61         64.4204
649.04         64.5362
649.47        64.51621
649.89         65.2431
650.32        64.92506
650.75        64.79466
651.18        64.45363
651.61        64.35866
652.03        64.53766
652.46        64.63713
652.89        64.63385
653.32        64.71836
653.74         64.9696
654.17        64.77581
654.60        64.94908
655.03         65.0826
655.46        64.05933
655.88        64.51093
656.31        68.09608
656.74        71.10131
657.16        69.18755
657.59        67.91102
658.02        65.87138
658.45        65.94936
658.87        64.92435
659.30        65.30276
659.73        65.09893
660.15        66.21722
660.58        64.57187
661.01        64.42276
661.44        64.66988
661.86        64.55372
662.29        64.03651
662.72        64.38419
663.14        64.35474
663.57        64.37639
664.00        64.17427
664.42        64.24704
664.85        64.60412
665.27        64.99652
665.70         65.2701
666.13        65.34548
666.55        65.19537
666.98        64.77768
667.41        64.21727
667.83         64.1377
668.26        63.93068
668.69        64.07661
669.11        64.30518
669.54        64.49463
669.96        64.60403
670.39        64.66988
670.82        64.71995
671.24        64.76907
671.67        64.82168
672.09        64.84003
672.52        64.84727
672.94         64.8548
673.37        64.86642
673.80          64.862
674.22        64.83957
674.65        64.77391
675.07        64.68297
675.50        64.55983
675.92        64.44161
676.35        64.37885
676.77        64.38361
677.20        64.43539
677.62        64.51336
678.05        64.58178
678.47        64.62421
678.90        64.65662
679.32        64.66701
679.75        64.65094
680.17         64.6063
680.60        64.53378
681.02        64.46743
681.45        64.45497
681.87        64.51713
682.30        64.64232
682.72        64.79311
683.15         64.8457
683.57        64.80384
684.00        64.72276
684.42         64.6698
684.85        64.72591
685.27        64.89515
685.70        65.15807
686.12         65.4219
686.54        65.55122
686.97        65.51204
687.39        65.36052
687.82        65.14306
688.24        64.95567
688.66        64.83246
689.09         64.7443
689.51        64.71716
689.94        64.76142
690.36        64.87493
690.78        65.03986
691.21        65.21124
691.63        65.30409
692.06        65.30257
692.48        65.24052
692.90        65.13182
693.33         65.0083
693.75        64.88682
694.17        64.73319
694.60        64.61716
695.02        64.64485
695.44        64.79571
695.87        65.09238
696.29        65.42474
696.71        65.28747
697.14        64.82335
697.56        64.84565
697.98        65.30813
698.41        65.47259
698.83        65.30767
699.25        65.28278
699.68        65.36172
700.10        65.33119
700.52        65.16729
700.94        64.94469
701.37         64.7477
701.79        64.71603
702.21         64.8661
702.64        65.13519
703.06        65.42281
703.48        65.54756
703.90        65.46523
704.33        65.23734
704.75         64.9475
705.17        64.72408
705.59        64.61744
706.01        64.58855
706.44        64.63675
706.86        64.77425
707.28        64.97277
707.70        65.23519
708.12        65.50745
708.55        65.67643
708.97        65.72681
709.39        65.69475
709.81        65.62088
710.23        65.57528
710.66        65.57815
711.08        65.62959
711.50        65.66829
711.92        65.61086
712.34        65.44874
712.76        65.22745
713.19        64.99435
713.61        64.86186
714.03         64.8504
714.45        64.93521
714.87        65.09943
715.29        65.31965
715.71        65.56905
716.13        65.82922
716.56        66.05216
716.98        66.24834
717.40        66.36641
717.82        66.40828
718.24        66.34094
718.66         66.1187
719.08           65.77
719.50        65.34909
719.92        64.96864
720.34        64.79308
720.76        64.85567
721.19         65.0816
721.61         65.4361
722.03        65.80321
722.45        66.11736
722.87        66.39323
723.29        66.55383
723.71        66.48336
724.13        66.18474
724.55        65.70425
724.97        65.19588
725.39        64.92099
725.81        64.94749
726.23        65.18494
726.65        65.52467
727.07        65.92697
727.49        66.09032
727.91        66.24795
728.33        66.35089
728.75        66.44492
729.17        66.53786
729.59        66.59586
730.01        66.61138
730.43         66.5827
730.85        66.51138
731.27        66.41039
731.69         66.2872
732.10        66.14409
732.52        65.98866
732.94        65.84149
733.36         65.7413
733.78        65.62207
734.20        65.47894
734.62         65.5624
735.04        65.93319
735.46        65.46749
735.88        66.10088
736.30        66.22403
736.72        66.40639
737.13        66.65325
737.55        66.87354
737.97        67.02304
738.39        67.03863
738.81        66.76037
739.23        66.32266
739.65        66.29454
740.06        66.61352
740.48        66.74513
740.90        66.64349
741.32        66.65325
741.74        66.78846
742.16        66.88271
742.57        66.92899
742.99        66.95805
743.41        66.96141
743.83        66.90652
744.25        66.79656
744.67        66.63254
745.08        66.48504
745.50        66.44383
745.92        66.52973
746.34        66.70975
746.75         66.9002
747.17        66.92374
747.59        66.74969
748.01        66.51525
748.42        66.29623
748.84        66.02348
749.26        65.82449
749.68        66.07941
750.09        66.65106
750.51        66.94096
750.93        66.87962
751.35        66.78653
751.76        66.69998
752.18        66.56119
752.60        66.38969
753.01         66.2247
753.43        66.05831
753.85        65.90524
754.27        65.78742
754.68        65.72833
755.10        65.74018
755.52        65.82971
755.93        65.97148
756.35         66.1319
756.77        66.34163
757.18        66.50653
757.60         66.6242
758.02        66.96848
758.43          67.392
758.85        66.66415
759.26        66.68833
759.68        65.52277
760.10         66.3298
760.51        66.48681
760.93        66.63784
761.34        66.72664
761.76         66.7472
762.18        66.68508
762.59        66.62474
763.01         66.7649
763.42        67.12237
763.84        67.29015
764.26        67.24927
764.67        67.26241
765.09        67.34109
765.50        67.14731
765.92        66.81161
766.33        66.71088
766.75        66.77186
767.16        66.78808
767.58        66.70992
768.00        66.50885
768.41        66.33253
768.83        66.76003
769.24        67.54132
769.66        67.62787
770.07        67.06282
770.49        66.56084
770.90        66.35944
771.32        66.75594
771.73        67.56448
772.15        67.87409
772.56        67.61364
772.97         67.3123
773.39        67.11619
773.80        67.01632
774.22        67.03748
774.63        67.23376
775.05        67.45729
775.46        67.53707
775.88        67.40089
776.29        67.12939
776.70        66.84213
777.12        66.75184
777.53        66.91633
777.95        67.22908
778.36        67.58331
778.77        67.76378
779.19        67.73341
779.60        67.58089
780.02        67.36766
780.43        67.27061
780.84        67.35558
781.26        67.28181
781.67        67.14989
782.09        67.74082
782.50        68.74608
782.91        68.68359
783.33         67.6848
783.74        67.29227
784.15        67.59547
784.57        67.73616
784.98        67.68206
785.39        67.67252
785.81        67.85271
786.22        68.01414
786.63         68.1844
787.04        68.32729
787.46        68.44346
787.87        68.51645
788.28        68.55707
788.70        68.56988
789.11        68.53873
789.52        68.49452
789.93         68.4418
790.35         68.3747
790.76        68.31125
791.17        68.25371
791.58        68.22321
792.00         68.1853
792.41         68.1497
792.82        68.23938
793.23        68.38858
793.65        68.22369
794.06        67.88995
794.47        68.02525
794.88        68.48365
795.29        68.82767
795.71        68.36855
796.12        68.12379
796.53        68.01107
796.94        67.84132
797.35        67.73395
797.76        68.14754
798.18        68.87963
798.59        69.20899
799.00        69.01986
799.41        68.65285
799.82         68.2925
800.23        68.12335
800.64        68.21665
801.06        68.47599
801.47        68.80942
801.88        68.97208
802.29        68.89043
802.70        68.64059
803.11        68.30624
803.52        68.02069
803.93        67.85332
804.34        67.77662
804.75        67.78408
805.17        67.91167
805.58        68.18993
805.99         68.4054
806.40        68.56933
806.81        69.13904
807.22        69.87701
807.63        69.75208
808.04        68.91199
808.45        68.50339
808.86        68.63343
809.27        68.70361
809.68        68.62747
810.09        68.55062
810.50        68.46051
810.91        68.32263
811.32        68.24897
811.73        68.41256
812.14        68.82848
812.55         69.4376
812.96        70.03559
813.37        70.24054
813.78        69.95542
814.19        69.32913
814.60         68.5809
815.01        68.00429
815.42        67.67775
815.83        67.52048
816.24        67.51483
816.65        67.62072
817.05        67.80896
817.46        68.07408
817.87        68.35925
818.28        68.52151
818.69        68.53213
819.10          68.394
819.51         68.2179
819.92         68.2237
820.33        68.45864
820.74        68.85121
821.14        69.24809
821.55        69.39585
821.96        69.24126
822.37        68.87309
822.78        68.43013
823.19        68.14494
823.60        68.09692
824.00        68.24206
824.41        68.46455
824.82        68.66982
825.23        68.80013
825.64        68.88791
826.04         68.9417
826.45         68.9323
826.86         68.8786
827.27        68.78668
827.68        68.66835
828.08        68.58138
828.49        68.49305
828.90        68.40759
829.31        68.37582
829.72        68.47307
830.12        68.72859
830.53        69.07671
830.94        69.38121
831.35         69.3641
831.75        68.98895
832.16        68.31414
832.57        67.61305
832.97         67.2991
833.38        67.46284
833.79          67.962
834.20        68.56944
834.60        68.92014
835.01        68.92038
835.42        68.72279
835.82        68.45192
836.23        68.24674
836.64        68.20509
837.04         68.2379
837.45        68.40885
837.86        68.89333
838.26        69.70193
838.67        70.73936
839.08        71.68139
839.48        71.90284
839.89        71.26608
840.29        70.00258
840.70        68.66555
841.11        67.88031
841.51        67.81106
841.92        68.25756
842.33        69.01716
842.73        69.71492
843.14        70.09061
843.54        70.30588
843.95        70.39825
844.35        70.48698
844.76        70.58894
845.17        70.63097
845.57        70.60814
845.98        70.50794
846.38        70.35571
846.79        70.17548
847.19        69.97983
847.60         69.7523
848.00         69.5118
848.41        69.23829
848.81        69.01213
849.22        68.88096
849.62        68.89494
850.03        69.03262
850.43        69.20877
850.84        69.21307
851.24        69.04827
851.65        68.70272
852.05         68.4239
852.46        68.53428
852.86        69.08379
853.27        69.92434
853.67        70.70053
854.07        71.05006
854.48        70.87937
854.88        70.32888
855.29        69.55432
855.69        68.97733
856.10         68.6879
856.50        68.66788
856.90        68.77271
857.31        68.77432
857.71          68.656
858.12        68.42451
858.52        68.24121
858.92         68.2468
859.33         68.4502
859.73        68.83237
860.13        69.17226
860.54        69.14039
860.94        68.71682
861.34        67.99596
861.75         67.2458
862.15        66.94644
862.55        67.19503
862.96        67.81634
863.36        68.60807
863.76        69.13282
864.17         69.2276
864.57        69.04314
864.97         68.6464
865.38        68.15412
865.78        67.66325
866.18        67.13582
866.58         66.6633
866.99        66.42047
867.39        66.47612
867.79        66.79476
868.19        67.27407
868.60        67.70969
869.00        68.06797
869.40        68.36629
869.80        68.61435
870.21        68.83727
870.61        69.08212
871.01        69.25269
871.41        69.30013
871.81         69.1761
872.22        68.87451
872.62        68.42371
873.02        67.91239
873.42        67.47926
873.82        67.18449
874.22        67.01871
874.63        66.91888
875.03        66.78884
875.43        66.59553
875.83        66.37754
876.23        66.21561
876.63         66.2322
877.03        66.44582
877.44        66.77438
877.84        67.12977
878.24        67.38134
878.64        67.43251
879.04        67.18027
879.44        66.78902
879.84        66.61556
880.24        66.70507
880.64        66.93925
881.04        67.10197
881.44        66.86743
881.84        66.19692
882.24        65.23232
882.65        64.31882
883.05        63.97816
883.45        64.32104
883.85        65.17661
884.25        66.22612
884.65        66.92275
885.05        67.08696
885.45        66.87452
885.85        66.47133
886.25         66.1685
886.65        66.06564
887.05         66.0704
887.45        66.13484
887.85         66.1941
888.25        66.21856
888.65        66.24418
889.04        66.28469
889.44         66.3733
889.84        66.49264
890.24        66.61446
890.64        66.68527
891.04        66.63177
891.44        66.45139
891.84         66.1936
892.24        65.92128
892.64        65.71803
893.04        65.62334
893.44        65.63306
893.83        65.77569
894.23        66.03709
894.63        66.41183
895.03        66.86003
895.43        67.33587
895.83        67.77484
896.23        68.11987
896.63        68.34633
897.02        68.38196
897.42        68.15113
897.82        67.68057
898.22        67.07478
898.62        66.43673
899.01        65.90287
899.41        65.54662
899.81        65.30678
900.21        65.28249
900.61        65.62356
901.00         66.2926
901.40        67.20663
901.80        68.03291
902.20        68.23607
902.59        67.73326
902.99        66.70072
903.39        65.49918
903.79        64.73689
904.18        64.58587
904.58        64.85445
904.98        65.40886
905.38        66.04352
905.77        66.65346
906.17        67.33088
906.57        67.87624
906.96        67.94812
907.36        67.49471
907.76        66.60974
908.15        65.71922
908.55        65.50371
908.95        66.11581
909.34        67.37073
909.74        68.77627
910.14        69.58442
910.53        69.54105
910.93        68.87936
911.33         67.9056
911.72        67.08521
912.12        66.64227
912.52         66.4618
912.91        66.39985
913.31         66.2619
913.70        66.00941
914.10        65.68952
914.49        65.56047
914.89        65.95029
915.29        66.90574
915.68        68.27374
916.08        69.54765
916.47        69.97314
916.87        69.40264
917.26         68.0845
917.66        66.57785
918.05          65.564
918.45        65.23298
918.84         65.4388
919.24         65.9118
919.64        66.30548
920.03        66.49429
920.42        66.55437
920.82        66.64319
921.21        66.93892
921.61        67.45365
922.00        68.12592
922.40        68.71069
922.79        68.95979
923.19        68.77732
923.58        68.28101
923.98        67.71219
924.37        67.35478
924.77        67.29986
925.16          67.436
925.55        67.65039
925.95        67.72489
926.34        67.60313
926.74         67.3352
927.13        66.97108
927.52        66.51104
927.92        66.04737
928.31        65.60561
928.70        65.25391
929.10        65.07004
929.49        65.05366
929.89        65.09569
930.28        65.36348
930.67        66.02283
931.07        67.01201
931.46        68.33344
931.85        69.41602
932.24        69.39384
932.64        68.20123
933.03        66.12025
933.42        64.03784
933.82        63.25735
934.21        64.04834
934.60         66.0801
934.99        68.57415
935.39        70.09639
935.78        70.21495
936.17        69.23122
936.56        67.78415
936.96        66.89625
937.35        66.85059
937.74        67.32377
938.13        67.83349
938.53        67.66368
938.92        66.69494
939.31        65.28722
939.70        63.91784
940.09        63.22335
940.49        63.31132
940.88        63.96416
941.27        64.93504
941.66        65.77012
942.05        66.27487
942.44        66.61262
942.84        66.75032
943.23        66.62947
943.62        66.29988
944.01        65.71029
944.40        65.19051
944.79        65.32069
945.18        66.18267
945.57        67.61987
945.97        69.03093
946.36         69.4613
946.75        68.65569
947.14        67.00073
947.53        65.12863
947.92         63.9462
948.31        63.68835
948.70        64.08907
949.09        64.88528
949.48        65.62289
949.87        66.09764
950.26        66.41973
950.65        66.62514
951.04        66.76457
951.43        66.85228
951.82        66.83143
952.21        66.63941
952.60        66.21849
952.99        65.62105
953.38        64.95126
953.77        64.39729
954.16        64.23124
954.55        64.49512
954.94        65.06124
955.33        65.81808
955.72         66.5495
956.11         67.1275
956.50         67.6117
956.89        67.78213
957.28        67.30638
957.66        66.19725
958.05        64.63367
958.44        63.15284
958.83        62.53075
959.22        62.88713
959.61        64.00916
960.00        65.39898
960.39        66.09881
960.78        65.80129
961.16        64.80428
961.55         63.5609
961.94        62.64639
962.33        62.24031
962.72        62.18931
963.11        62.38227
963.49        62.65889
963.88         62.8542
964.27         63.0153
964.66        63.25602
965.04        63.76608
965.43        64.50745
965.82        65.45297
966.21        66.19056
966.60        65.98564
966.98        64.71357
967.37        62.75871
967.76        60.87516
968.15        59.99702
968.53        60.29097
968.92        61.53867
969.31        63.23026
969.69        64.30338
970.08        64.29522
970.47        63.52547
970.86        62.62026
971.24        62.49028
971.63        63.33551
972.02        64.88847
972.40        66.61575
972.79        67.23103
973.17        66.43867
973.56        64.72509
973.95        62.87103
974.33        61.85647
974.72        61.89161
975.11        62.66417
975.49        63.81485
975.88         64.5817
976.26        64.71718
976.65        64.40742
977.04        63.88443
977.42         63.4643
977.81        63.22734
978.19        63.04597
978.58        62.97812
978.96        63.10143
979.35        63.38247
979.74        63.83962
980.12        64.40569
980.51        64.70322
980.89        64.75801
981.28         64.6309
981.66        64.46618
982.05        64.46068
982.43        64.67968
982.82        65.01971
983.20        65.58823
983.59        66.46226
983.97        67.66856
984.35        69.13162
984.74         70.3633
985.12         70.7996
985.51         70.2547
985.89        68.93983
986.28        67.45899
986.66        66.64417
987.04        66.76417
987.43        67.57977
987.81        68.71244
988.20        69.28106
988.58        69.02431
988.96        68.14664
989.35         67.0697
989.73         66.3755
990.12        66.19576
990.50        66.40123
990.88        66.63305
991.27        66.31824
991.65        65.36102
992.03        63.99078
992.42        62.79671
992.80        62.53347
993.18         63.3555
993.56        65.08327
993.95        67.00129
994.33        67.93421
994.71        67.39982
995.10        65.85614
995.48        64.13595
995.86        63.55781
996.24        64.43009
996.63         66.2777
997.01        68.64834
997.39        70.21127
997.77        70.40176
998.15        69.71863
998.54        68.51424
998.92        67.17789
999.30        65.99958
999.68        64.82918
1000.06        64.08128
1000.45        64.33075
1000.83        65.72605
1001.21         68.2625
1001.59        71.23957
1001.97         72.8763
1002.35        72.53033
1002.73        70.71828
1003.12        68.61719
1003.50        67.68507
1003.88        68.33596
1004.26        70.03902
1004.64        72.30436
1005.02        74.04115
1005.40        74.67849
1005.78        74.66774
1006.16        73.84016
1006.54        71.90974
1006.92        69.15359
1007.30        65.80219
1007.69        62.94193
1008.07        61.94052
1008.45        63.19682
1008.83        66.43852
1009.21        70.78773
1009.59        73.89306
1009.97        74.47485
1010.35        73.04227
1010.73        70.33031
1011.11        67.50726
1011.49        65.14549
1011.86        63.09661
1012.24        61.52177
1012.62        60.56818
1013.00        60.21548
1013.38        60.46193
1013.76        61.45055
1014.14        63.20557
1014.52        65.46423
1014.90        67.95928
1015.28        69.93456
1015.66        70.57327
1016.04        69.80684
1016.41        67.78361
1016.79        65.21388
1017.17        63.58022
1017.55        63.34631
1017.93        64.14819
1018.31        65.22542
1018.69        65.39842
1019.06        64.39521
1019.44        62.52178
1019.82        60.30811
1020.20        59.05709
1020.58        59.28835
1020.95        60.35774
1021.33        61.78326
1021.71        62.95262
1022.09        63.80619
1022.46        64.83971
1022.84        65.68204
1023.22        65.51207
1023.60        64.21807
1023.97        61.82263
1024.35        60.14607
1024.73        61.37886
