SpectraSmart Spectrum 2.9.0.0
--------- Device Information -----------
Spectrum Name :  反射率_0
Saving Time :  2024/04/27 00:44:49
Spectro-Module Model Name : SE2030-DUVN
Spectro-Module Serial Number : OS361AC55029948
Wavelength Start : 200
Wavelength End : 1025
Wavelength Unit : Wavelength(nm)
Spectrum Unit : Reflectance(%)
-----------Spectrum Setting ------------
Integration Time : 20ms
Average : 10
Boxcar : 0
Background removal :  enabled
linearity correction :  enabled
SC :  disabled
Intensity correction :  disabled
DWT denoise :  enabled
savitzky-golay :  disabled
FFT :  disabled
Running average :  disabled
Kalman :  disabled
High pass :  disabled
---------------BEGIN--------------------
Wavelength(nm)             Reflectance(%)
200.29               0
200.75        31.06676
201.21        27.36409
201.67        25.11789
202.13        25.00295
202.58        26.82751
203.04        30.97626
203.50        37.09565
203.96        42.53269
204.42         45.0802
204.88        44.58775
205.34        41.81058
205.80        39.47492
206.26        38.56378
206.72         37.9808
207.18        37.65327
207.64        37.44713
208.10         37.2912
208.55        38.02351
209.01        38.46387
209.47         36.1073
209.93         31.6613
210.39        27.34394
210.85        25.26187
211.31        26.59522
211.77        32.15828
212.23        46.43962
212.69        82.26967
213.14        138.3553
213.60         128.271
214.06        82.66374
214.52        55.12967
214.98        46.29018
215.44        46.78369
215.90        51.02394
216.36        56.71101
216.81        60.75513
217.27        62.16234
217.73        62.76499
218.19        60.63568
218.65        51.91592
219.11        40.80172
219.57         31.9562
220.02        27.72202
220.48        28.48616
220.94        33.60255
221.40        44.18206
221.86        60.65343
222.32        74.09399
222.77        74.62505
223.23        66.92284
223.69        57.47173
224.15        50.58782
224.61        46.15442
225.06        42.56243
225.52        39.93339
225.98        38.19759
226.44        37.12666
226.90        36.83624
227.36        36.59858
227.81        35.22541
228.27        32.89643
228.73        30.09745
229.19        28.07745
229.65        28.27549
230.10        30.60459
230.56        34.42822
231.02        38.34846
231.48        40.08521
231.93        39.21289
232.39        36.90967
232.85        34.39522
233.31          33.269
233.77        33.76183
234.22        35.30358
234.68        37.34239
235.14        39.18399
235.60        40.55516
236.05        41.76786
236.51        42.74445
236.97        43.21309
237.43        43.16325
237.88        42.65575
238.34        42.10451
238.80        42.53897
239.26        44.43219
239.71        48.13559
240.17        53.57933
240.63        60.02653
241.08        66.61765
241.54         72.6049
242.00        78.08176
242.46          84.353
242.91        93.13016
243.37         104.676
243.83        118.6721
244.28        127.9725
244.74        122.6895
245.20        104.6839
245.66        85.77409
246.11        74.34667
246.57        70.45618
247.03        71.77267
247.48        74.61643
247.94        73.09094
248.40        67.75214
248.85        61.53016
249.31        57.42134
249.77        57.05546
250.22        60.08405
250.68        66.27422
251.14        74.03458
251.59        77.26571
252.05        73.34875
252.51        65.90279
252.96        58.74876
253.42        55.61775
253.88        56.09423
254.33        57.83209
254.79        60.89136
255.25        65.08461
255.70        69.89098
256.16        75.36574
256.62        79.00059
257.07        77.18869
257.53        71.82516
257.99        65.56209
258.44        60.46958
258.90         58.4978
259.35        58.55555
259.81        59.85992
260.27        61.22285
260.72        61.28421
261.18        60.18495
261.63        58.28152
262.09        56.44263
262.55        55.06741
263.00        54.07053
263.46        53.36687
263.91        52.50095
264.37        51.22836
264.83        49.54762
265.28        47.63397
265.74        45.93842
266.19        44.70716
266.65        44.01527
267.11        43.64797
267.56         43.3975
268.02        42.94867
268.47        42.21883
268.93         41.3428
269.38         40.3884
269.84        39.50803
270.30        38.73604
270.75        38.00781
271.21        37.36698
271.66        36.83633
272.12        36.40159
272.57        36.02132
273.03        35.61657
273.48        35.04496
273.94        34.33402
274.39        33.52189
274.85        32.71563
275.31        31.93567
275.76        31.18906
276.22        30.49307
276.67        29.89066
277.13        29.52446
277.58        29.33863
278.04        29.29694
278.49        29.18705
278.95        28.80467
279.40        28.08527
279.86        27.19166
280.31        26.23894
280.77         25.4852
281.22        24.95211
281.68        24.60523
282.13        24.36884
282.59        24.20778
283.04        24.07224
283.50        24.00291
283.95        23.96003
284.41        23.88408
284.86        23.76699
285.32        23.63484
285.77        23.53533
286.22         23.6017
286.68        23.83978
287.13        24.16189
287.59        24.49159
288.04        24.66862
288.50        24.67907
288.95        24.56184
289.41        24.37903
289.86        24.15989
290.32        23.97418
290.77        23.81699
291.22        23.76731
291.68         23.9268
292.13        24.30626
292.59        24.90281
293.04         25.6568
293.50        26.47943
293.95        27.33173
294.40        28.23945
294.86        29.22533
295.31        30.32059
295.77        31.54028
296.22        32.85214
296.68        34.25494
297.13        35.73824
297.58        37.30438
298.04        38.95997
298.49        40.68933
298.95        42.48148
299.40        44.31404
299.85         46.1855
300.31        48.09479
300.76        50.02428
301.21        51.97748
301.67        53.97041
302.12        55.97087
302.58        58.01655
303.03        60.06401
303.48        62.12777
303.94        64.22448
304.39        66.31473
304.84        68.41895
305.30        70.55145
305.75         72.6629
306.20        74.76831
306.66        76.87444
307.11         78.9353
307.57         80.9485
308.02        82.80286
308.47         84.5101
308.93        86.09843
309.38        87.61731
309.83        89.26575
310.29        91.07693
310.74        92.98525
311.19        94.81834
311.65        96.26415
312.10        97.22927
312.55         97.8007
313.00        98.21467
313.46        98.84454
313.91        99.75928
314.36        100.8919
314.82        102.0323
315.27        102.8514
315.72        103.2524
316.18        103.3745
316.63        103.4097
317.08        103.7022
317.53        104.3359
317.99        105.1919
318.44        106.0992
318.89        106.7498
319.35        107.0545
319.80        107.1112
320.25        107.0752
320.70        107.1961
321.16        107.5388
321.61        108.0648
322.06        108.6283
322.51        109.0045
322.97        109.1215
323.42        109.0551
323.87        108.9902
324.32        109.2437
324.78        109.8441
325.23        110.7761
325.68         111.698
326.13        112.0546
326.59        111.7234
327.04        110.9093
327.49        110.0388
327.94         109.816
328.39        110.4078
328.85        111.5696
329.30        113.0203
329.75        113.9817
330.20        114.1946
330.66        113.8476
331.11        113.3055
331.56        113.0789
332.01        113.3355
332.46        113.8941
332.92        114.5144
333.37        114.9698
333.82        115.1101
334.27        115.0892
334.72        115.0215
335.17        115.0582
335.63        115.2612
336.08        115.6381
336.53        116.2023
336.98        117.0321
337.43        118.1065
337.88        119.3592
338.34        120.6479
338.79        121.8577
339.24        122.8484
339.69        123.6364
340.14        124.1334
340.59        124.2354
341.05        124.0053
341.50        123.4964
341.95        122.9945
342.40        122.9294
342.85        123.3989
343.30        124.2955
343.75        125.3775
344.20        126.2193
344.66        126.6903
345.11        126.9028
345.56        126.9777
346.01        127.1204
346.46        127.4071
346.91        127.7705
347.36        128.1656
347.81         128.547
348.26        128.8829
348.72        129.1723
349.17        129.4435
349.62        129.7748
350.07         130.159
350.52        130.5825
350.97        130.8447
351.42        130.6353
351.87        129.9387
352.32        128.8846
352.77        127.8457
353.22        127.3592
353.67        127.5211
354.13        128.1666
354.58        128.9508
355.03        129.2456
355.48        128.8787
355.93        128.0306
356.38        127.0436
356.83        126.4365
357.28        126.3119
357.73        126.4755
358.18         126.629
358.63        126.3103
359.08        125.4118
359.53         124.117
359.98        122.6767
360.43        121.4369
360.88        120.4866
361.33        119.7198
361.78        119.0077
362.23        118.1561
362.68        117.1306
363.13        116.0305
363.58        114.9535
364.03         114.026
364.48        113.2706
364.93        112.6173
365.38        112.0197
365.83        111.4221
366.28        110.7937
366.73        110.1498
367.18        109.4532
367.63        108.6414
368.08        107.7125
368.53        106.6908
368.98        105.6509
369.43        104.7095
369.88         103.905
370.33        103.2227
370.78        102.6177
371.23        102.0135
371.68        101.3856
372.13        100.7412
372.58        100.1304
373.03        99.63167
373.48        99.23473
373.93        98.88667
374.38        98.46094
374.83        97.77341
375.28        96.80174
375.72        95.60938
376.17         94.3964
376.62        93.34146
377.07        92.51733
377.52        91.90221
377.97        91.43983
378.42        91.04629
378.87        90.68253
379.32        90.32684
379.77         90.0527
380.22        89.96641
380.67         90.0434
381.11        90.26218
381.56        90.29754
382.01        89.72794
382.46         88.5388
382.91        86.95789
383.36        85.43169
383.81         84.5624
384.26         84.4378
384.71         84.8468
385.15        85.50174
385.60        85.88967
386.05        85.83656
386.50        85.48731
386.95        84.91402
387.40        84.24098
387.85        83.55367
388.29         82.7721
388.74        82.08946
389.19        81.56965
389.64        81.21493
390.09        80.99944
390.54        80.84956
390.98        80.61147
391.43        80.28881
391.88        79.92043
392.33        79.55833
392.78        79.19763
393.23        78.84292
393.67        78.61064
394.12        78.57666
394.57        78.05872
395.02        77.92934
395.47        77.82252
395.91        77.93932
396.36        77.87051
396.81        77.62164
397.26        77.40474
397.71        77.17432
398.15        76.85061
398.60        76.55247
399.05        76.01401
399.50        75.41418
399.95        75.60889
400.39        76.38248
400.84        76.17105
401.29        75.08387
401.74        74.83305
402.18        75.34696
402.63        75.04948
403.08        74.06143
403.53         73.6007
403.97        73.71985
404.42        73.85835
404.87         73.8924
405.32        73.80167
405.76        73.53217
406.21        73.21313
406.66        72.91793
407.11        72.59676
407.55        72.38969
408.00        72.59587
408.45        73.08185
408.90        73.30267
409.34         73.0931
409.79        72.51121
410.24        71.77783
410.68        71.32163
411.13        71.22327
411.58        71.26699
412.03        71.32906
412.47         71.2915
412.92        71.08514
413.37        70.78419
413.81        70.48898
414.26         70.4094
414.71        70.55332
415.15        70.88187
415.60         71.2547
416.05        71.51242
416.49         71.5983
416.94        71.54164
417.39        71.43173
417.83        71.39418
418.28        71.46729
418.73        71.61112
419.17        71.75764
419.62        71.80354
420.07         71.7165
420.51        71.51388
420.96        71.30531
421.41        71.16552
421.85        71.08739
422.30        71.20357
422.74        71.34061
423.19        71.14136
423.64        70.65624
424.08        70.43831
424.53         70.5284
424.98        70.59051
425.42        70.63245
425.87         70.9113
426.31        71.30211
426.76        71.31472
427.21        70.97776
427.65         70.6889
428.10        70.53446
428.54        70.48943
428.99        70.61176
429.44         70.6831
429.88        70.77582
430.33        71.38245
430.77        72.18127
431.22        72.54878
431.66        72.36655
432.11        71.68513
432.56        70.85081
433.00        70.63138
433.45        71.18323
433.89        72.12241
434.34        72.71478
434.78        73.35236
435.23        72.10941
435.67        70.46561
436.12        70.52271
436.57        70.60379
437.01        71.09381
437.46        71.89434
437.90        71.08784
438.35        70.91695
438.79        70.92282
439.24        70.94788
439.68        70.94634
440.13        71.19068
440.57        71.64778
441.02        71.51604
441.46        70.96811
441.91        71.64687
442.35        73.01552
442.80        72.78262
443.24        71.28706
443.69        71.26974
444.13        72.59222
444.58         73.0612
445.02        72.60139
445.47        72.40556
445.91         72.5853
446.36        72.77716
446.80        72.96729
447.24        73.33827
447.69        73.75497
448.13        73.74105
448.58        73.39505
449.02        73.30209
449.47        73.47349
449.91        73.42271
450.36        73.18189
450.80        73.03302
451.25        73.01838
451.69        73.00036
452.13        72.99347
452.58        73.02747
453.02        73.09465
453.47        73.18409
453.91        73.27023
454.36         73.3616
454.80        73.45009
455.24        73.32426
455.69        72.95691
456.13        72.78337
456.58         72.9643
457.02        71.80309
457.46        71.90845
457.91        72.12411
458.35        72.83422
458.79        72.85723
459.24        72.18981
459.68        71.31788
460.13        70.56188
460.57        70.22025
461.01        70.42937
461.46        70.78075
461.90        71.32954
462.34        72.17033
462.79        71.59116
463.23        71.88305
463.68        72.37688
464.12        72.31966
464.56        71.67249
465.01        70.93488
465.45        70.28378
465.89        69.92368
466.34        69.82525
466.78         69.9945
467.22        70.40088
467.67        69.72991
468.11        69.94535
468.55        69.87241
468.99        70.04394
469.44        70.01392
469.88        69.79104
470.32        69.59073
470.77        69.44215
471.21        69.33651
471.65        69.27652
472.10        69.27716
472.54        69.30184
472.98         69.2756
473.42        69.17147
473.87        69.11411
474.31        69.06116
474.75        68.78279
475.20        68.42056
475.64        68.48753
476.08        68.91673
476.52         68.9641
476.97        68.53107
477.41         68.3078
477.85        68.59924
478.29        67.66611
478.74        68.56699
479.18        69.34245
479.62         68.5541
480.06        68.52258
480.50         68.4854
480.95        68.65759
481.39        69.08363
481.83        67.75388
482.27         68.2891
482.72        68.51523
483.16        68.13077
483.60        68.18317
484.04        68.26888
484.48        68.53123
484.93        68.75742
485.37        68.55058
485.81        68.05563
486.25        67.79392
486.69        69.73613
487.14        70.24491
487.58        67.98125
488.02        68.42915
488.46        67.91325
488.90        67.42847
489.34        68.68478
489.79        69.71834
490.23        68.55889
490.67        68.04247
491.11        67.62983
491.55         67.4909
491.99        67.56248
492.43        67.47723
492.88        67.26669
493.32        67.32101
493.76        67.60024
494.20        67.77093
494.64         67.7868
495.08        67.73729
495.52         67.6549
495.96        67.59219
496.41         67.5501
496.85        67.51952
497.29        67.40808
497.73        67.30629
498.17        66.76575
498.61        66.63026
499.05        66.75006
499.49        66.89127
499.93        66.80624
500.37        66.97341
500.82         67.2692
501.26        67.43887
501.70        67.45903
502.14        67.47288
502.58        67.52172
503.02        67.58634
503.46        67.67622
503.90        67.81387
504.34        67.93146
504.78        67.90155
505.22         67.7036
505.66         67.3908
506.10        67.06841
506.54        66.87209
506.98        66.81929
507.42         67.0094
507.86        67.04198
508.30        67.11448
508.74        67.09604
509.18        66.99802
509.62        66.87379
510.06        66.83015
510.50        66.89034
510.94        67.01143
511.38        67.13647
511.82        67.17856
512.26        67.11745
512.70        66.98597
513.14        66.83666
513.58        66.75137
514.02        66.75378
514.46        66.81772
514.90        66.90749
515.34        66.96658
515.78        66.97546
516.22        66.94941
516.66        66.90576
517.10        66.87122
517.54        66.85354
517.98        66.84311
518.42        66.82455
518.86        66.77645
519.30        66.69737
519.74        66.59939
520.18        66.50922
520.62        66.46342
521.06        66.47372
521.50        66.53693
521.93        66.63007
522.37        66.69405
522.81        66.72218
523.25        66.71751
523.69        66.71806
524.13        66.78906
524.57        66.92905
525.01        67.09994
525.45        67.23207
525.89        67.21657
526.32        67.03291
526.76        66.75359
527.20        66.42989
527.64        66.16494
528.08        66.00163
528.52        65.85709
528.96        65.77313
529.40        65.94747
529.83        66.29965
530.27        66.50452
530.71        66.52306
531.15        66.56779
531.59        66.62983
532.03         66.5521
532.46        66.35865
532.90        66.22271
533.34        66.16236
533.78        66.10036
534.22        66.03364
534.66        66.03646
535.09        66.05542
535.53        65.94633
535.97        65.73283
536.41        65.61874
536.85        65.62027
537.28        65.62212
537.72        65.63437
538.16        65.72487
538.60        65.88522
539.04        66.08793
539.47        66.26724
539.91        66.36785
540.35        66.36061
540.79        66.26698
541.22         66.1288
541.66        66.03596
542.10        66.00613
542.54        66.02024
542.97        66.03798
543.41         66.0245
543.85        65.95357
544.29        65.86507
544.72        65.78765
545.16        65.73659
545.60        65.70281
546.04         65.9473
546.47        65.96281
546.91        66.08678
547.35         66.1683
547.79        66.12741
548.22        66.02156
548.66        66.18208
549.10        66.57515
549.53        66.57175
549.97        66.23138
550.41        66.01585
550.84        66.02718
551.28        66.09296
551.72        66.14527
552.15         66.2646
552.59        66.46854
553.03        65.80915
553.46        66.35537
553.90        65.89674
554.34        65.97923
554.77        66.19026
555.21        66.04399
555.65        66.15753
556.08        66.46644
556.52        66.47792
556.96         66.2678
557.39        66.25772
557.83        66.41537
558.27        66.20848
558.70        65.71913
559.14        65.54139
559.57        65.65985
560.01        65.72906
560.45        65.72495
560.88        65.78166
561.32        65.91116
561.75        66.06743
562.19        66.22897
562.63        66.19402
563.06        66.01748
563.50        66.06545
563.93        66.23731
564.37        66.25057
564.80        66.12663
565.24        65.90899
565.68        65.51112
566.11        66.14899
566.55        65.46576
566.98        65.37245
567.42          65.298
567.85        65.53114
568.29        65.99876
568.72        66.37127
569.16        66.71571
569.60        66.82736
570.03        66.88325
570.47        67.26666
570.90        67.62457
571.34        66.58286
571.77        67.30237
572.21        67.53075
572.64        66.94705
573.08        67.64832
573.51        66.61353
573.95         66.6234
574.38        67.02604
574.82        67.16998
575.25        67.07748
575.69        67.03746
576.12        67.22229
576.56        66.35073
576.99        66.75837
577.42        67.01952
577.86        66.81911
578.29        67.78291
578.73        67.78127
579.16        67.63257
579.60        66.86243
580.03        66.86301
580.47        66.75238
580.90        68.00642
581.33        67.61795
581.77        68.37659
582.20        67.81202
582.64        68.19689
583.07         67.4133
583.51         66.9642
583.94        66.63799
584.37        66.72337
584.81         67.2845
585.24        67.34731
585.68        66.82926
586.11        67.47263
586.54        67.67822
586.98        66.53347
587.41        66.04966
587.85         66.7248
588.28        66.59053
588.71        66.61945
589.15        66.40371
589.58        66.39642
590.01        66.05093
590.45        66.39469
590.88        67.05241
591.31        67.09428
591.75        66.58959
592.18        66.06342
592.61        65.77718
593.05        66.54846
593.48        67.47501
593.91        67.30997
594.35        66.98819
594.78        66.03564
595.21        65.83955
595.65        66.31181
596.08        67.68238
596.51        67.28008
596.94        66.82903
597.38        66.37728
597.81        66.43674
598.24        67.07329
598.68        66.52715
599.11          66.114
599.54        67.86008
599.97        67.13964
600.41        66.75943
600.84         66.0722
601.27        66.65919
601.70        66.71294
602.14        66.76543
602.57         66.6482
603.00        66.66031
603.43        65.97272
603.87        67.06921
604.30        67.05592
604.73         66.5358
605.16        65.95943
605.60        65.78414
606.03        65.71536
606.46        65.80109
606.89        65.80087
607.32        66.27383
607.76        66.02664
608.19        66.43137
608.62        66.39171
609.05        66.34525
609.48        66.25629
609.92         67.0058
610.35        66.66911
610.78        65.76084
611.21        66.16764
611.64        65.97444
612.07        66.37774
612.50        66.36459
612.94         66.4164
613.37        66.35902
613.80        66.28962
614.23        65.60035
614.66        65.58758
615.09        65.99131
615.52        66.21015
615.96        66.15811
616.39        66.17939
616.82        66.27345
617.25         66.1216
617.68        65.82769
618.11        65.89739
618.54        66.25805
618.97        66.35997
619.40        66.18988
619.84        65.99373
620.27        65.78648
620.70        65.82311
621.13        66.08029
621.56         65.4248
621.99         64.8985
622.42        64.84661
622.85        65.14217
623.28         64.6339
623.71        64.84699
624.14        65.11171
624.57        65.51048
625.00        65.35304
625.43        65.61459
625.86        65.60701
626.29        65.74191
626.72        65.07123
627.15        65.52897
627.58        65.42497
628.01        65.21323
628.44        65.32009
628.87        65.37164
629.30        64.50539
629.73        65.11795
630.16        65.06775
630.59        65.09087
631.02        65.23972
631.45        65.49381
631.88        65.61317
632.31        65.52364
632.74         65.6333
633.17        65.37154
633.60        65.27312
634.03        65.18525
634.46        65.10329
634.89        65.01745
635.32        64.94085
635.75        64.88352
636.18         64.7739
636.61        64.65238
637.04        64.61924
637.47        64.68064
637.89         64.8001
638.32        64.91216
638.75         64.9379
639.18        64.84147
639.61        64.73849
640.04        64.70634
640.47        64.45724
640.90          64.428
641.33        64.78305
641.76        64.68012
642.18        64.79733
642.61        64.82129
643.04         64.7901
643.47        64.72977
643.90        64.71206
644.33        64.75544
644.76        64.83058
645.18        64.88982
645.61        64.83683
646.04        64.67059
646.47        64.43835
646.90        64.21819
647.33        64.12666
647.75        64.16328
648.18        64.32657
648.61        64.60437
649.04        64.75331
649.47        64.66007
649.89        65.33143
650.32        64.99745
650.75        64.84871
651.18        64.50166
651.61        64.45274
652.03        64.72939
652.46        64.91551
652.89        64.90398
653.32         64.9726
653.74        65.19789
654.17         64.5251
654.60           64.64
655.03        65.03699
655.46         64.2291
655.88        64.06785
656.31        68.05041
656.74        71.32604
657.16        69.70887
657.59        68.27879
658.02        65.95839
658.45        65.91553
658.87         65.0232
659.30        64.71374
659.73        65.00529
660.15        65.65749
660.58        65.00234
661.01        64.93239
661.44        64.94102
661.86        64.70391
662.29        64.21977
662.72         64.5864
663.14        64.51819
663.57        64.44004
664.00        64.10281
664.42         64.1245
664.85        64.52183
665.27        64.96697
665.70        65.28095
666.13        65.38446
666.55        65.24136
666.98        64.80697
667.41        64.22127
667.83        64.13702
668.26        63.95281
668.69        64.13662
669.11        64.41486
669.54        64.66185
669.96        64.82869
670.39        64.94986
670.82        65.03745
671.24        65.07796
671.67        65.07482
672.09        65.00983
672.52        64.92149
672.94           64.84
673.37        64.78816
673.80        64.73492
674.22        64.68363
674.65        64.66482
675.07        64.70689
675.50        64.54159
675.92        64.62211
676.35        64.53807
676.77        64.42949
677.20        64.29036
677.62         64.1804
678.05        64.18549
678.47        64.30801
678.90        64.52979
679.32        64.77486
679.75        64.88106
680.17        64.80556
680.60        64.69695
681.02        64.65633
681.45         64.3072
681.87        64.55672
682.30        64.64648
682.72        64.79634
683.15        64.93447
683.57        65.02905
684.00        64.97228
684.42        64.82935
684.85        64.83444
685.27        64.99834
685.70        65.21857
686.12        65.40649
686.54        65.47603
686.97        65.39938
687.39        65.21875
687.82        64.99429
688.24        64.84133
688.66        64.79321
689.09        64.81746
689.51        64.89998
689.94        64.98606
690.36        65.05936
690.78        65.11546
691.21        65.16519
691.63         65.2134
692.06        65.26546
692.48        65.33503
692.90        65.36697
693.33        65.28121
693.75        65.06909
694.17        64.72783
694.60        64.41753
695.02        64.37257
695.44        64.59942
695.87        65.12528
696.29        65.72689
696.71        65.61017
697.14        64.92776
697.56        64.78492
697.98        65.19584
698.41        65.32285
698.83        65.15536
699.25        65.22827
699.68        65.44738
700.10        65.56272
700.52        65.32525
700.94        65.01984
701.37        64.71111
701.79         64.6022
702.21        64.73083
702.64        65.01434
703.06        65.34958
703.48        65.54974
703.90        65.56032
704.33        65.43931
704.75        65.25144
705.17        65.09361
705.59        65.00689
706.01        64.95901
706.44        64.95436
706.86        65.01657
707.28         65.1286
707.70        65.30156
708.12        65.50013
708.55        65.62254
708.97        65.66338
709.39          65.686
709.81         65.7029
710.23        65.70056
710.66        65.68127
711.08        65.68626
711.50        65.69238
711.92        65.59283
712.34        65.37646
712.76        65.22581
713.19        65.22266
713.61         64.7787
714.03        65.10249
714.45        65.20458
714.87        65.41555
715.29        65.66894
715.71        65.94254
716.13        66.21172
716.56        66.41124
716.98        66.56012
717.40        66.61079
717.82        66.56818
718.24        66.43189
718.66        66.20654
719.08        65.92506
719.50        65.62177
719.92        65.36483
720.34        65.24744
720.76        65.28702
721.19        65.43393
721.61        65.67894
722.03        65.95174
722.45        66.20592
722.87        66.43932
723.29        66.58712
723.71        66.55309
724.13        66.33423
724.55         65.9709
724.97        65.56789
725.39        65.30698
725.81        65.24384
726.23        65.31324
726.65        65.46361
727.07        65.74995
727.49        65.89817
727.91        66.11515
728.33        66.31664
728.75        66.48549
729.17        66.60752
729.59         66.6691
730.01        66.67524
730.43         66.6433
730.85        66.58193
731.27        66.49277
731.69        66.38356
732.10        66.26067
732.52        66.13134
732.94        66.01894
733.36        65.95366
733.78        65.84978
734.20        65.69703
734.62        65.75627
735.04        66.10168
735.46        65.60652
735.88        66.21604
736.30        66.36865
736.72        66.61222
737.13         66.8022
737.55        66.86847
737.97        67.00316
738.39        67.12396
738.81        66.79308
739.23         66.1782
739.65        66.15637
740.06        66.64738
740.48         66.8652
740.90        66.75313
741.32        66.78443
741.74        66.96402
742.16        67.05183
742.57        67.03683
742.99        66.96721
743.41        66.86919
743.83        66.76575
744.25        66.67268
744.67        66.57864
745.08        66.51772
745.50        66.51902
745.92        66.59396
746.34        66.72829
746.75        66.88068
747.17         66.9666
747.59        66.97002
748.01        66.91846
748.42        66.84531
748.84        66.78708
749.26        66.76636
749.68        66.80538
750.09        66.87231
750.51        66.87323
750.93        66.79733
751.35        66.71992
751.76        66.62317
752.18         66.4569
752.60        66.22366
753.01        65.96801
753.43        65.73493
753.85        65.62095
754.27        65.65787
754.68        65.83162
755.10        66.08228
755.52        66.30936
755.93        66.46435
756.35        66.54655
756.77        66.63478
757.18        66.74055
757.60        66.86972
758.02        67.24718
758.43        67.71366
758.85        67.13943
759.26        67.00394
759.68        66.32988
760.10        66.19098
760.51         66.6875
760.93        66.69667
761.34        66.97692
761.76        67.11031
762.18         67.1951
762.59        67.27235
763.01        67.36134
763.42        67.51335
763.84        67.52772
764.26         67.4263
764.67        67.32845
765.09        67.26881
765.50        67.08089
765.92        66.84292
766.33        66.69856
766.75        66.61379
767.16        66.59639
767.58        66.60284
768.00        66.61095
768.41        66.66772
768.83        66.90604
769.24        67.21733
769.66        67.34907
770.07        67.27122
770.49        66.94057
770.90        66.56483
771.32        66.86964
771.73        67.71028
772.15        68.03274
772.56        67.77136
772.97        67.49651
773.39        67.32442
773.80        67.19704
774.22        67.13315
774.63        67.19751
775.05        67.28926
775.46        67.31997
775.88        67.23758
776.29        67.09806
776.70         66.9707
777.12        66.98792
777.53        67.18204
777.95        67.46233
778.36        67.75951
778.77         67.9218
779.19        67.92564
779.60         67.8387
780.02        67.67622
780.43          67.538
780.84        67.48301
781.26        67.21152
781.67         66.8742
782.09        67.32257
782.50         68.3309
782.91        68.28077
783.33        67.72034
783.74        67.43805
784.15         67.6327
784.57        67.57798
784.98        67.33596
785.39         67.3206
785.81        67.55514
786.22        67.94987
786.63        68.39472
787.04        68.68602
787.46        68.78764
787.87        68.75425
788.28        68.65898
788.70        68.58806
789.11        68.55159
789.52         68.5451
789.93        68.56067
790.35        68.57981
790.76        68.60262
791.17        68.62808
791.58        68.65128
792.00        68.60037
792.41        68.48032
792.82        68.42442
793.23        68.41288
793.65        68.12939
794.06        67.73434
794.47        67.89696
794.88        68.47487
795.29        68.72319
795.71        68.48914
796.12        68.31716
796.53         68.2574
796.94        68.16133
797.35         68.0956
797.76        68.27918
798.18        68.62129
798.59        68.83305
799.00        68.85011
799.41        68.81512
799.82        68.78178
800.23        68.78683
800.64        68.84681
801.06        68.91312
801.47        68.98489
801.88         68.9731
802.29        68.85855
802.70        68.67081
803.11        68.45353
803.52        68.27442
803.93        68.17399
804.34        68.14606
804.75        68.18283
805.17        68.31464
805.58        68.57281
805.99        68.73205
806.40        68.80726
806.81        69.28844
807.22         69.9408
807.63        69.69726
808.04        68.73119
808.45        68.26383
808.86        68.40916
809.27        68.53119
809.68        68.52291
810.09        68.50415
810.50        68.44511
810.91        68.31609
811.32        68.22099
811.73        68.32112
812.14        68.63766
812.55        69.12037
812.96        69.60097
813.37        69.76557
813.78        69.53581
814.19        69.03381
814.60        68.44934
815.01        68.03843
815.42         67.8632
815.83        67.84884
816.24        67.95007
816.65        68.07446
817.05        68.18357
817.46        68.29214
817.87        68.39168
818.28        68.41305
818.69        68.35258
819.10        68.20187
819.51        68.06854
819.92        68.15823
820.33        68.50222
820.74        69.02565
821.14        69.55012
821.55        69.78398
821.96        69.66171
822.37        69.27379
822.78        68.76578
823.19        68.39037
823.60        68.23795
824.00        68.26251
824.41        68.36254
824.82        68.46623
825.23        68.52483
825.64        68.57524
826.04        68.61323
826.45        68.58004
826.86         68.4908
827.27        68.36492
827.68           68.23
828.08        68.17137
828.49        68.16058
828.90        68.17963
829.31        68.27295
829.72        68.51174
830.12        68.91023
830.53        69.39501
830.94        69.78834
831.35        69.74194
831.75         69.2164
832.16        68.31252
832.57        67.36259
832.97        66.87241
833.38        66.96525
833.79        67.46832
834.20         68.1677
834.60        68.71667
835.01        68.99989
835.42        69.15564
835.82         69.2034
836.23        69.09926
836.64        68.90063
837.04        68.57215
837.45        68.30392
837.86        68.48174
838.26        69.18291
838.67        70.26359
839.08        71.35065
839.48        71.71901
839.89        71.18026
840.29        69.99139
840.70        68.70287
841.11         67.9306
841.51        67.84797
841.92        68.26194
842.33        68.97063
842.73        69.61546
843.14        69.94608
843.54        70.10646
843.95        70.19707
844.35        70.43291
844.76        70.83092
845.17        71.29212
845.57        71.63998
845.98        71.58105
846.38        71.09246
846.79        70.28484
847.19        69.41154
847.60        68.84764
848.00        68.70658
848.41        68.85825
848.81        69.16785
849.22        69.31323
849.62        69.24174
850.03        69.05482
850.43        68.83042
850.84        68.61906
851.24        68.50689
851.65          68.393
852.05        68.44892
852.46        68.86693
852.86        69.62527
853.27        70.60693
853.67        71.46261
854.07        71.83605
854.48        71.64748
854.88        71.03784
855.29        70.15907
855.69        69.44424
856.10        68.99314
856.50        68.78039
856.90        68.72526
857.31        68.69605
857.71        68.68809
858.12        68.69701
858.52        68.73675
858.92        68.69405
859.33        68.53495
859.73        68.32076
860.13        68.05479
860.54        67.78818
860.94        67.59199
861.34        67.43527
861.75        67.37515
862.15        67.54314
862.55        67.92156
862.96        68.43327
863.36        68.96135
863.76        69.22086
864.17        69.12178
864.57        68.76717
864.97        68.24335
865.38        67.70412
865.78         67.2458
866.18         66.8385
866.58        66.53131
866.99        66.40221
867.39        66.48833
867.79         66.7709
868.19         67.1715
868.60        67.53519
869.00        67.83489
869.40         68.0544
869.80        68.20953
870.21        68.34022
870.61        68.50843
871.01          68.659
871.41        68.68295
871.81        68.42978
872.22        67.89371
872.62        67.12191
873.02         66.3821
873.42        66.12157
873.82        66.43867
874.22        67.19956
874.63        68.03133
875.03        68.35091
875.43         68.0131
875.83         67.2075
876.23        66.28333
876.63        65.78304
877.03        65.85152
877.44        66.29826
877.84        66.90689
878.24        67.32312
878.64         67.3755
879.04        67.04146
879.44        66.56747
879.84         66.4203
880.24        66.66129
880.64        67.11212
881.04        67.46613
881.44        67.26467
881.84        66.43826
882.24        65.18208
882.65        63.93906
883.05        63.37439
883.45        63.64964
883.85        64.57574
884.25        65.77822
884.65        66.60857
885.05        66.85738
885.45        66.69971
885.85        66.39306
886.25        66.34316
886.65        66.64964
887.05         67.1542
887.45        67.66724
887.85        67.89877
888.25        67.76262
888.65        67.37109
889.04        66.86803
889.44        66.48745
889.84         66.2831
890.24        66.18983
890.64        66.12144
891.04        65.94358
891.44        65.63547
891.84        65.27548
892.24        64.94541
892.64        64.74549
893.04        64.71108
893.44        64.81995
893.83        65.05672
894.23        65.34502
894.63        65.66685
895.03        66.00002
895.43        66.35564
895.83        66.76441
896.23        67.19115
896.63        67.57759
897.02        67.79168
897.42        67.66564
897.82        67.19012
898.22        66.48394
898.62        65.69004
899.01        65.00086
899.41        64.51559
899.81        64.18891
900.21        64.07095
900.61          64.231
901.00        64.63907
901.40        65.24375
901.80        65.87656
902.20        66.25854
902.59         66.3325
902.99         66.1737
903.39        65.87825
903.79         65.6223
904.18        65.46916
904.58        65.35868
904.98        65.38044
905.38        65.68089
905.77        66.25274
906.17        67.07933
906.57        67.86181
906.96        68.09196
907.36        67.65679
907.76        66.71857
908.15        65.72375
908.55        65.37097
908.95        65.82793
909.34        66.89095
909.74        68.10025
910.14         68.7718
910.53        68.67597
910.93         68.0534
911.33        67.16547
911.72        66.40002
912.12        65.96062
912.52        65.73371
912.91        65.65054
913.31        65.63744
913.70        65.66263
914.10        65.73286
914.49        65.95708
914.89        66.40588
915.29        67.08362
915.68        67.94424
916.08        68.67932
916.47        68.86995
916.87        68.45412
917.26        67.53904
917.66        66.57809
918.05        66.11301
918.45        66.26373
918.84        66.92755
919.24        67.70691
919.64        68.02979
920.03          67.751
920.42         67.0239
920.82        66.26365
921.21         66.0496
921.61        66.49507
922.00        67.44975
922.40        68.49948
922.79        69.06345
923.19        68.92707
923.58        68.30501
923.98        67.53667
924.37        67.04881
924.77        66.97442
925.16        67.14709
925.55        67.41393
925.95         67.5034
926.34        67.34935
926.74        67.03661
927.13        66.65774
927.52        66.27393
927.92        65.97252
928.31        65.72378
928.70        65.55933
929.10        65.50341
929.49         65.5444
929.89        65.62419
930.28        65.85143
930.67        66.29385
931.07        66.90006
931.46        67.68967
931.85         68.3418
932.24        68.39709
932.64        67.82734
933.03        66.75819
933.42        65.67208
933.82        65.26363
934.21         65.6755
934.60        66.75057
934.99         68.0451
935.39         68.7514
935.78        68.66669
936.17        67.93501
936.56        66.97667
936.96        66.44202
937.35        66.50238
937.74        66.97312
938.13        67.46193
938.53        67.38703
938.92         66.6422
939.31        65.45753
939.70        64.29099
940.09        63.77943
940.49        64.02058
940.88        64.85688
941.27        65.88724
941.66        66.38155
942.05        66.13878
942.44        65.41506
942.84         64.6157
943.23        64.36626
943.62        64.82449
944.01        65.72313
944.40        66.82276
944.79        67.76327
945.18         68.3657
945.57        68.71926
945.97        68.69342
946.36         68.1835
946.75        67.21716
947.14         65.9324
947.53        64.62933
947.92        63.72727
948.31        63.33721
948.70        63.36665
949.09        63.76289
949.48        64.39658
949.87        65.15595
950.26        66.02771
950.65        66.82595
951.04        67.26104
951.43        67.25253
951.82        66.84251
952.21         66.1927
952.60        65.60346
952.99        65.20902
953.38        64.99432
953.77         64.9251
954.16         64.9298
954.55        64.96674
954.94        65.01562
955.33        65.15837
955.72        65.51382
956.11        66.06599
956.50        66.78111
956.89        67.28219
957.28        66.96856
957.66        65.77329
958.05        63.96956
958.44        62.21526
958.83        61.45142
959.22        61.83512
959.61        63.09354
960.00        64.65545
960.39        65.43494
960.78        65.09319
961.16        63.99444
961.55        62.65461
961.94        61.73533
962.33        61.43773
962.72        61.56354
963.11        62.00719
963.49        62.60514
963.88        63.15508
964.27         63.6962
964.66        64.22878
965.04        64.78915
965.43        65.31688
965.82        65.79523
966.21        65.98524
966.60        65.51348
966.98         64.3576
967.37        62.79368
967.76        61.30909
968.15        60.47049
968.53        60.38544
968.92        60.94012
969.31         61.8403
969.69        62.47157
970.08        62.53609
970.47        62.20022
970.86         61.8564
971.24        62.09857
971.63        63.04169
972.02        64.50371
972.40        66.03527
972.79        66.51611
973.17        65.72289
973.56        64.08556
973.95        62.31467
974.33        61.30675
974.72        61.25613
975.11        61.87654
975.49        62.89831
975.88        63.71463
976.26         64.1086
976.65        64.21174
977.04        64.08485
977.42        63.78756
977.81        63.34874
978.19        62.71111
978.58         62.1231
978.96         61.9726
979.35        62.31421
979.74        63.09609
980.12        64.07724
980.51        64.56071
980.89        64.48846
981.28        64.03539
981.66        63.54263
982.05        63.48734
982.43        63.99376
982.82        64.86697
983.20        66.06148
983.59        67.36737
983.97        68.69856
984.35         70.0536
984.74        71.04991
985.12        71.31511
985.51         70.7298
985.89         69.4368
986.28        67.99809
986.66        67.18465
987.04        67.24673
987.43        67.98708
987.81        69.01476
988.20        69.42327
988.58        68.95094
988.96        67.78233
989.35        66.41754
989.73        65.55016
990.12        65.31565
990.50         65.5742
990.88        65.79861
991.27         65.1276
991.65        63.44846
992.03        61.12627
992.42        59.04971
992.80        58.38039
993.18        59.33512
993.56        61.62788
993.95        64.31068
994.33        65.71264
994.71        65.17066
995.10        63.28194
995.48        61.09565
995.86        60.24946
996.24         61.1391
996.63        63.19229
997.01        65.85704
997.39        67.63019
997.77         67.8542
998.15        67.07959
998.54        65.71998
998.92        64.23842
999.30        62.96282
999.68        61.75458
1000.06        60.95499
1000.45        61.03852
1000.83         62.1311
1001.21        64.20505
1001.59        66.79408
1001.97        68.59067
1002.35        69.05833
1002.73        68.56094
1003.12        67.69428
1003.50        67.16013
1003.88        67.24221
1004.26        67.51176
1004.64        68.10815
1005.02         69.2558
1005.40         70.8239
1005.78        72.92328
1006.16        74.36716
1006.54         73.2714
1006.92        69.62204
1007.30        64.18174
1007.69        59.08816
1008.07        57.25197
1008.45        59.43631
1008.83        65.01134
1009.21        72.26911
1009.59        76.85727
1009.97        76.68882
1010.35        73.05387
1010.73        67.71687
1011.11        63.27568
1011.49        60.61504
1011.86        58.94793
1012.24        58.27167
1012.62        58.64913
1013.00         59.9597
1013.38        62.43323
1013.76        65.52501
1014.14         67.5518
1014.52        67.69252
1014.90        66.17301
1015.28        63.94306
1015.66        62.50731
1016.04        62.25615
1016.41        62.86858
1016.79        63.85076
1017.17        64.37453
1017.55        64.15114
1017.93        63.41082
1018.31        62.74826
1018.69           62.96
1019.06        64.23648
1019.44        66.51614
1019.82        68.79478
1020.20        68.88132
1020.58        66.21609
1020.95        61.64298
1021.33         57.4358
1021.71        56.06557
1022.09         57.8445
1022.46        62.43647
1022.84        68.17863
1023.22        70.75764
1023.60        68.44036
1023.97         62.6051
1024.35         56.5685
1024.73        54.01676
