SpectraSmart Spectrum 2.9.0.0
--------- Device Information -----------
Spectrum Name :  反射率_0
Saving Time :  2024/04/27 00:43:18
Spectro-Module Model Name : SE2030-DUVN
Spectro-Module Serial Number : OS361AC55029948
Wavelength Start : 200
Wavelength End : 1025
Wavelength Unit : Wavelength(nm)
Spectrum Unit : Reflectance(%)
-----------Spectrum Setting ------------
Integration Time : 20ms
Average : 10
Boxcar : 0
Background removal :  enabled
linearity correction :  enabled
SC :  disabled
Intensity correction :  disabled
DWT denoise :  enabled
savitzky-golay :  disabled
FFT :  disabled
Running average :  disabled
Kalman :  disabled
High pass :  disabled
---------------BEGIN--------------------
Wavelength(nm)             Reflectance(%)
200.29               0
200.75        36.91469
201.21        34.73421
201.67        32.97158
202.13        31.97936
202.58        31.62917
203.04        31.95014
203.50        33.55344
203.96        37.40955
204.42        43.57961
204.88         51.6447
205.34        58.68089
205.80        60.16508
206.26        55.71461
206.72         47.4963
207.18        39.44998
207.64        34.53223
208.10        32.53382
208.55        32.74704
209.01        34.24329
209.47        34.46747
209.93        32.60564
210.39        30.71074
210.85        29.62856
211.31        29.60476
211.77        30.79061
212.23        33.88517
212.69        43.12117
213.14        66.35749
213.60        77.48212
214.06        70.88486
214.52        63.00968
214.98        58.14303
215.44        54.61403
215.90        50.46462
216.36        46.50921
216.81        44.18901
217.27        44.37584
217.73        48.38688
218.19        54.68778
218.65        55.15591
219.11        48.50832
219.57        40.21171
220.02        36.61997
220.48        41.96046
220.94        56.60854
221.40        82.82919
221.86         119.468
222.32        141.4864
222.77        128.7379
223.23        98.83949
223.69        70.40659
224.15        53.47725
224.61        46.00601
225.06        42.98788
225.52        42.98991
225.98        44.78791
226.44        47.70821
226.90        52.16636
227.36         56.6758
227.81        58.39241
228.27        57.00336
228.73        53.29716
229.19        49.57867
229.65        48.63176
230.10        50.55726
230.56        54.47026
231.02        58.32312
231.48        58.87029
231.93        55.75653
232.39        50.81099
232.85        46.17786
233.31        44.56977
233.77        46.21558
234.22        50.03971
234.68         54.6561
235.14        58.00533
235.60        59.41942
236.05        59.60939
236.51        58.88928
236.97        58.01356
237.43        57.44716
237.88        56.86732
238.34        56.69298
238.80        58.03497
239.26         61.3364
239.71        67.38811
240.17        75.33948
240.63         82.1086
241.08        85.57151
241.54        84.92572
242.00        82.52242
242.46        84.20399
242.91        93.91578
243.37        112.9748
243.83        142.9346
244.28        172.3218
244.74        180.8481
245.20        166.7458
245.66        142.6355
246.11        120.8277
246.57        103.5676
247.03        87.71602
247.48        74.36478
247.94        67.90429
248.40         68.3222
248.85        72.03166
249.31         76.6087
249.77        80.04541
250.22        82.31545
250.68        84.11631
251.14        84.69308
251.59        82.26808
252.05        77.36454
252.51        71.98393
252.96        67.82446
253.42        66.56006
253.88        67.62891
254.33        69.61906
254.79         72.9971
255.25        77.81945
255.70        83.60363
256.16        90.18761
256.62        94.97157
257.07        94.12273
257.53        89.41962
257.99        83.53796
258.44        78.52831
258.90        76.49104
259.35        76.34488
259.81        77.50795
260.27        78.81746
260.72         78.9752
261.18        78.16676
261.63        76.54725
262.09        75.13567
262.55        74.37755
263.00        74.09863
263.46        74.23172
263.91        73.98551
264.37        72.80717
264.83        70.70824
265.28        68.03517
265.74        65.65415
266.19        64.23978
266.65        63.92922
267.11        64.30663
267.56        64.86294
268.02        64.80759
268.47        63.92648
268.93        62.53645
269.38        60.88942
269.84        59.44636
270.30        58.32193
270.75        57.33152
271.21        56.48566
271.66        55.73787
272.12        55.04716
272.57        54.41061
273.03        53.69264
273.48        52.63589
273.94        51.29836
274.39        49.75242
274.85        48.27636
275.31         47.0811
275.76        46.18001
276.22        45.53537
276.67        45.02328
277.13        44.59316
277.58        44.13097
278.04        43.68292
278.49        43.13825
278.95         42.4824
279.40        41.66495
279.86        40.79873
280.31        39.87867
280.77        39.04215
281.22        38.27327
281.68        37.61988
282.13         37.0683
282.59        36.70679
283.04        36.48538
283.50        36.40919
283.95        36.37513
284.41        36.24311
284.86        35.98029
285.32        35.65829
285.77        35.35024
286.22        35.24401
286.68        35.35799
287.13         35.5742
287.59        35.81293
288.04        35.89433
288.50        35.80706
288.95        35.58716
289.41        35.29836
289.86        34.94661
290.32        34.61168
290.77        34.28442
291.22        34.06894
291.68         34.0968
292.13        34.38326
292.59        34.93185
293.04        35.66058
293.50        36.45108
293.95        37.25747
294.40        38.11017
294.86        39.07448
295.31        40.24432
295.77         41.6364
296.22         43.1817
296.68        44.79911
297.13        46.35122
297.58        47.81653
298.04        49.24026
298.49        50.68039
298.95        52.25205
299.40        53.96381
299.85        55.77821
300.31        57.64919
300.76        59.47854
301.21        61.25567
301.67         63.0365
302.12         64.8099
302.58        66.65421
303.03        68.53252
303.48        70.44315
303.94        72.40981
304.39        74.39589
304.84        76.41695
305.30        78.48369
305.75        80.50845
306.20        82.45747
306.66        84.33453
307.11        86.10829
307.57        87.82344
308.02        89.42879
308.47        90.95723
308.93        92.42673
309.38        93.85147
309.83        95.38332
310.29        97.04027
310.74        98.76084
311.19        100.4129
311.65        101.7474
312.10        102.6818
312.55        103.2901
313.00        103.7296
313.46        104.2555
313.91        104.9179
314.36        105.6812
314.82        106.4595
315.27        107.1317
315.72        107.6388
316.18        108.0518
316.63        108.3925
317.08        108.7444
317.53        109.1351
317.99        109.5254
318.44         109.905
318.89        110.2296
319.35        110.4848
319.80        110.6946
320.25        110.8809
320.70        111.0798
321.16        111.3007
321.61        111.5737
322.06         111.868
322.51        112.1434
322.97        112.3702
323.42        112.5524
323.87        112.7574
324.32        113.1225
324.78        113.6233
325.23        114.3012
325.68        114.8993
326.13        115.0123
326.59         114.575
327.04        113.7557
327.49        112.9261
327.94        112.7047
328.39        113.2327
328.85        114.2921
329.30        115.6525
329.75         116.611
330.20        116.9307
330.66        116.7756
331.11        116.4392
331.56        116.3242
332.01        116.5691
332.46        117.0064
332.92        117.4856
333.37        117.9432
333.82        118.2614
334.27        118.5499
334.72        118.7738
335.17        118.8388
335.63        118.7572
336.08          118.62
336.53        118.6255
336.98        119.1575
337.43        120.2781
337.88        121.8311
338.34        123.5179
338.79        124.9572
339.24        125.9139
339.69         126.478
340.14        126.6534
340.59        126.4865
341.05        126.0991
341.50        125.5109
341.95        124.9618
342.40        124.8125
342.85        125.1555
343.30        125.9198
343.75        126.9432
344.20        127.9211
344.66         128.725
345.11        129.3876
345.56        129.9125
346.01        130.3286
346.46        130.6635
346.91        130.9156
347.36        131.0693
347.81        131.1306
348.26        131.1146
348.72        131.0149
349.17        130.9678
349.62        131.2201
350.07        131.7837
350.52        132.5973
350.97        133.2937
351.42        133.2814
351.87        132.4762
352.32         131.089
352.77         129.639
353.22        128.8878
353.67        128.9894
354.13        129.7134
354.58        130.6291
355.03        130.9666
355.48        130.5162
355.93        129.5147
356.38        128.3784
356.83        127.7286
357.28        127.6869
357.73        128.0137
358.18        128.3442
358.63         128.114
359.08        127.1872
359.53        125.7842
359.98        124.2044
360.43        122.8645
360.88        121.8766
361.33        121.1155
361.78        120.4344
362.23        119.6117
362.68        118.6022
363.13        117.5108
363.58        116.4476
364.03        115.5559
364.48        114.8575
364.93        114.2739
365.38        113.7268
365.83        113.1122
366.28        112.3951
366.73        111.6129
367.18        110.7784
367.63        109.9042
368.08        109.0078
368.53        108.0927
368.98        107.1941
369.43        106.3668
369.88        105.6232
370.33        104.9512
370.78        104.3277
371.23        103.7161
371.68        103.0982
372.13        102.4727
372.58        101.8379
373.03        101.1896
373.48        100.5211
373.93        99.82925
374.38        99.09345
374.83         98.2944
375.28        97.43909
375.72        96.51756
376.17        95.64366
376.62        94.86809
377.07        94.21285
377.52        93.68756
377.97        93.21537
378.42        92.68266
378.87        92.07379
379.32        91.39667
379.77        90.81141
380.22        90.55012
380.67        90.61958
381.11         90.9721
381.56        91.24426
382.01        90.93172
382.46        89.96702
382.91        88.57433
383.36        87.18603
383.81         86.3954
384.26        86.29104
384.71        86.66102
385.15        87.21199
385.60        87.43165
386.05        87.16627
386.50        86.58192
386.95        85.80932
387.40        85.05262
387.85        84.40845
388.29          83.769
388.74        83.26698
389.19        82.87869
389.64        82.58631
390.09        82.38397
390.54        82.22768
390.98        82.01469
391.43        81.75971
391.88        81.47268
392.33        81.16534
392.78        80.83236
393.23        80.48241
393.67        80.15327
394.12        79.92527
394.57        79.60061
395.02        79.24734
395.47        79.20134
395.91        79.39295
396.36        79.33332
396.81        79.01528
397.26        78.71864
397.71        78.42096
398.15        78.03947
398.60        77.69239
399.05        77.09456
399.50        76.44998
399.95        76.61365
400.39        77.35586
400.84        77.24165
401.29        76.29474
401.74        75.76351
402.18        75.71565
402.63         75.3793
403.08        74.84357
403.53        74.58451
403.97         74.6221
404.42        74.82464
404.87         75.0521
405.32        75.05826
405.76        74.78258
406.21        74.39989
406.66        74.01342
407.11        73.69074
407.55        73.56711
408.00        73.74689
408.45         74.1336
408.90        74.47775
409.34        74.57065
409.79        74.13219
410.24        73.37035
410.68        72.93292
411.13         72.9014
411.58         72.9278
412.03        72.91264
412.47        72.85129
412.92        72.68748
413.37        72.46048
413.81        72.23437
414.26         72.1673
414.71         72.2557
415.15        72.48307
415.60        72.73213
416.05        72.88444
416.49        72.90601
416.94        72.82221
417.39        72.71706
417.83        72.70681
418.28        72.82369
418.73        73.02491
419.17         73.2519
419.62        73.41576
420.07        73.48244
420.51        73.45663
420.96          73.401
421.41         73.3549
421.85        73.30757
422.30        73.31094
422.74        73.26724
423.19        73.15488
423.64        72.93739
424.08        72.63605
424.53        72.33654
424.98        72.24866
425.42        72.42376
425.87        72.79987
426.31        73.19328
426.76        73.27295
427.21         73.0626
427.65        72.70878
428.10        72.29521
428.54        72.70515
428.99        72.62202
429.44        72.91156
429.88        73.16196
430.33        73.84143
430.77        74.60812
431.22        74.74947
431.66        74.29437
432.11        73.75684
432.56        73.36276
433.00        73.33022
433.45        73.78661
433.89        74.40517
434.34        74.48479
434.78        75.76084
435.23         74.2529
435.67        72.53123
436.12        73.44139
436.57        73.55492
437.01        73.77734
437.46        74.03101
437.90        74.42383
438.35        73.35417
438.79        74.05466
439.24        73.95718
439.68        73.97565
440.13        74.16224
440.57        74.51981
441.02        74.55468
441.46        74.32097
441.91        74.86609
442.35        75.79481
442.80         75.7155
443.24         74.8074
443.69        74.74575
444.13        75.48288
444.58        75.75871
445.02        75.52791
445.47        75.55413
445.91        75.86168
446.36        76.03556
446.80        76.01661
447.24        76.51774
447.69        76.42339
448.13        76.61443
448.58        76.76868
449.02        76.88631
449.47        76.93794
449.91        76.86905
450.36         76.7161
450.80        76.47047
451.25        76.24178
451.69        76.13498
452.13        76.18653
452.58        76.35051
453.02         76.5456
453.47        76.64471
453.91        76.60253
454.36        76.48552
454.80         76.3462
455.24        76.08465
455.69        75.68201
456.13        75.52881
456.58        75.80225
457.02        74.84434
457.46        74.84043
457.91        75.74355
458.35        75.80593
458.79        75.82339
459.24        75.20084
459.68        74.30474
460.13        73.47279
460.57        73.10731
461.01        73.36314
461.46        73.78467
461.90        74.46091
462.34        75.20484
462.79         75.2878
463.23        75.33626
463.68        75.11919
464.12        74.87294
464.56        74.56902
465.01        73.78148
465.45        72.79284
465.89        72.70478
466.34        73.27139
466.78        73.53847
467.22        73.52498
467.67        72.40193
468.11        72.70834
468.55        72.79465
468.99        73.22542
469.44        73.26675
469.88        72.89717
470.32        72.54242
470.77        72.29117
471.21         72.1235
471.65         72.0591
472.10        72.11939
472.54        72.22993
472.98        72.24752
473.42        72.13393
473.87        72.04187
474.31        71.93797
474.75        71.61552
475.20        71.18951
475.64         71.1664
476.08         71.5484
476.52        71.52735
476.97        70.95741
477.41         71.3707
477.85        71.64342
478.29        70.68203
478.74        70.73668
479.18        71.76683
479.62        71.30564
480.06        71.46966
480.50         71.2615
480.95        71.30874
481.39        71.67028
481.83        70.65322
482.27        71.05914
482.72        71.34721
483.16        71.16553
483.60        71.14038
484.04        71.28442
484.48        71.42382
484.93        71.52899
485.37        71.35705
485.81         70.9448
486.25        70.95604
486.69        72.80582
487.14        73.45043
487.58        70.77071
488.02        71.57293
488.46        69.94148
488.90        70.22534
489.34        71.48456
489.79        72.57556
490.23        71.60761
490.67        70.86837
491.11        70.18756
491.55        70.10458
491.99        70.51739
492.43        70.49798
492.88         70.0463
493.32        69.90475
493.76        70.10112
494.20         70.2412
494.64        70.29386
495.08        70.37196
495.52        70.44518
495.96        70.45527
496.41        70.37552
496.85         70.2534
497.29        70.03344
497.73        69.91344
498.17        69.14001
498.61        69.32948
499.05        70.06747
499.49        70.36675
499.93        69.95743
500.37        69.99162
500.82        70.38557
501.26        70.39767
501.70        70.05611
502.14        70.03014
502.58        70.35885
503.02        70.13428
503.46        70.32683
503.90        70.34111
504.34        70.42091
504.78         70.3885
505.22        70.21224
505.66        69.94988
506.10        69.74221
506.54        69.62084
506.98          69.459
507.42        70.19782
507.86        69.81458
508.30        69.39708
508.74        69.77936
509.18        69.66099
509.62        69.48693
510.06        69.38694
510.50         69.4071
510.94        69.46601
511.38        69.52532
511.82        69.56136
512.26         69.5601
512.70        69.54072
513.14        69.52309
513.58        69.53464
514.02        69.58168
514.46         69.6475
514.90        69.72263
515.34        69.79447
515.78        69.85258
516.22        69.89861
516.66        69.91508
517.10        69.87391
517.54         69.7762
517.98        69.63712
518.42        69.48869
518.86        69.38127
519.30        69.32893
519.74        69.32074
520.18        69.34533
520.62        69.36933
521.06        69.38899
521.50        69.44146
521.93        69.50552
522.37        69.50209
522.81        69.43416
523.25        69.32483
523.69        69.22851
524.13        69.22769
524.57        69.33064
525.01        69.50076
525.45        69.66927
525.89        69.72363
526.32        69.63028
526.76        69.45133
527.20        69.22308
527.64        69.00967
528.08        68.84151
528.52        68.70033
528.96        68.61784
529.40        68.64198
529.83        68.76769
530.27        68.98933
530.71        69.22167
531.15        69.33287
531.59        69.29368
532.03        69.13258
532.46        68.92451
532.90        68.84164
533.34        68.90535
533.78        69.02443
534.22        69.12083
534.66        69.16135
535.09        69.07173
535.53        68.73805
535.97        68.26242
536.41        67.97829
536.85        67.93539
537.28        67.98238
537.72        68.08215
538.16         68.2254
538.60        68.38145
539.04        68.54994
539.47        68.69619
539.91        68.81126
540.35        68.87468
540.79        68.88533
541.22        68.85625
541.66        68.83849
542.10        68.83589
542.54        68.83853
542.97        68.82549
543.41        68.79391
543.85        68.73553
544.29        68.67171
544.72        68.59856
545.16        68.54766
545.60        68.51388
546.04        68.49751
546.47        68.52109
546.91        68.61419
547.35        68.76972
547.79        68.96651
548.22        69.14394
548.66        69.21927
549.10          69.235
549.53        69.11991
549.97        68.93802
550.41        68.69907
550.84        68.48882
551.28        68.50423
551.72        68.69749
552.15        68.80984
552.59        68.83977
553.03        68.82562
553.46        69.11176
553.90        69.12852
554.34        68.94395
554.77        69.10104
555.21        68.81628
555.65        68.85121
556.08        68.95271
556.52        69.09825
556.96         69.2163
557.39        69.22501
557.83         69.3308
558.27        68.95919
558.70        68.33432
559.14        68.09386
559.57        68.23905
560.01        68.35496
560.45        68.40844
560.88        68.57307
561.32        68.82169
561.75        69.06246
562.19        69.24531
562.63        69.07499
563.06        68.67829
563.50        68.68938
563.93        68.99589
564.37         69.0659
564.80        68.91363
565.24        68.73425
565.68        68.42189
566.11        69.13785
566.55        68.40723
566.98        68.28472
567.42        68.17764
567.85        68.32729
568.29         68.7022
568.72        69.10119
569.16        69.55721
569.60        69.69326
570.03        69.68204
570.47        69.94335
570.90        70.37042
571.34        69.23834
571.77        69.81825
572.21         70.3543
572.64        70.12327
573.08         70.2036
573.51        69.43044
573.95        69.60719
574.38        70.53307
574.82        70.54333
575.25        69.76677
575.69        70.04165
576.12        70.32123
576.56        69.31645
576.99         69.7946
577.42        69.80192
577.86        70.04556
578.29        70.85691
578.73        70.91682
579.16        70.69428
579.60        69.88834
580.03        69.83885
580.47        69.61037
580.90         70.7345
581.33        70.70145
581.77        70.79893
582.20         70.8886
582.64        71.38525
583.07        70.62203
583.51        70.04166
583.94        69.45168
584.37        69.59454
584.81        70.25826
585.24        70.41822
585.68        69.97902
586.11        70.16181
586.54         70.4556
586.98        69.80074
587.41        69.11572
587.85         69.9082
588.28        69.94886
588.71        69.37895
589.15        69.15652
589.58        70.15276
590.01        69.34818
590.45        69.43439
590.88        70.13596
591.31        69.85209
591.75        69.03088
592.18        68.50872
592.61        68.55165
593.05        69.42756
593.48        70.64063
593.91        70.22077
594.35        70.24131
594.78        69.11445
595.21        68.70432
595.65        69.24182
596.08        70.52904
596.51        70.27901
596.94        69.56069
597.38        69.07041
597.81        69.10853
598.24         70.2488
598.68        70.16307
599.11        69.07924
599.54        70.81939
599.97        69.97375
600.41        70.03009
600.84        69.43202
601.27        69.90461
601.70        69.59334
602.14        69.87277
602.57        69.55209
603.00        69.26743
603.43        68.51258
603.87        69.88404
604.30        70.06452
604.73        69.79611
605.16        69.22429
605.60        69.08981
606.03        68.75713
606.46        68.59589
606.89        69.05988
607.32        69.46338
607.76         68.7004
608.19        69.51929
608.62        69.40692
609.05        69.32732
609.48        69.30148
609.92        70.28619
610.35        69.65582
610.78        69.23183
611.21        69.12547
611.64        69.16817
612.07        69.43403
612.50        69.36527
612.94        69.31799
613.37        69.07679
613.80        69.49041
614.23        68.61663
614.66         68.6412
615.09        69.17117
615.52        69.39235
615.96        69.27807
616.39        69.28253
616.82        69.45359
617.25         69.0047
617.68        68.79848
618.11        68.83302
618.54        69.22543
618.97        69.26987
619.40        69.01731
619.84        68.67812
620.27        68.91641
620.70        69.00635
621.13        69.04393
621.56        68.59967
621.99        67.91892
622.42        67.66585
622.85         67.9734
623.28        67.72234
623.71        68.41175
624.14        68.23622
624.57        68.62129
625.00        68.65862
625.43        68.70325
625.86        68.50909
626.29        68.17654
626.72        68.04135
627.15        68.06242
627.58        68.25685
628.01        68.44505
628.44        68.44547
628.87        68.31242
629.30        68.02654
629.73        67.60308
630.16        68.45802
630.59        67.95272
631.02        68.15958
631.45        68.27745
631.88        68.40678
632.31        68.51067
632.74        68.55679
633.17        68.55074
633.60        68.47097
634.03        68.32858
634.46        68.12057
634.89        67.89131
635.32        67.73501
635.75         67.6785
636.18        67.62786
636.61        67.58955
637.04        67.61198
637.47        67.68602
637.89        67.79076
638.32        67.86355
638.75        67.86758
639.18        67.79367
639.61        67.65514
640.04         67.5076
640.47        67.44202
640.90        67.48123
641.33        67.60316
641.76        67.76159
642.18        67.88584
642.61         67.9283
643.04        67.91245
643.47        67.87378
643.90           67.87
644.33        67.91351
644.76        67.98863
645.18        68.04556
645.61        67.98863
646.04        67.81342
646.47         67.5565
646.90        67.31206
647.33        67.21442
647.75         67.2675
648.18        67.50058
648.61        67.84425
649.04        67.92548
649.47        67.65459
649.89        68.14051
650.32        67.62538
650.75        67.61351
651.18        67.62028
651.61        67.66837
652.03        67.76716
652.46        67.96255
652.89        68.18774
653.32         68.1756
653.74        68.09946
654.17        67.67941
654.60        68.12549
655.03        67.97306
655.46        67.25819
655.88        67.35463
656.31        71.24827
656.74        75.24174
657.16        73.47742
657.59        71.99171
658.02        68.78098
658.45        68.92453
658.87        68.20614
659.30        68.41589
659.73        67.74865
660.15        68.98328
660.58        67.93984
661.01        68.04948
661.44        68.09964
661.86        67.70396
662.29        66.92802
662.72        67.14381
663.14        67.10894
663.57        67.26559
664.00        67.25488
664.42        67.47241
664.85        67.89545
665.27        68.30359
665.70        68.56257
666.13        68.62305
666.55        68.46931
666.98        68.04933
667.41        67.47871
667.83        67.35437
668.26        67.09997
668.69        67.17957
669.11        67.35593
669.54        67.54243
669.96        67.70228
670.39        67.85219
670.82        67.98761
671.24        68.07859
671.67        68.12008
672.09        68.07254
672.52        67.97432
672.94        67.92065
673.37         67.8993
673.80        67.73866
674.22        67.51315
674.65        67.45242
675.07        67.59411
675.50        67.80657
675.92        68.00635
676.35        68.08838
676.77        68.02373
677.20        67.84411
677.62        67.63058
678.05         67.5153
678.47        67.53136
678.90        67.64206
679.32        67.79188
679.75        67.90529
680.17        67.94901
680.60        67.95164
681.02        67.93439
681.45        67.90961
681.87        67.89841
682.30         67.9184
682.72        67.97198
683.15        67.94009
683.57        67.87439
684.00        67.95786
684.42        68.17988
684.85        68.36469
685.27        68.48499
685.70        68.64114
686.12        68.78403
686.54        68.83363
686.97        68.78186
687.39        68.62056
687.82        68.37389
688.24        68.33157
688.66        68.16805
689.09        68.13398
689.51        68.16096
689.94        68.20745
690.36        68.27618
690.78        68.33381
691.21        68.40184
691.63        68.53724
692.06        68.71897
692.48        68.85561
692.90        68.88289
693.33        68.79722
693.75        68.58897
694.17        68.19821
694.60        67.80714
695.02        67.71319
695.44        67.93021
695.87        68.48003
696.29        69.11096
696.71        68.94766
697.14        68.15147
697.56        67.92605
697.98        68.30712
698.41        68.40533
698.83        68.21294
699.25         68.3261
699.68        68.64022
700.10        68.74419
700.52        68.57426
700.94        68.26862
701.37        67.96771
701.79        67.89977
702.21         68.1053
702.64        68.48019
703.06        68.89362
703.48        69.12222
703.90        69.10176
704.33        68.90738
704.75        68.61962
705.17        68.35992
705.59        68.18745
706.01        68.06776
706.44        68.02255
706.86        68.12143
707.28        68.35033
707.70         68.6472
708.12        68.95094
708.55        69.25572
708.97        69.48061
709.39        69.38736
709.81         69.0657
710.23        68.93064
710.66        69.03632
711.08        69.19673
711.50        69.30669
711.92        69.29572
712.34        69.14304
712.76        68.89527
713.19        68.62533
713.61        68.49043
714.03        68.51732
714.45        68.65993
714.87        68.88418
715.29        69.13957
715.71        69.39221
716.13         69.6429
716.56        69.83011
716.98        69.94504
717.40        69.94276
717.82        69.83371
718.24        69.64893
718.66        69.44685
719.08        69.26945
719.50        69.11899
719.92        69.01354
720.34        69.00575
720.76        69.10202
721.19        69.12117
721.61        69.34498
722.03        69.55401
722.45         69.7979
722.87        70.05372
723.29        70.23512
723.71        70.20473
724.13        69.94804
724.55        69.52397
724.97        69.06399
725.39         68.7888
725.81        68.76202
726.23        68.90371
726.65         69.1305
727.07        69.45591
727.49        69.57958
727.91        69.73262
728.33        69.86012
728.75        69.99467
729.17         70.1346
729.59        70.27151
730.01        70.37488
730.43        70.35265
730.85        70.22567
731.27        70.13107
731.69        70.07753
732.10        69.97251
732.52        69.82212
732.94        69.70721
733.36        69.66951
733.78        69.59174
734.20        69.46001
734.62        69.59405
735.04         70.0448
735.46        69.49191
735.88        70.02686
736.30         70.1889
736.72        70.56011
737.13        70.80945
737.55          70.849
737.97        71.01839
738.39        71.20925
738.81        70.79627
739.23        69.98656
739.65        69.91192
740.06        70.47884
740.48        70.69219
740.90        70.48816
741.32        70.45168
741.74         70.6272
742.16        70.77751
742.57        70.89487
742.99        71.02611
743.41        71.10941
743.83         71.0335
744.25        70.79294
744.67        70.40728
745.08        70.03612
745.50        69.91956
745.92        70.11618
746.34        70.54877
746.75           71.03
747.17          71.241
747.59        71.11485
748.01        70.74953
748.42        70.31693
748.84        70.10931
749.26        70.20138
749.68        70.44734
750.09        70.73069
750.51        70.97766
750.93        71.07845
751.35        70.87805
751.76         70.4714
752.18        70.19164
752.60        70.07343
753.01        70.02044
753.43        70.01154
753.85        69.87086
754.27        69.82792
754.68        70.04259
755.10         70.0076
755.52        70.17061
755.93        70.33453
756.35        70.48774
756.77        70.68224
757.18        70.83569
757.60        70.94643
758.02        71.34251
758.43        71.86334
758.85        70.93509
759.26        71.23006
759.68        70.01331
760.10        70.35667
760.51        71.25069
760.93        70.60762
761.34        70.62853
761.76        70.56161
762.18        70.79784
762.59        71.23891
763.01        71.27844
763.42        71.02317
763.84        70.94398
764.26        71.09451
764.67        71.22772
765.09        71.29994
765.50        71.05701
765.92        70.64567
766.33        70.55721
766.75        70.72558
767.16          70.744
767.58        70.53306
768.00        70.38055
768.41        70.37714
768.83        70.46275
769.24        70.60374
769.66         70.8857
770.07        71.18315
770.49        70.97796
770.90        70.47652
771.32        70.77924
771.73        71.72475
772.15        71.99331
772.56        71.52073
772.97        71.00079
773.39         70.6424
773.80        70.49036
774.22        70.58923
774.63        70.97639
775.05        71.43076
775.46        71.66465
775.88        71.56567
776.29        71.23756
776.70        70.85437
777.12        70.72507
777.53        70.93492
777.95        71.34747
778.36        71.80669
778.77        72.01432
779.19        71.91254
779.60        71.62183
780.02        71.26535
780.43        71.08792
780.84        71.16919
781.26        71.20875
781.67        71.24617
782.09        71.78745
782.50        72.58246
782.91        72.56747
783.33        71.82509
783.74        71.48505
784.15        71.61832
784.57        71.58085
784.98        71.40942
785.39        71.44872
785.81          71.706
786.22        72.09075
786.63        72.50085
787.04        72.76732
787.46        72.85771
787.87        72.79298
788.28         72.6618
788.70         72.5829
789.11        72.56923
789.52        72.62238
789.93        72.68536
790.35        72.65482
790.76        72.51455
791.17        72.28628
791.58        72.07482
792.00        71.92738
792.41        71.87038
792.82        72.16424
793.23        72.63061
793.65        72.27493
794.06        71.38954
794.47        71.61745
794.88        72.74574
795.29        73.13613
795.71         72.6845
796.12        72.40739
796.53        72.40865
796.94        72.23607
797.35        72.00593
797.76        72.25092
798.18        72.82791
798.59        73.11819
799.00        73.02594
799.41        72.86591
799.82        72.72325
800.23         72.6194
800.64         72.5881
801.06        72.57669
801.47        72.60552
801.88        72.61974
802.29         72.5994
802.70        72.56352
803.11        72.49955
803.52        72.38119
803.93        72.23489
804.34        72.08585
804.75        71.98894
805.17         72.1004
805.58        72.48481
805.99        72.81332
806.40        73.07286
806.81        73.84232
807.22        74.79015
807.63        74.55408
808.04        73.33665
808.45        72.68153
808.86        72.73804
809.27        72.69207
809.68        72.46513
810.09         72.3219
810.50        72.25882
810.91         72.2179
811.32        72.27409
811.73        72.53465
812.14         72.9959
812.55        73.61185
812.96        74.20702
813.37        74.45448
813.78        74.26598
814.19        73.76012
814.60        73.12235
815.01        72.60474
815.42        72.27736
815.83        72.07681
816.24        71.99463
816.65        72.00831
817.05        72.10727
817.46        72.28809
817.87        72.51249
818.28        72.65953
818.69        72.70262
819.10        72.63789
819.51        72.56315
819.92        72.67026
820.33        72.98846
820.74        73.44614
821.14        73.87698
821.55        74.00968
821.96        73.79466
822.37           73.33
822.78        72.77979
823.19        72.42298
823.60        72.35173
824.00        72.50594
824.41        72.76373
824.82        73.02291
825.23        73.21371
825.64        73.37666
826.04        73.47361
826.45        73.39532
826.86        73.15827
827.27        72.79709
827.68        72.42078
828.08        72.25451
828.49         72.3035
828.90        72.51821
829.31        72.85365
829.72        73.22829
830.12        73.61172
830.53        73.96164
830.94        74.17125
831.35        74.01711
831.75        73.49818
832.16         72.6749
832.57         71.8136
832.97         71.3165
833.38        71.28735
833.79        71.59701
834.20        72.10249
834.60        72.56083
835.01        72.88334
835.42        73.17775
835.82        73.40923
836.23        73.43592
836.64        73.28291
837.04         72.9358
837.45        72.62694
837.86        72.81731
838.26        73.60033
838.67        74.79829
839.08         75.9868
839.48        76.35117
839.89        75.68919
840.29        74.31224
840.70        72.82598
841.11        71.90838
841.51        71.74834
841.92        72.11693
842.33        72.83723
842.73        73.59332
843.14        74.12179
843.54        74.56258
843.95        74.88956
844.35        75.12207
844.76         75.2459
845.17        75.21223
845.57         75.0391
845.98        74.75742
846.38        74.42238
846.79        74.05567
847.19        73.70104
847.60        73.38632
848.00        73.14272
848.41         72.9481
848.81        72.85658
849.22        72.85772
849.62        72.98383
850.03        73.21975
850.43        73.49649
850.84        73.63345
851.24         73.6413
851.65        73.48512
852.05         73.3902
852.46        73.63342
852.86        74.24648
853.27        75.09393
853.67         75.8367
854.07        76.14395
854.48        75.93354
854.88        75.34985
855.29        74.53617
855.69        73.90628
856.10        73.54118
856.50        73.41964
856.90        73.43198
857.31        73.40794
857.71        73.33836
858.12        73.21678
858.52        73.10722
858.92        72.97832
859.33        72.81641
859.73        72.66962
860.13        72.48213
860.54        72.20181
860.94        71.88141
861.34        71.52634
861.75        71.26251
862.15        71.33553
862.55        71.75502
862.96        72.40113
863.36        73.10775
863.76        73.50002
864.17        73.45284
864.57        73.09692
864.97        72.52477
865.38         71.9006
865.78        71.33437
866.18        70.79041
866.58        70.35249
866.99        70.16534
867.39        70.28288
867.79        70.66948
868.19         71.2037
868.60        71.65495
869.00        71.98566
869.40        72.21339
869.80         72.3716
870.21        72.53639
870.61        72.78048
871.01        73.00201
871.41        73.12466
871.81        73.05826
872.22        72.78797
872.62        72.34786
873.02        71.86413
873.42        71.53864
873.82        71.43005
874.22          71.492
874.63        71.58033
875.03        71.47596
875.43        71.12418
875.83        70.61644
876.23        70.11331
876.63        69.85122
877.03        69.89844
877.44        70.16677
877.84        70.56121
878.24        70.92316
878.64         71.1348
879.04        71.08316
879.44        70.93867
879.84        71.06348
880.24        71.47401
880.64        72.02597
881.04        72.38691
881.44        72.04278
881.84        70.93855
882.24        69.31371
882.65        67.67516
883.05        66.78649
883.45        66.84892
883.85        67.65241
884.25        68.86063
884.65        69.87354
885.05        70.45683
885.45        70.74904
885.85        70.86399
886.25        70.99485
886.65        71.20318
887.05        71.38796
887.45         71.4931
887.85        71.46729
888.25        71.29761
888.65        71.02972
889.04        70.72921
889.44        70.50013
889.84        70.35955
890.24        70.30095
890.64        70.25401
891.04        70.10286
891.44        69.83732
891.84         69.5059
892.24        69.22837
892.64        69.17644
893.04        69.38219
893.44        69.79855
893.83        70.31106
894.23        70.67255
894.63        70.83356
895.03        70.83173
895.43        70.79531
895.83        70.95029
896.23        71.32328
896.63        71.80369
897.02        72.20318
897.42        72.25321
897.82        71.90612
898.22        71.31564
898.62        70.61461
899.01        69.97976
899.41        69.51057
899.81         69.1401
900.21        68.96283
900.61        69.12989
901.00        69.62259
901.40        70.37507
901.80         71.1235
902.20        71.43161
902.59        71.22097
902.99        70.62025
903.39        69.87694
903.79         69.4121
904.18        69.34428
904.58        69.53708
904.98        69.92559
905.38        70.41888
905.77        70.95314
906.17        71.58389
906.57        72.11941
906.96        72.23387
907.36         71.8624
907.76          71.096
908.15        70.30662
908.55        70.07927
908.95         70.5461
909.34        71.55083
909.74         72.6505
910.14        73.19057
910.53        72.96494
910.93        72.20379
911.33        71.20666
911.72        70.42248
912.12        70.05882
912.52        69.98083
912.91        70.05542
913.31        70.11047
913.70        70.09158
914.10        70.03214
914.49        70.09054
914.89        70.42113
915.29        71.05851
915.68        71.93068
916.08         72.7042
916.47        72.92209
916.87        72.50742
917.26         71.5844
917.66        70.60847
918.05        70.11197
918.45        70.22099
918.84        70.83714
919.24        71.58083
919.64        71.91984
920.03        71.71836
920.42        71.11298
920.82        70.50291
921.21        70.44404
921.61        71.03613
922.00        72.13409
922.40        73.30315
922.79        73.93584
923.19         73.8117
923.58        73.15612
923.98        72.33656
924.37         71.8173
924.77        71.74361
925.16        71.93398
925.55        72.23238
925.95        72.35978
926.34        72.23732
926.74        71.94234
927.13        71.53889
927.52        71.04075
927.92        70.53897
928.31        70.03706
928.70        69.59824
929.10        69.28929
929.49        69.11823
929.89        69.01186
930.28        69.12416
930.67        69.59173
931.07        70.36585
931.46        71.44901
931.85        72.40652
932.24        72.59191
932.64        71.94044
933.03        70.63161
933.42        69.27688
933.82        68.77174
934.21          69.306
934.60        70.66481
934.99        72.31471
935.39         73.2783
935.78         73.2968
936.17        72.56495
936.56        71.55199
936.96        70.99055
937.35        71.07409
937.74        71.56696
938.13        72.07893
938.53        72.03912
938.92        71.33504
939.31        70.22021
939.70        69.08228
940.09        68.44019
940.49        68.38641
940.88        68.79816
941.27        69.43723
941.66          69.867
942.05        69.95052
942.44        69.84171
942.84        69.72292
943.23        69.86929
943.62        70.34096
944.01        70.96332
944.40        71.64182
944.79        72.25943
945.18        72.72797
945.57        73.08345
945.97        73.12657
946.36        72.64336
946.75        71.62529
947.14         70.2477
947.53        68.90083
947.92         68.1239
948.31        68.03927
948.70        68.51659
949.09        69.34235
949.48        70.11745
949.87        70.67295
950.26        71.07598
950.65        71.37656
951.04         71.6812
951.43        72.00755
951.82        72.27257
952.21        72.39698
952.60        72.29207
952.99        71.97286
953.38        71.52708
953.77        71.08089
954.16        70.81251
954.55        70.75742
954.94        70.83498
955.33        71.00487
955.72        71.18282
956.11        71.31302
956.50        71.44006
956.89        71.39536
957.28        70.91489
957.66        69.98257
958.05        68.72726
958.44        67.54514
958.83        67.00003
959.22        67.18027
959.61        67.96066
960.00        68.90527
960.39        69.20129
960.78         68.6359
961.16        67.45972
961.55        66.25368
961.94        65.78051
962.33        66.21892
962.72        67.38209
963.11        68.83773
963.49         69.7723
963.88         69.8048
964.27        69.16582
964.66        68.39658
965.04        68.33875
965.43        69.11439
965.82        70.52371
966.21        71.92827
966.60         72.1227
966.98        70.80141
967.37        68.54114
967.76        66.23745
968.15        64.97794
968.53        64.97345
968.92        65.92403
969.31        67.34789
969.69         68.2793
970.08        68.27568
970.47        67.65372
970.86         66.9367
971.24         66.8712
971.63        67.62224
972.02        68.94679
972.40         70.4035
972.79          70.891
973.17        70.17851
973.56        68.68651
973.95        67.07138
974.33        66.15358
974.72        66.10601
975.11        66.64477
975.49        67.50201
975.88        68.08131
976.26        68.19822
976.65        68.00234
977.04        67.58212
977.42        67.02578
977.81         66.3782
978.19        65.58773
978.58        64.92368
978.96        64.80425
979.35         65.2658
979.74        66.21803
980.12        67.36173
980.51        67.89278
980.89        67.72697
981.28        67.09653
981.66        66.34089
982.05        65.92913
982.43        66.01028
982.82        66.39258
983.20        67.20104
983.59        68.53139
983.97        70.37846
984.35        72.66705
984.74        74.73357
985.12        75.71249
985.51        75.33018
985.89        73.83363
986.28        72.03349
986.66         71.1107
987.04        71.41743
987.43        72.62664
987.81        74.16686
988.20        74.76493
988.58         74.0622
988.96        72.41624
989.35        70.50077
989.73        69.22426
990.12        68.78819
990.50        68.96326
990.88        69.26915
991.27        68.91472
991.65        67.75856
992.03        66.15152
992.42        64.74555
992.80        64.36517
993.18        65.18846
993.56          66.966
993.95        69.06451
994.33        70.46606
994.71        70.64747
995.10        69.97257
995.48        68.96315
995.86        68.51757
996.24        68.85233
996.63        69.52947
997.01        70.40467
997.39        70.83897
997.77        70.57755
998.15        70.00563
998.54         69.1156
998.92        67.70139
999.30        65.95942
999.68        63.98736
1000.06        62.52678
1000.45        62.61726
1000.83        64.51466
1001.21        68.06116
1001.59        72.36779
1001.97        75.16011
1002.35        75.51258
1002.73        74.06568
1003.12        72.07417
1003.50         71.1596
1003.88        71.81942
1004.26        73.39271
1004.64         75.5844
1005.02        77.70107
1005.40        79.20683
1005.78        80.45372
1006.16         80.6825
1006.54        78.67307
1006.92        74.60749
1007.30        69.08244
1007.69        63.91335
1008.07        61.49788
1008.45        62.49415
1008.83        66.43275
1009.21         72.0611
1009.59        76.07521
1009.97        76.76506
1010.35        74.93783
1010.73        71.74439
1011.11        68.95266
1011.49        67.20676
1011.86        66.00935
1012.24        65.29545
1012.62        64.98721
1013.00        64.99509
1013.38        65.41311
1013.76        66.30922
1014.14        67.54533
1014.52        68.88454
1014.90        70.18948
1015.28        70.96883
1015.66        70.68894
1016.04        69.35185
1016.41        67.09449
1016.79        64.61102
1017.17        63.31642
1017.55          63.576
1017.93        64.92863
1018.31        66.56771
1018.69        67.29578
1019.06        66.83003
1019.44        65.50346
1019.82         63.5641
1020.20        61.78453
1020.58        60.66502
1020.95        59.86829
1021.33        59.62591
1021.71        60.09144
1022.09        61.23738
1022.46        63.36887
1022.84        65.64816
1023.22        66.01811
1023.60        63.86369
1023.97        59.71688
1024.35        55.99469
1024.73         55.4316
