SpectraSmart Spectrum 2.9.0.0
--------- Device Information -----------
Spectrum Name :  反射率_0
Saving Time :  2024/04/27 00:42:49
Spectro-Module Model Name : SE2030-DUVN
Spectro-Module Serial Number : OS361AC55029948
Wavelength Start : 200
Wavelength End : 1025
Wavelength Unit : Wavelength(nm)
Spectrum Unit : Reflectance(%)
-----------Spectrum Setting ------------
Integration Time : 20ms
Average : 10
Boxcar : 0
Background removal :  enabled
linearity correction :  enabled
SC :  disabled
Intensity correction :  disabled
DWT denoise :  enabled
savitzky-golay :  disabled
FFT :  disabled
Running average :  disabled
Kalman :  disabled
High pass :  disabled
---------------BEGIN--------------------
Wavelength(nm)             Reflectance(%)
200.29               0
200.75        53.49833
201.21        49.21992
201.67        45.30436
202.13        42.64181
202.58        41.05066
203.04         40.4471
203.50        40.98773
203.96        42.78662
204.42        45.72414
204.88        49.56847
205.34        53.38255
205.80        55.71938
206.26        55.99093
206.72        54.43363
207.18        51.87551
207.64        48.75635
208.10        44.99738
208.55        40.44885
209.01        34.83965
209.47        31.76391
209.93        33.51077
210.39        37.44391
210.85        42.02594
211.31        48.00148
211.77        57.65738
212.23        77.43716
212.69        122.8506
213.14        187.6778
213.60        164.4116
214.06        102.3512
214.52        65.87624
214.98        51.45928
215.44        47.04115
215.90        46.83646
216.36        48.68189
216.81        49.89617
217.27        49.83186
217.73        49.93613
218.19        49.72352
218.65        47.64737
219.11        44.89633
219.57        42.36762
220.02        41.96204
220.48        45.75684
220.94        54.05759
221.40        68.24071
221.86        88.06264
222.32        100.8912
222.77        95.52248
223.23        80.69128
223.69        65.31764
224.15        54.20376
224.61        46.94213
225.06        41.61718
225.52        38.42972
225.98        37.50885
226.44        38.38615
226.90        40.81459
227.36        43.50594
227.81        44.21187
228.27        42.68521
228.73         39.6654
229.19         36.7327
229.65        35.71901
230.10        36.67443
230.56        38.94285
231.02        41.22157
231.48        41.47424
231.93        39.45946
232.39         36.3871
232.85        33.52688
233.31        32.49205
233.77        33.43805
234.22         35.7406
234.68        38.62918
235.14        41.05804
235.60        42.64534
236.05        43.73508
236.51        44.38277
236.97        44.67216
237.43        44.69933
237.88        44.37431
238.34        43.94856
238.80        44.17238
239.26        45.38675
239.71        48.01772
240.17         51.8693
240.63        56.13161
241.08        60.17776
241.54        63.51568
242.00         66.9591
242.46        72.88569
242.91        83.64103
243.37        100.5588
243.83        124.5105
244.28        146.4144
244.74        150.7838
245.20        136.2741
245.66        115.5584
246.11        100.6245
246.57        92.73181
247.03        88.61685
247.48        85.97635
247.94        81.94827
248.40        77.33968
248.85         73.7777
249.31        71.91649
249.77         71.3646
250.22        71.63161
250.68        72.15116
251.14        73.00779
251.59        74.25043
252.05        75.71729
252.51        77.73694
252.96        77.91142
253.42        74.60901
253.88        68.68774
254.33        61.18412
254.79         56.1017
255.25        56.57035
255.70        61.86102
256.16        70.40383
256.62        77.61575
257.07        76.92541
257.53        70.24381
257.99        61.84696
258.44        55.19811
258.90        53.11426
259.35        54.24091
259.81        57.20942
260.27        60.02724
260.72        60.32472
261.18        58.34082
261.63        55.05268
262.09         52.0729
262.55        50.57398
263.00        50.40056
263.46        51.03055
263.91        51.49417
264.37        50.87471
264.83        49.11617
265.28        46.69975
265.74        44.41528
266.19        42.93155
266.65        42.38344
267.11        42.38886
267.56        42.55935
268.02        42.30342
268.47        41.46737
268.93        40.30407
269.38        38.99181
269.84        37.83532
270.30        36.91623
270.75        36.10957
271.21        35.43526
271.66        34.88669
272.12        34.43584
272.57        34.07183
273.03        33.67938
273.48        33.05661
273.94        32.22333
274.39        31.22201
274.85        30.25143
275.31         29.4673
275.76        28.88577
276.22        28.48401
276.67        28.15471
277.13        27.81889
277.58        27.40462
278.04        26.95003
278.49        26.45648
278.95        26.02545
279.40         25.6274
279.86        25.29961
280.31        24.91796
280.77        24.39654
281.22        23.72024
281.68        22.99307
282.13        22.35303
282.59        22.05189
283.04        22.08625
283.50        22.38015
283.95        22.75145
284.41        22.91171
284.86        22.79065
285.32        22.50648
285.77        22.18612
286.22        22.06316
286.68        22.18314
287.13        22.43065
287.59        22.73632
288.04        22.95999
288.50        23.07699
288.95        23.11363
289.41        23.10383
289.86        23.03372
290.32        22.95425
290.77        22.86861
291.22        22.83848
291.68        22.94536
292.13        23.20729
292.59        23.63107
293.04        24.20951
293.50        24.93623
293.95        25.79148
294.40        26.78228
294.86        27.87756
295.31        29.01969
295.77        30.20219
296.22        31.41875
296.68        32.71375
297.13        34.15018
297.58        35.74304
298.04        37.46659
298.49        39.26055
298.95        41.04776
299.40        42.78816
299.85        44.50326
300.31        46.22284
300.76        47.97482
301.21        49.78123
301.67        51.65374
302.12         53.5475
302.58        55.47722
303.03        57.39843
303.48        59.32994
303.94        61.31618
304.39        63.36193
304.84        65.48113
305.30        67.66119
305.75        69.79566
306.20        71.81173
306.66        73.70379
307.11        75.46514
307.57        77.14566
308.02        78.71966
308.47        80.22248
308.93        81.65558
309.38        83.05733
309.83        84.60205
310.29        86.30937
310.74        88.12504
311.19         89.8602
311.65        91.17348
312.10        91.97678
312.55        92.37444
313.00        92.63223
313.46        93.16939
313.91         94.0642
314.36        95.22576
314.82        96.43787
315.27        97.35849
315.72         97.8735
316.18        98.11793
316.63        98.23763
317.08          98.507
317.53        99.00021
317.99        99.61472
318.44        100.2516
318.89        100.7251
319.35        100.9824
319.80        101.1027
320.25        101.1652
320.70        101.2908
321.16         101.518
321.61        101.8415
322.06         102.218
322.51        102.5887
322.97         102.913
323.42        103.2068
323.87        103.5147
324.32        103.9316
324.78        104.4309
325.23        105.0522
325.68        105.5905
326.13        105.7321
326.59        105.4274
327.04        104.8103
327.49        104.1818
327.94        104.0472
328.39        104.5217
328.85        105.4256
329.30        106.5714
329.75        107.3601
330.20        107.5921
330.66        107.3999
331.11        107.0553
331.56        106.9273
332.01        107.1431
332.46        107.5694
332.92        108.0333
333.37         108.412
333.82        108.5914
334.27        108.6821
334.72        108.7534
335.17        108.8889
335.63        109.1226
336.08        109.4767
336.53        109.9698
336.98        110.6858
337.43        111.6104
337.88        112.6748
338.34        113.7516
338.79        114.7483
339.24         115.543
339.69        116.1629
340.14        116.5315
340.59        116.5494
341.05        116.2892
341.50        115.8221
341.95        115.4189
342.40        115.4889
342.85        116.1147
343.30        117.1577
343.75        118.4195
344.20        119.5469
344.66        120.3991
345.11        121.0638
345.56        121.4918
346.01        121.6284
346.46        121.5264
346.91        121.2114
347.36        120.9125
347.81        121.0102
348.26        121.5558
348.72        122.4156
349.17        123.3484
349.62        123.9937
350.07        124.2367
350.52        124.2066
350.97        123.9079
351.42        123.3653
351.87        122.6567
352.32        121.7864
352.77        121.0076
353.22        120.6883
353.67        120.8723
354.13        121.4637
354.58        122.1402
355.03        122.3046
355.48        121.8091
355.93        120.8178
356.38        119.7066
356.83        119.0513
357.28        118.9638
357.73        119.2455
358.18        119.5506
358.63          119.33
359.08        118.4548
359.53        117.1283
359.98        115.6608
360.43        114.4906
360.88        113.7245
361.33        113.2286
361.78        112.7997
362.23        112.1267
362.68        111.1461
363.13        109.9838
363.58        108.8254
364.03        107.9368
364.48        107.3635
364.93        106.9886
365.38        106.6514
365.83        106.1106
366.28        105.3027
366.73        104.3201
367.18        103.2533
367.63        102.2347
368.08        101.3169
368.53        100.4655
368.98        99.68328
369.43         98.9725
369.88        98.32578
370.33        97.75242
370.78        97.22334
371.23        96.68778
371.68        96.12571
372.13        95.52635
372.58        94.91346
373.03        94.33286
373.48        93.78074
373.93        93.23392
374.38        92.62476
374.83        91.85638
375.28        90.92577
375.72        89.86488
376.17        88.82771
376.62        87.92876
377.07         87.2138
377.52        86.67431
377.97        86.24562
378.42        85.83091
378.87        85.40114
379.32        84.94935
379.77         84.5799
380.22        84.44521
380.67        84.53666
381.11        84.82224
381.56        84.98408
382.01          84.598
382.46        83.62292
382.91        82.26035
383.36        80.91759
383.81        80.14857
384.26        80.03627
384.71        80.39313
385.15        80.93438
385.60        81.16009
386.05        80.92065
386.50        80.36792
386.95        79.64773
387.40        78.99107
387.85         78.4833
388.29        78.00092
388.74        77.61976
389.19         77.2496
389.64        76.87215
390.09        76.52015
390.54        76.19363
390.98        75.86472
391.43        75.56537
391.88        75.27801
392.33        75.03001
392.78        74.77982
393.23          74.509
393.67        74.39462
394.12        74.43665
394.57        73.87234
395.02        73.27765
395.47        73.13326
395.91        73.49097
396.36        73.45341
396.81        73.00933
397.26        72.67567
397.71        72.45307
398.15        72.17837
398.60        71.95358
399.05        71.54884
399.50         71.0954
399.95        71.27419
400.39        71.87777
400.84          71.661
401.29        70.70543
401.74        70.20784
402.18        70.24807
402.63        70.10995
403.08        69.80997
403.53        69.66759
403.97        69.67622
404.42        69.76004
404.87        69.81431
405.32        69.65749
405.76        69.25817
406.21        68.74493
406.66        68.25504
407.11        67.94975
407.55        67.93968
408.00        68.24153
408.45        68.70152
408.90        69.01065
409.34        68.97559
409.79        68.41823
410.24        67.60194
410.68        67.17122
411.13        67.21981
411.58        67.44024
412.03        67.66351
412.47        67.71724
412.92         67.5108
413.37        67.14217
413.81         66.7529
414.26        66.60482
414.71        66.72147
415.15        67.04725
415.60        67.43356
416.05        67.69845
416.49        67.78073
416.94        67.72957
417.39        67.62907
417.83        67.59616
418.28        67.66792
418.73        67.79299
419.17        67.94138
419.62        68.07378
420.07        68.16356
420.51         68.2103
420.96        68.22775
421.41         68.1681
421.85        68.01657
422.30        67.88646
422.74        67.74306
423.19         67.5854
423.64        67.42181
424.08        67.37742
424.53        67.46307
424.98        67.61025
425.42        67.80703
425.87         68.1638
426.31        68.53684
426.76        68.40942
427.21        67.87294
427.65        67.55368
428.10        67.52254
428.54        67.53073
428.99        67.63982
429.44        67.72025
429.88        67.85738
430.33        68.65466
430.77        69.70306
431.22        70.00843
431.66        69.55228
432.11         68.8902
432.56        68.32944
433.00          68.328
433.45        68.95983
433.89        69.63103
434.34        69.71682
434.78        70.76114
435.23        69.36169
435.67         68.3593
436.12        68.59378
436.57        68.85855
437.01        69.41179
437.46        69.61204
437.90         69.4623
438.35        69.00009
438.79        69.04022
439.24        69.02467
439.68        69.15353
440.13        69.49429
440.57         70.0048
441.02        70.22528
441.46        70.17155
441.91        70.74132
442.35        71.57587
442.80        71.40272
443.24         70.4342
443.69         70.3384
444.13        71.06638
444.58        71.33733
445.02        71.11699
445.47        71.14333
445.91        71.43592
446.36        71.69065
446.80        71.87217
447.24        72.10548
447.69        72.33888
448.13        72.35192
448.58        72.22834
449.02        72.20972
449.47        72.28001
449.91        72.29498
450.36        72.31085
450.80        71.84473
451.25         72.0452
451.69        72.03109
452.13        72.13714
452.58         72.3254
453.02        72.52777
453.47        72.62278
453.91        72.56526
454.36        72.40398
454.80        72.17412
455.24        71.91313
455.69        71.65965
456.13        71.44833
456.58         71.3286
457.02        71.04704
457.46        70.73705
457.91        70.90244
458.35        71.31691
458.79        71.23489
459.24        70.66624
459.68        69.94521
460.13        69.36826
460.57        69.10368
461.01        69.24391
461.46         69.6758
461.90        70.24526
462.34        70.66521
462.79        70.65423
463.23        70.79592
463.68        70.90881
464.12        70.66899
464.56        70.09462
465.01        69.28391
465.45        68.44118
465.89        68.32486
466.34        68.75661
466.78        68.83487
467.22         68.5182
467.67         68.1702
468.11        67.97857
468.55        68.15429
468.99        68.48596
469.44        68.53225
469.88        68.23238
470.32        67.94736
470.77        67.74928
471.21        67.57977
471.65        67.45473
472.10        67.39509
472.54        67.39046
472.98        67.39195
473.42        67.37347
473.87        67.48064
474.31        67.59039
474.75        67.29466
475.20        66.71993
475.64        66.54337
476.08        66.81714
476.52        66.74189
476.97        66.21878
477.41        66.57764
477.85        67.04842
478.29        66.09314
478.74        66.38946
479.18        66.96107
479.62        66.69823
480.06        66.78205
480.50        66.61189
480.95        66.76836
481.39        66.68398
481.83        66.41643
482.27        66.20294
482.72        66.43278
483.16        66.08727
483.60        66.15551
484.04        66.29881
484.48        66.61194
484.93        66.93243
485.37         66.8757
485.81        66.54872
486.25        66.27505
486.69        68.57407
487.14        68.67024
487.58        66.01108
488.02        66.82246
488.46          65.497
488.90        65.40217
489.34         66.5689
489.79        67.42319
490.23        66.59571
490.67        66.09879
491.11        65.69712
491.55        65.58762
491.99        65.71013
492.43        65.59999
492.88         65.2826
493.32        65.20952
493.76         65.3847
494.20        65.51458
494.64        65.56234
495.08        65.63793
495.52        65.72816
495.96        65.72247
496.41        65.63538
496.85        65.69117
497.29        65.74022
497.73        65.67921
498.17        64.78378
498.61        64.67693
499.05        65.07609
499.49        65.26287
499.93        64.96366
500.37        64.97335
500.82        65.24735
501.26        65.17065
501.70        65.32996
502.14        65.38866
502.58        65.51371
503.02        65.59421
503.46        65.62543
503.90        65.64534
504.34        65.62758
504.78        65.52902
505.22        65.34595
505.66        65.12164
506.10         64.9366
506.54        64.79682
506.98        64.69794
507.42        64.97339
507.86        65.14674
508.30        64.96273
508.74        65.11828
509.18        64.96898
509.62        64.81798
510.06        64.73331
510.50        64.74657
510.94        64.81137
511.38        64.88832
511.82        64.93858
512.26        64.94585
512.70        64.93247
513.14        64.90463
513.58        64.86915
514.02        64.83387
514.46         64.7914
514.90        64.76554
515.34        64.79745
515.78         64.8875
516.22        65.01923
516.66        65.14326
517.10        65.17967
517.54          65.112
517.98        64.96763
518.42        64.79099
518.86        64.65483
519.30        64.58367
519.74        64.55882
520.18        64.56732
520.62        64.58537
521.06        64.60534
521.50        64.64165
521.93        64.69213
522.37        64.72989
522.81        64.75763
523.25        64.76832
523.69        64.78037
524.13        64.82978
524.57         64.9135
525.01        65.00938
525.45        65.07591
525.89        65.04676
526.32         64.9052
526.76        64.70162
527.20        64.46391
527.64         64.2406
528.08        64.05736
528.52        63.90428
528.96        63.81334
529.40         63.8308
529.83        63.95078
530.27        64.16255
530.71        64.38515
531.15        64.49474
531.59        64.46305
532.03        64.31879
532.46        64.12506
532.90        64.03192
533.34        64.06064
533.78        64.13113
534.22        64.19004
534.66        64.23518
535.09        64.20146
535.53        63.97281
535.97        63.61889
536.41        63.41154
536.85        63.38641
537.28        63.41013
537.72        63.46722
538.16        63.58162
538.60        63.73216
539.04        63.90812
539.47        64.05713
539.91        64.13995
540.35          64.134
540.79         64.0541
541.22        63.93695
541.66        63.86579
542.10        63.85503
542.54        63.88602
542.97        63.92236
543.41        63.93351
543.85        63.89899
544.29        63.84362
544.72        63.77418
545.16        63.71743
545.60        63.66676
546.04        63.67642
546.47        63.74606
546.91        63.73161
547.35        63.68854
547.79         63.9211
548.22        64.32238
548.66        64.44943
549.10        64.33711
549.53        64.17506
549.97        64.04946
550.41        63.79597
550.84        63.48642
551.28        63.49797
551.72        63.82221
552.15        63.53567
552.59        63.87745
553.03        63.72569
553.46        64.00143
553.90        64.02718
554.34        63.96811
554.77         63.8477
555.21        63.73492
555.65        63.74168
556.08        63.86705
556.52        64.06351
556.96        64.22742
557.39        64.29342
557.83        64.22424
558.27        63.87368
558.70         63.3726
559.14        63.16662
559.57        63.25328
560.01        63.35419
560.45         63.4372
560.88        63.57616
561.32        63.76295
561.75        64.00933
562.19        64.24899
562.63        64.10563
563.06        63.69131
563.50          63.647
563.93        63.89116
564.37         63.9413
564.80        63.81975
565.24        63.70999
565.68        63.48039
566.11        64.16928
566.55        63.47599
566.98        63.28095
567.42        63.08816
567.85        63.29959
568.29        63.85746
568.72        64.32293
569.16         64.6935
569.60        64.85611
570.03        64.98858
570.47        65.06598
570.90        65.26054
571.34        64.46299
571.77        64.90226
572.21        65.32674
572.64         65.0045
573.08        65.51323
573.51        64.48311
573.95        64.59351
574.38        65.25643
574.82        65.62837
575.25        65.17319
575.69        65.03562
576.12        65.20541
576.56        64.39383
576.99        64.60047
577.42        64.79484
577.86        64.89606
578.29        65.92323
578.73        65.84744
579.16        65.63005
579.60         64.8107
580.03        64.80269
580.47        64.78343
580.90        65.62006
581.33        65.83286
581.77        65.90829
582.20        66.07674
582.64        66.34393
583.07        65.87558
583.51        65.27062
583.94        64.57162
584.37        64.53921
584.81        65.26794
585.24        65.58075
585.68        65.28335
586.11        65.57897
586.54        65.59214
586.98         64.4889
587.41        64.21828
587.85        64.93191
588.28        64.86706
588.71        64.24125
589.15        64.31978
589.58        64.51566
590.01        64.13966
590.45        64.07314
590.88        64.85879
591.31        64.79178
591.75        64.26595
592.18        63.85301
592.61        63.77371
593.05        64.48255
593.48        65.50523
593.91        65.19804
594.35        64.88388
594.78        64.09651
595.21        63.95371
595.65        64.41696
596.08        65.63632
596.51        65.10762
596.94        64.59995
597.38        64.15073
597.81        64.30785
598.24        64.86083
598.68        64.60531
599.11        64.23008
599.54        65.68445
599.97        65.08363
600.41        64.83929
600.84        64.18094
601.27        64.53422
601.70        64.61355
602.14         64.8091
602.57        64.28635
603.00        64.14632
603.43        63.87914
603.87        64.86081
604.30        64.99579
604.73        64.73934
605.16        64.07433
605.60        64.01694
606.03        63.82097
606.46        63.79406
606.89        63.71734
607.32        64.39486
607.76        64.20979
608.19        64.45029
608.62        64.24036
609.05        64.05215
609.48        64.04612
609.92          65.008
610.35        64.63934
610.78         63.8329
611.21        63.73966
611.64        63.87925
612.07        64.19268
612.50        64.09214
612.94        64.07964
613.37        63.98728
613.80        64.11401
614.23        63.37834
614.66        63.42989
615.09        63.86674
615.52        63.99607
615.96        63.75731
616.39         63.7532
616.82        64.04282
617.25        63.61423
617.68        63.66319
618.11        63.70356
618.54        64.01253
618.97        64.06069
619.40        63.85616
619.84        63.80254
620.27        63.75268
620.70        63.76191
621.13        63.74796
621.56        63.31046
621.99        62.56234
622.42        62.49149
622.85        63.14663
623.28        62.53975
623.71        62.98499
624.14        62.85256
624.57        63.27071
625.00         63.2215
625.43        63.38848
625.86        63.24792
626.29         62.9478
626.72        63.21709
627.15        63.03855
627.58        63.18122
628.01        63.19511
628.44        63.35089
628.87        62.77223
629.30        62.63237
629.73        62.66036
630.16        62.96889
630.59        62.75571
631.02        62.87333
631.45        63.08246
631.88        63.20176
632.31        63.19514
632.74        63.26521
633.17        63.14044
633.60        63.05472
634.03        62.93872
634.46        62.78959
634.89        62.62673
635.32        62.50739
635.75        62.45061
636.18        62.37724
636.61        62.30417
637.04         62.2938
637.47        62.34415
637.89        62.42833
638.32        62.49172
638.75        62.50757
639.18        62.46357
639.61        62.36606
640.04        62.25171
640.47        62.18038
640.90        62.16898
641.33        62.20868
641.76        62.26406
642.18        62.28308
642.61        62.23349
643.04         62.1371
643.47        62.04756
643.90        62.04941
644.33        62.15507
644.76        62.33825
645.18        62.51765
645.61        62.54469
646.04        62.40032
646.47         62.1382
646.90        61.86508
647.33        61.73827
647.75        61.77164
648.18        61.98047
648.61        62.31112
649.04        62.40825
649.47        62.17795
649.89        62.72657
650.32        62.39725
650.75        62.28545
651.18        62.02919
651.61        62.17458
652.03        62.66051
652.46        62.88895
652.89        62.79278
653.32        62.68276
653.74        62.77365
654.17        62.33933
654.60        62.57676
655.03        62.73688
655.46        62.24241
655.88        62.21293
656.31        66.31576
656.74        69.91299
657.16          68.413
657.59        66.96443
658.02        64.25473
658.45        63.38165
658.87        62.98686
659.30        63.22883
659.73        62.38371
660.15        63.85048
660.58        62.59985
661.01        62.55395
661.44        62.38861
661.86        62.05322
662.29        61.57178
662.72        62.02354
663.14        62.15635
663.57        62.15772
664.00        61.78883
664.42        61.83495
664.85        62.30931
665.27        62.75854
665.70        63.01077
666.13        63.07028
666.55        62.91169
666.98        62.47129
667.41        61.88367
667.83        61.77824
668.26        61.57587
668.69        61.73264
669.11        61.99545
669.54        62.24708
669.96        62.43765
670.39        62.62172
670.82        62.78976
671.24        62.82708
671.67        62.76095
672.09        62.73429
672.52        62.75866
672.94         62.6916
673.37        62.54573
673.80        62.40584
674.22         62.3131
674.65        62.25528
675.07        62.25341
675.50        62.30143
675.92        62.36657
676.35        62.36848
676.77        62.29284
677.20        62.20661
677.62        62.06704
678.05        62.00465
678.47        62.00993
678.90        62.06544
679.32        62.14678
679.75        62.23087
680.17        62.30175
680.60         62.3676
681.02        62.42344
681.45        62.46539
681.87        62.50715
682.30        62.50712
682.72        62.49075
683.15        62.54408
683.57        62.64801
684.00        62.60388
684.42        62.47027
684.85        62.50393
685.27        62.70657
685.70        62.96172
686.12        63.17752
686.54        63.25137
686.97        63.16656
687.39        63.01405
687.82          62.842
688.24        62.69894
688.66        62.61249
689.09        62.58708
689.51        62.62047
689.94        62.65932
690.36        62.69625
690.78        62.73639
691.21        62.77833
691.63        62.81027
692.06        62.83121
692.48         62.8443
692.90        62.83755
693.33        62.80216
693.75        62.74414
694.17        62.64589
694.60        62.55573
695.02        62.59188
695.44        62.74773
695.87        62.90217
696.29        63.01475
696.71        63.05413
697.14         63.0107
697.56        62.86229
697.98        62.69407
698.41        62.64799
698.83        62.73077
699.25        62.92878
699.68        63.12627
700.10        63.19146
700.52        63.07105
700.94        62.82207
701.37        62.55775
701.79        62.46598
702.21        62.58314
702.64        62.83718
703.06        63.13932
703.48        63.32604
703.90        63.34734
704.33        63.25475
704.75        63.09879
705.17        62.95107
705.59        62.85071
706.01        62.77951
706.44        62.74413
706.86        62.78994
707.28        62.90821
707.70        63.04574
708.12         63.1958
708.55        63.42811
708.97        63.68084
709.39         63.7203
709.81        63.56367
710.23         63.4764
710.66        63.48151
711.08        63.44464
711.50        63.34787
711.92        63.24902
712.34        63.15654
712.76        63.07272
713.19        63.00217
713.61        62.98416
714.03        63.01241
714.45        63.08233
714.87         63.1996
715.29        63.37351
715.71        63.59077
716.13        63.82792
716.56        64.02539
716.98        64.17348
717.40        64.22151
717.82        64.18093
718.24        64.05411
718.66        63.84726
719.08        63.59258
719.50        63.32278
719.92        63.09325
720.34        62.98004
720.76        62.99917
721.19        63.10509
721.61        63.31284
722.03        63.59494
722.45        63.91232
722.87        64.24847
723.29        64.50079
723.71        64.51035
724.13         64.2576
724.55        63.80468
724.97        63.29738
725.39        62.95329
725.81        62.84056
726.23        62.93694
726.65        63.18509
727.07        63.35106
727.49        63.59571
727.91        63.78042
728.33        63.97409
728.75        64.18144
729.17        64.39483
729.59        64.57873
730.01        64.70025
730.43        64.73241
730.85         64.6706
731.27         64.5317
731.69        64.35065
732.10        64.17605
732.52        64.03004
732.94        63.92616
733.36        63.88194
733.78        63.79811
734.20        63.65549
734.62        63.70034
735.04        64.02012
735.46        63.55908
735.88        64.20575
736.30        64.42001
736.72        64.69304
737.13        64.88508
737.55        64.92813
737.97        64.87747
738.39        64.75298
738.81        64.58331
739.23        64.42691
739.65        64.43082
740.06        64.54104
740.48        64.60668
740.90        64.58636
741.32        64.57426
741.74        64.60374
742.16        64.68142
742.57        64.81401
742.99        64.97906
743.41        65.10641
743.83        65.07425
744.25        64.86683
744.67        64.51502
745.08        64.16194
745.50        64.01438
745.92        64.13016
746.34        64.45027
746.75         64.8141
747.17        64.94524
747.59        64.78828
748.01        64.42921
748.42        64.03671
748.84         63.8798
749.26        64.01911
749.68        64.35762
750.09        64.74879
750.51        64.95844
750.93        64.92538
751.35        64.75652
751.76        64.51469
752.18        64.27987
752.60        64.07389
753.01        63.93242
753.43         63.8645
753.85         63.7673
754.27        63.61776
754.68        64.01854
755.10        63.93192
755.52        64.09065
755.93        64.16845
756.35        64.18791
756.77        64.21983
757.18        64.30405
757.60        64.44521
758.02        64.83429
758.43        65.33351
758.85        64.91908
759.26         64.5754
759.68        64.32967
760.10        64.49057
760.51        64.56108
760.93        64.46863
761.34        64.62492
761.76        64.94932
762.18         65.0836
762.59        65.04015
763.01        64.94165
763.42        64.89886
763.84        64.87482
764.26        64.91492
764.67        65.00394
765.09        65.10085
765.50        65.07629
765.92        64.97042
766.33        64.74207
766.75        64.36688
767.16        64.47615
767.58        64.24644
768.00        64.27257
768.41         64.3343
768.83        64.52431
769.24        64.76308
769.66        64.91872
770.07        64.95195
770.49        64.77596
770.90        64.52005
771.32        64.67642
771.73        65.17351
772.15        65.34898
772.56         65.1797
772.97        65.01278
773.39         64.9421
773.80        64.97156
774.22        65.09982
774.63        65.36784
775.05        65.61974
775.46        65.67635
775.88        65.47012
776.29        65.08388
776.70        64.66998
777.12        64.49577
777.53        64.63598
777.95         64.9794
778.36        65.39741
778.77        65.63289
779.19        65.63219
779.60         65.4899
780.02        65.27727
780.43        65.19481
780.84        65.33783
781.26        65.29632
781.67        65.11331
782.09        65.71956
782.50        66.91684
782.91        66.11031
783.33        65.72176
783.74        65.23451
784.15         65.4191
784.57        65.45888
784.98        65.35744
785.39        65.40568
785.81         65.5718
786.22        65.80408
786.63        66.03557
787.04        66.15971
787.46        66.16812
787.87        66.07144
788.28        65.94376
788.70        65.88445
789.11        65.89438
789.52          65.966
789.93        66.05347
790.35        66.07096
790.76        66.01295
791.17        65.90771
791.58        65.79697
792.00        65.70453
792.41        65.66228
792.82         65.7151
793.23        65.82439
793.65        65.82804
794.06        65.81301
794.47        66.04671
794.88        66.36891
795.29        66.88815
795.71        66.38618
796.12        66.14883
796.53        65.95317
796.94        65.76091
797.35        65.69624
797.76        66.14848
798.18        66.89471
798.59        67.19955
799.00        66.94042
799.41        66.45796
799.82         65.9641
800.23        65.69526
800.64        65.73814
801.06        65.98301
801.47        66.32941
801.88        66.51997
802.29         66.4737
802.70         66.2725
803.11        65.99155
803.52        65.74949
803.93        65.61485
804.34        65.55871
804.75        65.58673
805.17        65.77529
805.58        66.16022
805.99        66.46672
806.40        66.68921
806.81        67.37493
807.22        68.22229
807.63        67.94533
808.04        66.76359
808.45        66.17667
808.86        66.33035
809.27         66.4485
809.68        66.40199
810.09        66.33826
810.50        66.22605
810.91        66.03761
811.32          65.904
811.73        66.02525
812.14        66.42661
812.55        67.04092
812.96        67.66611
813.37         67.9225
813.78        67.70853
814.19        67.17106
814.60        66.51329
815.01        66.01007
815.42        65.73443
815.83        65.60044
816.24        65.60146
816.65        65.71954
817.05        65.92846
817.46        66.22194
817.87        66.50682
818.28        66.58324
818.69        66.41831
819.10        66.03622
819.51        65.62139
819.92        65.52287
820.33        65.82458
820.74        66.41891
821.14        67.06937
821.55        67.38877
821.96          67.284
822.37        66.87514
822.78        66.35397
823.19        66.04651
823.60        66.05959
824.00        66.31639
824.41        66.65636
824.82        66.90918
825.23        66.99601
825.64        66.97736
826.04        66.90692
826.45        66.82494
826.86        66.76971
827.27        66.72726
827.68        66.67494
828.08        66.61167
828.49        66.49027
828.90        66.33588
829.31        66.22606
829.72        66.28024
830.12        66.53616
830.53        66.90553
830.94        67.24026
831.35        67.24374
831.75        66.87145
832.16        66.20149
832.57        65.47905
832.97        65.07227
833.38        65.07477
833.79        65.35557
834.20        65.77672
834.60        66.11369
835.01        66.29375
835.42        66.43018
835.82        66.51727
836.23        66.46768
836.64        66.31845
837.04        66.04464
837.45        65.85155
837.86        66.14497
838.26        66.99853
838.67        68.25368
839.08        69.48462
839.48        69.88104
839.89        69.24606
840.29        67.88142
840.70        66.40845
841.11        65.54537
841.51         65.4847
841.92        65.99492
842.33        66.85616
842.73        67.66833
843.14         68.1516
843.54        68.46323
843.95        68.64191
844.35        68.80509
844.76        68.96758
845.17        69.05959
845.57        69.03629
845.98        68.82738
846.38        68.45985
846.79        67.98063
847.19        67.50873
847.60        67.19502
848.00        67.09108
848.41        67.13654
848.81        67.27611
849.22        67.32677
849.62        67.27914
850.03        67.17656
850.43        67.07282
850.84        66.99008
851.24        66.99143
851.65        66.99557
852.05        67.12632
852.46        67.48843
852.86        68.06004
853.27        68.76735
853.67        69.35336
854.07        69.58524
854.48        69.40493
854.88        68.91267
855.29        68.22027
855.69         67.6757
856.10        67.34247
856.50        67.21899
856.90        67.20783
857.31        67.15337
857.71        67.05188
858.12        66.89211
858.52        66.75565
858.92        66.65216
859.33        66.57638
859.73        66.56763
860.13        66.52534
860.54        66.32045
860.94        65.97868
861.34        65.51434
861.75        65.11775
862.15         65.1366
862.55        65.61059
862.96        66.41271
863.36        67.27382
863.76        67.65231
864.17          67.395
864.57        66.68065
864.97        65.78254
865.38        65.14667
865.78        64.92744
866.18         64.9991
866.58        65.21549
866.99        65.31124
867.39        65.23313
867.79        65.09509
868.19         65.0006
868.60        65.05817
869.00        65.32368
869.40        65.70847
869.80        66.18331
870.21        66.69076
870.61        67.21077
871.01        67.68427
871.41         67.9704
871.81        67.88628
872.22        67.41798
872.62        66.60554
873.02         65.6946
873.42        65.11515
873.82        64.99566
874.22        65.24825
874.63        65.59586
875.03        65.59299
875.43        65.13293
875.83        64.37425
876.23        63.61777
876.63        63.31649
877.03        63.58048
877.44        64.24321
877.84         65.0519
878.24        65.59935
878.64        65.69971
879.04        65.31448
879.44         64.7767
879.84        64.70361
880.24        65.17336
880.64        65.96326
881.04        66.63509
881.44        66.50509
881.84        65.45894
882.24        63.77445
882.65        62.04919
883.05        61.19007
883.45        61.41981
883.85        62.47299
884.25        63.88091
884.65        64.83096
885.05        65.06176
885.45        64.81609
885.85        64.37555
886.25         64.1773
886.65        64.34171
887.05        64.68545
887.45        65.08267
887.85        65.35352
888.25        65.42928
888.65        65.40524
889.04        65.29115
889.44        65.10966
889.84        64.86987
890.24        64.54333
890.64        64.21869
891.04        64.05636
891.44        64.08219
891.84        64.27114
892.24        64.46034
892.64         64.3811
893.04        64.01385
893.44         63.4763
893.83        62.99935
894.23        62.91575
894.63        63.31643
895.03        64.03481
895.43        64.92067
895.83        65.73267
896.23        66.33829
896.63        66.78503
897.02        66.92844
897.42        66.58144
897.82        65.77289
898.22        64.61073
898.62         63.4248
899.01        62.70509
899.41        62.57882
899.81        62.91524
900.21        63.48878
900.61        63.90466
901.00        64.03224
901.40         63.9698
901.80        63.82415
902.20        63.76606
902.59        63.86109
902.99        64.03958
903.39        64.22618
903.79        64.31345
904.18        64.26606
904.58        64.12214
904.98        64.01915
905.38         64.1673
905.77        64.59126
906.17        65.23531
906.57        65.83475
906.96        65.95733
907.36        65.50236
907.76        64.62237
908.15        63.70068
908.55        63.32015
908.95        63.62546
909.34         64.4539
909.74        65.40671
910.14        65.90427
910.53        65.75218
910.93         65.1516
911.33        64.34879
911.72        63.70896
912.12        63.40927
912.52        63.33873
912.91        63.37931
913.31        63.37899
913.70        63.29809
914.10        63.16437
914.49        63.15251
914.89        63.45801
915.29        64.12046
915.68        65.05966
916.08        65.92509
916.47        66.21201
916.87        65.83431
917.26        64.94371
917.66        63.99336
918.05        63.52605
918.45        63.67287
918.84        64.31646
919.24        65.12148
919.64        65.62625
920.03        65.68021
920.42        65.37373
920.82        64.98897
921.21        64.90785
921.61        65.19724
922.00        65.76937
922.40        66.29318
922.79        66.34462
923.19        65.81617
923.58        64.93143
923.98        64.04939
924.37        63.61677
924.77        63.74551
925.16        64.23259
925.55        64.91866
925.95        65.50456
926.34        65.86214
926.74        66.05438
927.13        65.99017
927.52        65.46529
927.92         64.5629
928.31        63.36595
928.70        62.21894
929.10        61.62655
929.49        61.68068
929.89        62.19208
930.28        63.03144
930.67        63.82933
931.07        64.39618
931.46        64.90428
931.85        65.15186
932.24        64.87865
932.64        64.14191
933.03        62.97795
933.42        61.92916
933.82        61.80238
934.21        62.73205
934.60        64.55055
934.99        66.60799
935.39        67.70002
935.78        67.51672
936.17        66.29933
936.56        64.73241
936.96        63.91887
937.35        64.12948
937.74        65.01427
938.13        65.98814
938.53        66.14602
938.92        65.29991
939.31        63.84922
939.70        62.28857
940.09        61.28289
940.49        60.98709
940.88        61.21326
941.27        61.79465
941.66        62.42854
942.05        62.96844
942.44          63.513
942.84        64.03528
943.23        64.47572
943.62        64.82303
944.01        64.99986
944.40        65.08834
944.79        65.27402
945.18        65.58123
945.57        65.97971
945.97        66.22559
946.36         66.0062
946.75        65.25148
947.14        64.13905
947.53        63.03631
947.92        62.45268
948.31        62.48877
948.70        62.99786
949.09        63.71346
949.48        64.16306
949.87        64.19563
950.26        63.94933
950.65        63.59575
951.04        63.43451
951.43        63.55138
951.82        63.80884
952.21        64.12619
952.60        64.39113
952.99        64.55671
953.38        64.69422
953.77         64.7486
954.16         64.6185
954.55        64.30112
954.94        63.79216
955.33        63.28509
955.72        63.13228
956.11         63.4091
956.50         64.0311
956.89        64.67112
957.28        64.75935
957.66        64.16824
958.05        63.14529
958.44         62.0592
958.83        61.43816
959.22        61.39492
959.61        61.75433
960.00        62.32235
960.39         62.7408
960.78        62.85654
961.16        62.77308
961.55        62.57969
961.94        62.33312
962.33        62.09461
962.72        61.86081
963.11         61.6785
963.49        61.69901
963.88        61.87775
964.27        62.13345
964.66        62.51095
965.04        63.11368
965.43        63.86859
965.82        64.81059
966.21        65.47867
966.60        65.03732
966.98         63.3754
967.37        60.91936
967.76        58.57772
968.15        57.47601
968.53        57.79444
968.92         59.2748
969.31        61.25602
969.69        62.37274
970.08         62.0829
970.47        60.81184
970.86        59.39376
971.24        59.02434
971.63         59.9601
972.02        61.85597
972.40        64.03941
972.79        64.94323
973.17        64.15775
973.56        62.26167
973.95        60.16382
974.33        59.01517
974.72        59.06526
975.11        59.94373
975.49        61.23844
975.88        62.09903
976.26        62.24381
976.65        61.90842
977.04        61.35382
977.42         60.9357
977.81        60.74458
978.19        60.61752
978.58         60.6313
978.96        60.89664
979.35         61.3821
979.74        62.11743
980.12        62.93018
980.51        63.25674
980.89        63.09522
981.28        62.56169
981.66        62.01378
982.05        61.96004
982.43        62.51485
982.82        63.49189
983.20        64.75964
983.59        65.94112
983.97        66.91467
984.35        67.73708
984.74        68.17022
985.12        68.08723
985.51        67.45145
985.89        66.34795
986.28        65.23643
986.66        64.72997
987.04         65.0246
987.43        65.95631
987.81        67.16111
988.20        67.78249
988.58        67.54871
988.96        66.59446
989.35        65.35443
989.73        64.45392
990.12        64.02271
990.50        63.95191
990.88        63.80156
991.27        62.86265
991.65        61.09504
992.03        58.86409
992.42        56.97449
992.80        56.46325
993.18        57.52374
993.56        59.88816
993.95        62.74144
994.33        64.63032
994.71        64.89088
995.10        63.98475
995.48        62.67027
995.86        62.22028
996.24        62.94414
996.63        64.30001
997.01         65.9705
997.39        66.97324
997.77        66.88683
998.15        66.20571
998.54        65.02064
998.92        63.27244
999.30        61.23703
999.68        58.99259
1000.06        57.31232
1000.45        57.29003
1000.83        59.18059
1001.21         62.8041
1001.59         67.2666
1001.97        70.26302
1002.35        70.78719
1002.73        69.42619
1003.12        67.33498
1003.50        65.98951
1003.88        65.88679
1004.26        66.48601
1004.64        67.57195
1005.02        68.68494
1005.40        69.49477
1005.78        70.28268
1006.16        70.63073
1006.54        69.80888
1006.92        67.87861
1007.30        65.14048
1007.69        62.55358
1008.07        61.30086
1008.45        61.77731
1008.83        63.72303
1009.21        66.52008
1009.59        68.54108
1009.97        68.91218
1010.35        68.02921
1010.73         66.4334
1011.11        64.93518
1011.49        63.89524
1011.86        63.15808
1012.24        62.72796
1012.62         62.5986
1013.00        62.74481
1013.38        63.15504
1013.76        64.01145
1014.14        65.49538
1014.52        67.41415
1014.90        69.49929
1015.28        70.96651
1015.66        70.87436
1016.04        69.17748
1016.41        66.18519
1016.79        62.75658
1017.17        60.63042
1017.55        60.36628
1017.93         61.4435
1018.31        63.13701
1018.69        64.37421
1019.06        64.87874
1019.44        65.01954
1019.82        64.80186
1020.20        64.28082
1020.58        63.57007
1020.95        62.44688
1021.33        61.56089
1021.71         61.6138
1022.09        62.72646
1022.46        65.15402
1022.84         67.9055
1023.22        68.53693
1023.60          66.289
1023.97        61.79882
1024.35        57.91238
1024.73        57.98091
