SpectraSmart Spectrum 2.9.0.0
--------- Device Information -----------
Spectrum Name :  反射率_0
Saving Time :  2024/04/27 00:44:02
Spectro-Module Model Name : SE2030-DUVN
Spectro-Module Serial Number : OS361AC55029948
Wavelength Start : 200
Wavelength End : 1025
Wavelength Unit : Wavelength(nm)
Spectrum Unit : Reflectance(%)
-----------Spectrum Setting ------------
Integration Time : 20ms
Average : 10
Boxcar : 0
Background removal :  enabled
linearity correction :  enabled
SC :  disabled
Intensity correction :  disabled
DWT denoise :  enabled
savitzky-golay :  disabled
FFT :  disabled
Running average :  disabled
Kalman :  disabled
High pass :  disabled
---------------BEGIN--------------------
Wavelength(nm)             Reflectance(%)
200.29               0
200.75        44.23508
201.21        39.91732
201.67         36.2173
202.13        34.02333
202.58        33.15212
203.04        33.63342
203.50         35.3189
203.96        37.31061
204.42        38.96646
204.88         40.2455
205.34        41.64271
205.80        44.27156
206.26        47.69084
206.72        50.48112
207.18        51.97589
207.64         51.8385
208.10        50.12828
208.55        47.33171
209.01        42.19678
209.47        35.68214
209.93        31.32133
210.39        29.68523
210.85        30.29082
211.31        32.99418
211.77        38.75067
212.23        51.90294
212.69        84.67263
213.14        139.7314
213.60        136.8057
214.06        96.86223
214.52        69.82142
214.98        57.59332
215.44        52.12356
215.90        48.74323
216.36        46.46161
216.81        44.36073
217.27        42.31766
217.73        41.14316
218.19        40.48695
218.65        39.12448
219.11        37.70409
219.57        36.73195
220.02        37.39504
220.48        41.43256
220.94        49.37843
221.40        62.63988
221.86         81.1005
222.32        93.43829
222.77        89.22182
223.23        76.04702
223.69        62.36953
224.15        52.90268
224.61        47.18645
225.06          43.361
225.52        41.19925
225.98        40.34991
226.44        40.47702
226.90        41.55827
227.36        43.01902
227.81         43.7863
228.27         43.6729
228.73        42.81031
229.19        41.84718
229.65         41.5932
230.10        42.06906
230.56        43.04447
231.02        43.79559
231.48        43.24138
231.93        41.33253
232.39        38.85184
232.85        36.69522
233.31        36.02385
233.77        36.91443
234.22        38.98046
234.68        41.47789
235.14        43.35686
235.60        44.29905
236.05        44.60303
236.51        44.62257
236.97        45.09545
237.43        46.27338
237.88         47.8569
238.34        49.55983
238.80         51.2606
239.26        53.02388
239.71        55.47246
240.17        58.30847
240.63        60.91972
241.08         62.9929
241.54           63.88
242.00        65.31083
242.46        71.28249
242.91        85.02628
243.37        109.2725
243.83        144.8191
244.28         175.502
244.74        177.2968
245.20        150.0169
245.66        114.6966
246.11        90.33628
246.57        78.00182
247.03        72.06201
247.48        70.20811
247.94        69.37725
248.40        68.65602
248.85        68.93238
249.31        69.71172
249.77        69.87135
250.22         69.1886
250.68         67.1872
251.14        64.59677
251.59        64.23772
252.05        67.46988
252.51        73.27666
252.96        77.61697
253.42        77.39598
253.88        73.42548
254.33        67.22052
254.79        63.08809
255.25         64.4934
255.70         70.7653
256.16        80.20518
256.62        88.11778
257.07        87.67413
257.53        80.93744
257.99        72.46412
258.44        65.64852
258.90        63.34189
259.35        64.15574
259.81        66.71355
260.27        69.30242
260.72        69.92311
261.18        68.70422
261.63        66.32003
262.09        63.93592
262.55        62.15935
263.00        60.93924
263.46        60.13677
263.91        59.22696
264.37        57.94287
264.83        56.25375
265.28        54.32019
265.74        52.65656
266.19        51.55172
266.65        51.07682
267.11         50.9898
267.56        50.93861
268.02        50.38685
268.47        49.22917
268.93         47.6898
269.38        46.05551
269.84         44.8241
270.30        44.08039
270.75        43.62753
271.21        43.31453
271.66        42.85159
272.12        42.16053
272.57        41.33197
273.03        40.36963
273.48        39.26815
273.94        38.12658
274.39        36.91058
274.85        35.83935
275.31        35.08068
275.76        34.61348
276.22        34.41551
276.67        34.24832
277.13        33.85212
277.58        33.14213
278.04        32.24305
278.49        31.30982
278.95        30.68889
279.40        30.38617
279.86        30.34801
280.31        30.33178
280.77        30.10266
281.22        29.58498
281.68        28.93007
282.13        28.29259
282.59        27.96569
283.04        27.95424
283.50        28.18033
283.95        28.44754
284.41        28.46054
284.86        28.16181
285.32        27.69389
285.77        27.23154
286.22        27.07931
286.68          27.282
287.13        27.68519
287.59        28.15557
288.04        28.44563
288.50        28.51195
288.95        28.41594
289.41         28.2341
289.86        28.00451
290.32        27.80785
290.77        27.63117
291.22        27.55379
291.68        27.68056
292.13        28.02608
292.59        28.59481
293.04        29.34788
293.50        30.22705
293.95        31.19662
294.40        32.27407
294.86        33.44913
295.31        34.69962
295.77        36.02737
296.22        37.40686
296.68        38.87054
297.13        40.45992
297.58        42.18699
298.04        44.04061
298.49        45.95825
298.95        47.85971
299.40        49.70704
299.85        51.52045
300.31        53.35292
300.76        55.26608
301.21        57.27753
301.67        59.37359
302.12        61.46317
302.58        63.50303
303.03        65.43146
303.48        67.30009
303.94        69.17252
304.39        71.07018
304.84        73.03262
305.30        75.05305
305.75        77.06359
306.20         79.0568
306.66        81.03295
307.11        82.95495
307.57        84.81732
308.02          86.498
308.47        88.00736
308.93        89.36837
309.38        90.64888
309.83        92.07908
310.29        93.69866
310.74        95.44538
311.19        97.10699
311.65        98.30789
312.10        98.95554
312.55         99.1627
313.00        99.25578
313.46        99.73951
313.91        100.6962
314.36        102.0129
314.82        103.3633
315.27        104.2272
315.72        104.4652
316.18        104.2821
316.63        103.9739
317.08        104.0499
317.53        104.6322
317.99        105.5361
318.44        106.5404
318.89        107.2572
319.35        107.5635
319.80        107.5936
320.25        107.4772
320.70        107.4165
321.16        107.4874
321.61        107.6693
322.06        107.9137
322.51        108.1613
322.97        108.3744
323.42         108.576
323.87         108.848
324.32        109.3344
324.78        110.0065
325.23        110.8906
325.68        111.6814
326.13        111.8964
326.59        111.4494
327.04        110.5241
327.49         109.557
327.94        109.2693
328.39        109.8298
328.85        111.0008
329.30         112.489
329.75        113.4854
330.20         113.715
330.66        113.3627
331.11        112.7981
331.56        112.5417
332.01        112.7688
332.46        113.3099
332.92        113.9056
333.37        114.2989
333.82         114.341
334.27        114.1886
334.72          114.04
335.17        114.1824
335.63        114.6908
336.08        115.5239
336.53        116.5307
336.98        117.5217
337.43        118.4068
337.88        119.1846
338.34        119.8862
338.79        120.7016
339.24        121.5886
339.69        122.4933
340.14        123.1873
340.59        123.3272
341.05         122.923
341.50        122.1259
341.95        121.3475
342.40        121.2012
342.85        121.8214
343.30        123.0137
343.75        124.4492
344.20        125.5701
344.66        126.1873
345.11        126.4457
345.56        126.4669
346.01        126.4575
346.46        126.5194
346.91        126.6018
347.36         126.711
347.81        126.8839
348.26        127.1132
348.72        127.3789
349.17        127.7063
349.62        128.1568
350.07         128.702
350.52        129.3262
350.97        129.7633
351.42        129.6013
351.87        128.8065
352.32        127.5317
352.77        126.2404
353.22        125.6113
353.67        125.7712
354.13         126.523
354.58        127.4394
355.03        127.7489
355.48         127.253
355.93        126.1915
356.38        125.0001
356.83        124.3361
357.28        124.3258
357.73        124.7107
358.18        125.1233
358.63        124.9913
359.08        124.1618
359.53        122.8527
359.98        121.3177
360.43        119.9037
360.88        118.7255
361.33        117.6948
361.78         116.739
362.23         115.758
362.68        114.7376
363.13        113.7392
363.58        112.8361
364.03        112.1121
364.48        111.5563
364.93        111.1016
365.38        110.6299
365.83        109.9727
366.28        109.0949
366.73        108.0593
367.18        106.9522
367.63        105.9069
368.08        104.9715
368.53        104.1156
368.98        103.3353
369.43        102.6165
369.88        101.9441
370.33        101.3267
370.78        100.7293
371.23        100.0949
371.68        99.40842
372.13         98.6694
372.58         97.9175
373.03        97.22101
373.48        96.58813
373.93        95.99677
374.38        95.38662
374.83        94.66785
375.28        93.83203
375.72          92.901
376.17         92.0098
376.62         91.2433
377.07        90.63808
377.52        90.18869
377.97        89.82816
378.42        89.46258
378.87         89.0582
379.32        88.59233
379.77         88.1853
380.22        88.01437
380.67        88.07365
381.11        88.33957
381.56        88.44293
382.01         87.8758
382.46        86.60807
382.91        84.89499
383.36        83.25841
383.81        82.40766
384.26        82.44147
384.71        83.10908
385.15        84.02637
385.60        84.52177
386.05        84.38325
386.50        83.80946
386.95          82.971
387.40        82.14543
387.85        81.45226
388.29        80.75817
388.74        80.18954
389.19        79.72032
389.64        79.33672
390.09        79.05752
390.54        78.83121
390.98        78.53849
391.43        78.19509
391.88        77.80853
392.33        77.44256
392.78        77.15749
393.23        76.95264
393.67        76.86479
394.12        76.86619
394.57        76.53454
395.02        75.95579
395.47        75.68446
395.91        75.72031
396.36        75.55736
396.81        75.20972
397.26          74.986
397.71        74.85747
398.15        74.62595
398.60        74.36607
399.05        74.01844
399.50        73.66069
399.95        73.52469
400.39         73.5724
400.84        73.44112
401.29        73.09959
401.74        72.75712
402.18        72.42941
402.63         71.9623
403.08          71.485
403.53        71.23564
403.97        71.23836
404.42        71.42621
404.87        71.65827
405.32        71.67772
405.76         71.4103
406.21        71.04884
406.66         70.6993
407.11        70.32098
407.55        70.03861
408.00        70.37623
408.45        70.72095
408.90        70.91317
409.34         70.6739
409.79         70.1851
410.24        69.60272
410.68        69.15906
411.13        68.92438
411.58         68.7785
412.03        68.65312
412.47        68.49126
412.92          68.257
413.37        68.00649
413.81        67.80165
414.26        67.79387
414.71        67.97251
415.15        68.30725
415.60        68.67103
416.05        68.92411
416.49        69.01412
416.94        68.96362
417.39         68.8362
417.83        68.72189
418.28        68.65833
418.73        68.62244
419.17        68.60146
419.62        68.57755
420.07        68.53493
420.51        68.46346
420.96        68.40885
421.41        68.34178
421.85        68.22868
422.30        68.24112
422.74        68.26635
423.19        67.94376
423.64        67.49789
424.08        67.32806
424.53        67.46809
424.98        67.53702
425.42        67.53728
425.87        67.62991
426.31        67.77955
426.76        67.91859
427.21        67.96717
427.65        67.63815
428.10        67.08122
428.54        66.90292
428.99        67.18076
429.44        67.41866
429.88        67.59205
430.33        68.09905
430.77        68.69731
431.22        68.91899
431.66        68.71012
432.11        68.32214
432.56        67.91891
433.00        67.60369
433.45        67.58301
433.89        68.20347
434.34        68.76091
434.78        69.76723
435.23        67.94556
435.67        66.56504
436.12        67.36063
436.57        67.62547
437.01        67.87878
437.46        67.97668
437.90        67.96545
438.35        67.27206
438.79        67.37726
439.24        67.26941
439.68        67.35623
440.13        67.59765
440.57        67.98408
441.02        68.28934
441.46        68.43391
441.91        68.87205
442.35        69.34297
442.80        69.07626
443.24        68.26939
443.69        68.23062
444.13        68.89166
444.58         69.1427
445.02        68.94268
445.47        68.97618
445.91        69.26715
446.36        69.49569
446.80         69.6181
447.24        69.97815
447.69        70.05854
448.13        70.20507
448.58        70.27386
449.02        70.26543
449.47        70.18541
449.91        70.02461
450.36        69.82705
450.80        69.58516
451.25        69.38056
451.69        69.27769
452.13        69.30455
452.58        69.42989
453.02        69.59844
453.47        69.72645
453.91        69.77193
454.36        69.76089
454.80        69.69216
455.24        69.49435
455.69        69.18221
456.13        68.91424
456.58        68.78757
457.02        68.21378
457.46        67.97118
457.91        68.11881
458.35        68.60432
458.79        68.59398
459.24        68.08792
459.68        67.45501
460.13        66.92728
460.57        66.64182
461.01        66.69801
461.46          66.868
461.90        67.04721
462.34        67.66004
462.79        67.59525
463.23        67.80206
463.68          67.859
464.12        67.66447
464.56        67.21116
465.01        66.53978
465.45        65.82802
465.89        65.64835
466.34        65.87774
466.78        66.09264
467.22        65.94173
467.67         65.6095
468.11        65.40345
468.55        65.46384
468.99        65.77276
469.44        65.75307
469.88        65.38855
470.32        65.03227
470.77        64.78668
471.21        64.64983
471.65        64.64149
472.10        64.76543
472.54        64.93488
472.98        64.99874
473.42        64.91288
473.87        64.80814
474.31        64.66949
474.75        64.35827
475.20        63.99563
475.64        63.96535
476.08        64.22762
476.52         64.2325
476.97        63.91437
477.41        63.91486
477.85        63.92682
478.29         63.5591
478.74         63.9522
479.18        64.22853
479.62        63.88501
480.06        63.83284
480.50        63.74527
480.95        63.88931
481.39        64.30309
481.83        63.44011
482.27        63.48362
482.72        64.23928
483.16        63.60931
483.60        63.67976
484.04        63.67923
484.48        63.84102
484.93        64.12632
485.37        63.66722
485.81        63.45419
486.25        63.47854
486.69        65.59912
487.14         65.4639
487.58        63.34643
488.02        64.19315
488.46        63.16643
488.90        62.79629
489.34        63.82273
489.79        64.10136
490.23        64.04436
490.67        63.61018
491.11        63.02939
491.55        62.79133
491.99        62.88269
492.43        62.76798
492.88        62.46473
493.32        62.43087
493.76        62.63218
494.20        62.76488
494.64        62.79311
495.08        62.75883
495.52        62.70257
495.96        62.78154
496.41        62.95854
496.85         63.0148
497.29        62.84251
497.73        62.82007
498.17        62.21864
498.61         62.1068
499.05        62.23946
499.49        62.40329
499.93        62.33361
500.37        62.38786
500.82        62.48898
501.26        62.56654
501.70        62.60429
502.14        62.60732
502.58        62.60251
503.02        62.62532
503.46         62.6817
503.90        62.78046
504.34        62.86458
504.78        62.80399
505.22        62.60248
505.66        62.37166
506.10        62.18392
506.54        62.08141
506.98        62.08537
507.42         62.2047
507.86        62.36454
508.30        62.41949
508.74        62.33797
509.18        62.16723
509.62        61.97072
510.06        61.85043
510.50        61.83575
510.94        61.89075
511.38        61.98119
511.82        62.05373
512.26        62.08899
512.70        62.10648
513.14        62.11149
513.58        62.10995
514.02        62.10675
514.46        62.09408
514.90        62.08081
515.34        62.08641
515.78        62.11084
516.22        62.14574
516.66         62.1746
517.10        62.16909
517.54        62.12357
517.98        62.05164
518.42        61.96047
518.86        61.86166
519.30        61.76508
519.74        61.66971
520.18        61.59647
520.62        61.57529
521.06        61.61063
521.50        61.69793
521.93        61.80567
522.37         61.8609
522.81        61.85458
523.25        61.79844
523.69        61.73494
524.13        61.73437
524.57        61.80527
525.01        61.91704
525.45        62.01788
525.89         62.0249
526.32        61.91553
526.76         61.7426
527.20        61.54124
527.64        61.37072
528.08        61.25471
528.52        61.17385
528.96        61.14265
529.40        61.18293
529.83        61.28467
530.27        61.44641
530.71        61.60378
531.15        61.65912
531.59        61.59435
532.03        61.43429
532.46        61.23806
532.90        61.14564
533.34        61.17541
533.78        61.25172
534.22        61.32273
534.66        61.38417
535.09         61.3714
535.53        61.17116
535.97        60.84471
536.41         60.6454
536.85        60.60643
537.28        60.60227
537.72        60.62447
538.16          60.707
538.60        60.83289
539.04        60.98966
539.47        61.12461
539.91        61.19412
540.35        61.17718
540.79         61.0943
541.22        60.98006
541.66        60.91408
542.10        60.90917
542.54        60.93978
542.97        60.98452
543.41        61.03732
543.85        61.07896
544.29        61.12373
544.72        61.13596
545.16        61.09565
545.60        60.99274
546.04        60.84375
546.47        60.70955
546.91        60.68491
547.35        60.78251
547.79        60.97158
548.22        61.17722
548.66        61.26714
549.10        61.28075
549.53        61.22716
549.97        61.14193
550.41         60.9511
550.84        60.74504
551.28        60.67738
551.72        60.70126
552.15        60.78933
552.59        60.99873
553.03        60.46777
553.46        61.01067
553.90        60.96643
554.34         60.8489
554.77         60.9115
555.21         60.7763
555.65        60.81864
556.08        60.89533
556.52        60.97088
556.96        61.00505
557.39        61.10735
557.83        61.22433
558.27        61.01732
558.70        60.57463
559.14        60.40152
559.57        60.48795
560.01        60.51334
560.45        60.46917
560.88        60.51498
561.32        60.66535
561.75        60.85118
562.19        61.03253
562.63        61.02131
563.06        60.84179
563.50        60.77829
563.93        60.79593
564.37         60.6974
564.80         60.6788
565.24        60.58097
565.68        60.32221
566.11        60.96139
566.55         60.3119
566.98        60.16255
567.42        60.02026
567.85        60.18949
568.29         60.6311
568.72        61.04158
569.16        61.43424
569.60        61.60277
570.03        61.71619
570.47        61.87392
570.90        62.20269
571.34        61.32964
571.77        61.70953
572.21        61.97491
572.64        61.55232
573.08        62.02509
573.51        61.48381
573.95        61.56563
574.38        61.91649
574.82        62.04103
575.25        61.57847
575.69        61.77703
576.12        61.93825
576.56        61.21004
576.99        61.18788
577.42         61.5097
577.86        61.71842
578.29        62.51547
578.73        62.49565
579.16        62.25747
579.60        61.53831
580.03        61.51596
580.47        61.40389
580.90        62.24821
581.33        62.41153
581.77        62.41575
582.20        62.93212
582.64        63.09707
583.07        62.49333
583.51        61.98861
583.94        61.67121
584.37        61.75301
584.81        62.11683
585.24        62.30505
585.68        62.19244
586.11        62.13994
586.54        62.24846
586.98        61.46436
587.41        60.74592
587.85        61.25364
588.28        61.31459
588.71         61.0436
589.15        60.75518
589.58        61.30594
590.01        60.73436
590.45        61.03454
590.88        61.78049
591.31        61.68017
591.75        60.98651
592.18        60.50278
592.61        60.42889
593.05        61.34006
593.48        61.85317
593.91        61.87257
594.35        61.40163
594.78        60.80469
595.21        60.34645
595.65        60.89013
596.08         62.3819
596.51        61.76456
596.94        61.30402
597.38        60.81065
597.81        60.96618
598.24        61.50917
598.68        61.33149
599.11         60.7691
599.54         61.9067
599.97        61.78294
600.41        61.21596
600.84        60.66525
601.27        61.05405
601.70        61.14257
602.14        61.15048
602.57        60.91271
603.00        60.90532
603.43        60.21373
603.87        61.14449
604.30        61.52182
604.73        61.36614
605.16        60.41711
605.60        60.49063
606.03        60.22469
606.46        60.20008
606.89        60.32444
607.32        60.68488
607.76        60.74473
608.19        60.85155
608.62        60.65787
609.05        60.42222
609.48        60.46558
609.92        61.54097
610.35        60.99415
610.78        60.62123
611.21        60.17447
611.64        60.39371
612.07        60.68237
612.50        60.70618
612.94        60.77224
613.37        60.73417
613.80        60.49163
614.23        59.94863
614.66        59.93324
615.09        60.33854
615.52         60.4462
615.96        60.19963
616.39        60.39886
616.82         60.4569
617.25        60.40794
617.68        60.38107
618.11        60.35041
618.54        60.36874
618.97         60.3336
619.40        60.31167
619.84        59.94746
620.27        59.99281
620.70        60.00737
621.13         60.2133
621.56        59.57325
621.99        59.27169
622.42        59.17931
622.85        59.69339
623.28         59.1225
623.71        59.43497
624.14        59.53281
624.57        59.89285
625.00        59.66292
625.43        59.83084
625.86        59.75994
626.29        59.81387
626.72        59.34959
627.15        59.60999
627.58        59.57653
628.01        59.56669
628.44        59.54575
628.87        59.50308
629.30        59.40127
629.73        59.23959
630.16        59.35603
630.59        59.27683
631.02        59.36135
631.45        59.45243
631.88         59.5405
632.31        59.60721
632.74        59.66193
633.17        59.68133
633.60        59.61718
634.03        59.47126
634.46         59.2547
634.89        59.02789
635.32        58.90365
635.75        58.90992
636.18        58.95321
636.61        59.00555
637.04        59.05764
637.47        59.09091
637.89        59.10177
638.32        59.07151
638.75        59.02955
639.18         58.9823
639.61        58.91906
640.04        58.85602
640.47        58.82158
640.90         58.8221
641.33        58.85831
641.76        58.90488
642.18        58.92393
642.61        58.88795
643.04        58.81207
643.47        58.73745
643.90        58.73117
644.33        58.80328
644.76        58.93356
645.18        59.05925
645.61        59.06373
646.04        58.93281
646.47         58.7062
646.90        58.47095
647.33        58.35874
647.75        58.38169
648.18        58.55001
648.61        58.81311
649.04        58.89396
649.47        58.69481
649.89        59.10387
650.32        58.60961
650.75         58.5558
651.18        58.52546
651.61        58.63573
652.03        58.87544
652.46          58.909
652.89        58.74309
653.32        58.88778
653.74          59.456
654.17        58.67194
654.60        58.97161
655.03        58.65269
655.46        58.45266
655.88        58.36302
656.31        62.18207
656.74        65.79776
657.16         63.9371
657.59        62.45597
658.02        60.29752
658.45        59.91986
658.87        59.21284
659.30        59.01675
659.73        58.92101
660.15        59.39463
660.58        58.75304
661.01        58.70809
661.44        58.75286
661.86        58.56598
662.29        58.14087
662.72        58.47192
663.14        58.41998
663.57         58.4476
664.00        58.28727
664.42        58.35622
664.85        58.66082
665.27        58.97646
665.70        59.19157
666.13        59.28827
666.55        59.24634
666.98        58.99988
667.41        58.62048
667.83        58.61567
668.26        58.41413
668.69         58.4757
669.11        58.57861
669.54        58.65445
669.96        58.68312
670.39        58.68665
670.82        58.69523
671.24         58.7281
671.67        58.78666
672.09        58.84154
672.52        58.89211
672.94        58.90447
673.37        58.87916
673.80         58.8238
674.22        58.75645
674.65        58.67375
675.07        58.60076
675.50        58.53023
675.92        58.47677
676.35        58.45074
676.77        58.45475
677.20         58.4812
677.62        58.52491
678.05        58.57426
678.47        58.61499
678.90         58.6586
679.32        58.69044
679.75        58.66903
680.17        58.58611
680.60        58.58498
681.02        58.46163
681.45        58.43637
681.87        58.46588
682.30        58.50686
682.72        58.56821
683.15        58.70519
683.57        58.88714
684.00        58.92712
684.42        58.86243
684.85        58.91361
685.27        59.08131
685.70        59.25022
686.12        59.36308
686.54        59.39711
686.97        59.33641
687.39        59.19961
687.82         59.0236
688.24        58.88517
688.66        58.80732
689.09        58.77509
689.51        58.78497
689.94        58.79863
690.36        58.81091
690.78        58.81826
691.21        58.83988
691.63         58.8952
692.06        58.98806
692.48        59.12049
692.90         59.2312
693.33        59.22896
693.75        59.09729
694.17        58.83694
694.60        58.57878
695.02        58.52172
695.44        58.67361
695.87        59.04358
696.29        59.46756
696.71        59.33634
697.14        58.77851
697.56        58.67558
697.98          59.026
698.41         59.1225
698.83         58.9487
699.25        58.97104
699.68        59.12223
700.10        59.12165
700.52        58.93271
700.94        58.65253
701.37         58.3996
701.79         58.3663
702.21        58.58184
702.64        58.96313
703.06        59.37895
703.48        59.60419
703.90        59.57634
704.33        59.36234
704.75        59.06087
705.17        58.82704
705.59        58.72008
706.01        58.69508
706.44        58.72712
706.86        58.80508
707.28        58.90424
707.70        58.99894
708.12        59.08818
708.55        59.24112
708.97        59.40681
709.39        59.36259
709.81        59.15169
710.23           59.07
710.66         59.1468
711.08        59.24248
711.50         59.2943
711.92        59.28422
712.34        59.20183
712.76        59.06513
713.19        58.91534
713.61        58.85378
714.03        58.89304
714.45        59.01066
714.87        59.17756
715.29        59.34999
715.71         59.5038
716.13         59.6338
716.56        59.72219
716.98        59.82239
717.40        59.90407
717.82        59.95963
718.24        59.94524
718.66        59.79351
719.08        59.51803
719.50        59.17203
719.92        58.85474
720.34        58.71105
720.76        58.77159
721.19        58.96859
721.61        59.27195
722.03        59.58333
722.45        59.84554
722.87        60.06798
723.29        60.19135
723.71        60.12548
724.13        59.87511
724.55        59.48333
724.97        59.06052
725.39          58.797
725.81        58.74865
726.23        58.84526
726.65        59.04066
727.07        59.38293
727.49        59.61613
727.91        59.92598
728.33        60.19905
728.75        60.35968
729.17        60.38652
729.59          60.283
730.01        60.10897
730.43         59.9948
730.85        59.97573
731.27        59.98067
731.69        59.95264
732.10        60.01043
732.52        59.79391
732.94        59.62871
733.36        59.47188
733.78        59.31047
734.20        59.15262
734.62        59.21198
735.04        59.54874
735.46        59.14183
735.88         59.7354
736.30        59.90437
736.72        60.14201
737.13        60.35157
737.55        60.47298
737.97        60.61412
738.39        60.70911
738.81        60.49371
739.23        60.07347
739.65        59.99103
740.06        60.22219
740.48        60.33826
740.90        60.30368
741.32        60.39852
741.74        60.60057
742.16        60.71346
742.57        60.71622
742.99        60.65122
743.41        60.54338
743.83        60.41684
744.25        60.28759
744.67        60.13652
745.08        60.01937
745.50        60.00396
745.92        60.10621
746.34        60.30863
746.75        60.51511
747.17        60.55483
747.59        60.40461
748.01        60.11502
748.42        59.81158
748.84        59.71272
749.26        59.86415
749.68        60.14661
750.09        60.44754
750.51        60.69014
750.93        60.77327
751.35        60.54554
751.76        60.10691
752.18        59.81268
752.60        59.71431
753.01        59.66237
753.43        59.62222
753.85        59.62239
754.27        59.66011
754.68        59.75345
755.10        59.89204
755.52         60.0461
755.93        60.18482
756.35        60.28588
756.77        60.41353
757.18        60.50711
757.60        60.54221
758.02        60.89956
758.43        61.42009
758.85        60.56095
759.26        60.16824
759.68        59.76357
760.10         59.8329
760.51        60.70169
760.93         60.1367
761.34        60.20607
761.76        60.29567
762.18        60.47424
762.59        60.71272
763.01        60.68775
763.42        60.53272
763.84        60.57445
764.26        60.81589
764.67        61.02891
765.09        61.13134
765.50        60.81592
765.92        60.25938
766.33        60.06778
766.75        60.18627
767.16        60.14588
767.58        59.89378
768.00        59.67964
768.41          59.619
768.83        59.90543
769.24        60.38857
769.66        60.58662
770.07        60.45664
770.49        60.14223
770.90        59.83758
771.32        60.10659
771.73        60.81523
772.15        61.04582
772.56        60.74969
772.97        60.44767
773.39         60.2748
773.80        60.21417
774.22        60.28471
774.63        60.53118
775.05        60.81192
775.46        60.95899
775.88        60.89805
776.29        60.70216
776.70        60.46348
777.12        60.35277
777.53        60.42443
777.95        60.59249
778.36        60.79811
778.77        60.91011
779.19        60.90476
779.60        60.84182
780.02         60.7407
780.43        60.68001
780.84        60.69588
781.26        60.57457
781.67        60.41311
782.09        60.75463
782.50        61.41857
782.91        61.45472
783.33        60.90291
783.74        60.68556
784.15        60.84354
784.57        60.83862
784.98        60.71041
785.39          60.764
785.81        61.00774
786.22        61.35405
786.63        61.70806
787.04        61.91901
787.46        61.95932
787.87        61.85166
788.28        61.68103
788.70        61.56531
789.11        61.51487
789.52        61.51765
789.93        61.52842
790.35        61.46448
790.76        61.32952
791.17        61.16105
791.58        61.01084
792.00        60.93712
792.41        60.97025
792.82         61.0786
793.23        61.23896
793.65        61.38865
794.06        61.51904
794.47        61.71347
794.88        61.89381
795.29        61.87975
795.71        61.63313
796.12        61.25126
796.53        60.87856
796.94        60.76932
797.35        60.99604
797.76        61.49629
798.18        62.05241
798.59        62.34287
799.00        62.25863
799.41        61.89374
799.82        61.43343
800.23        61.18837
800.64        61.24095
801.06        61.46661
801.47        61.76534
801.88        61.88671
802.29        61.75797
802.70        61.46644
803.11        61.11095
803.52        60.84274
803.93        60.73114
804.34        60.73661
804.75        60.82882
805.17        61.00691
805.58         61.2864
805.99        61.46783
806.40        61.57016
806.81         62.0611
807.22        62.71867
807.63        62.52425
808.04        61.63964
808.45        61.22391
808.86        61.38644
809.27        61.52612
809.68        61.54602
810.09        61.56623
810.50        61.55902
810.91        61.49126
811.32        61.45749
811.73        61.60726
812.14        61.95508
812.55        62.44732
812.96        62.91472
813.37        63.04486
813.78        62.76265
814.19         62.1975
814.60        61.53428
815.01        61.01554
815.42        60.70503
815.83        60.53554
816.24        60.49593
816.65          60.559
817.05        60.70569
817.46         60.9333
817.87        61.18674
818.28         61.3312
818.69        61.34108
819.10        61.21937
819.51        61.08384
819.92        61.16234
820.33        61.49587
820.74        62.00227
821.14        62.50141
821.55        62.70273
821.96        62.54369
822.37        62.12277
822.78        61.59711
823.19        61.23303
823.60        61.12482
824.00        61.22004
824.41        61.41002
824.82        61.59704
825.23        61.72089
825.64        61.81517
826.04        61.87935
826.45        61.87166
826.86        61.80413
827.27         61.6849
827.68        61.52835
828.08        61.39457
828.49        61.26514
828.90        61.15441
829.31        61.11729
829.72        61.23657
830.12         61.5382
830.53        61.94304
830.94        62.34012
831.35        62.49616
831.75        62.36477
832.16        61.99076
832.57        61.52844
832.97        61.20954
833.38        61.10713
833.79        61.14705
834.20        61.28261
834.60        61.43163
835.01         61.5657
835.42        61.75537
835.82        61.96957
836.23        62.07827
836.64        62.08263
837.04          61.964
837.45        61.88598
837.86        62.18296
838.26        62.91674
838.67        63.94912
839.08        64.90279
839.48        65.07327
839.89        64.30949
840.29        62.88787
840.70        61.41529
841.11        60.59205
841.51        60.58922
841.92        61.18149
842.33        62.10043
842.73        62.85334
843.14        63.15274
843.54        63.18962
843.95         63.0737
844.35        63.03384
844.76        63.12107
845.17        63.23192
845.57         63.3147
845.98        63.28328
846.38        63.13688
846.79        62.92253
847.19        62.68479
847.60        62.45934
848.00        62.27384
848.41        62.08962
848.81        61.94481
849.22        61.82854
849.62        61.77552
850.03        61.79115
850.43        61.83288
850.84        61.76453
851.24        61.60543
851.65        61.33033
852.05        61.15304
852.46        61.34818
852.86        61.94234
853.27        62.79972
853.67        63.58155
854.07        63.93377
854.48        63.77391
854.88        63.23769
855.29        62.48545
855.69        61.93529
856.10        61.68053
856.50        61.68674
856.90        61.82588
857.31        61.89124
857.71        61.86285
858.12        61.75738
858.52        61.66885
858.92        61.63797
859.33        61.66121
859.73        61.73804
860.13        61.78249
860.54         61.6899
860.94        61.48029
861.34        61.18481
861.75        60.88672
862.15        60.75508
862.55        60.81337
862.96        60.98124
863.36        61.23188
863.76        61.44349
864.17        61.54968
864.57        61.60206
864.97        61.53892
865.38        61.27651
865.78        60.84466
866.18        60.26661
866.58        59.68295
866.99        59.34772
867.39        59.36003
867.79        59.65765
868.19        60.11257
868.60         60.4953
869.00        60.76107
869.40        60.93433
869.80        61.07121
870.21        61.27108
870.61        61.59402
871.01        61.93546
871.41        62.14997
871.81        62.05459
872.22         61.6252
872.62         60.9137
873.02        60.14589
873.42        59.70004
873.82        59.68561
874.22        60.02086
874.63        60.42856
875.03        60.47306
875.43         60.0545
875.83        59.32113
876.23        58.59282
876.63        58.36232
877.03        58.73435
877.44        59.51494
877.84        60.41321
878.24         60.9621
878.64        60.96907
879.04        60.43908
879.44        59.70642
879.84        59.40278
880.24        59.62613
880.64        60.12498
881.04        60.60714
881.44        60.63489
881.84        60.10984
882.24        59.22752
882.65        58.27296
883.05        57.66217
883.45        57.52557
883.85        57.74206
884.25        58.19436
884.65        58.67719
885.05        59.08742
885.45        59.46552
885.85        59.79557
886.25        60.05974
886.65        60.25369
887.05        60.34715
887.45        60.34186
887.85        60.26711
888.25        60.13811
888.65        59.96886
889.04        59.76694
889.44        59.56012
889.84         59.3511
890.24        59.14689
890.64        58.97453
891.04        58.87233
891.44        58.84671
891.84        58.89157
892.24         58.9604
892.64        58.97453
893.04        58.93135
893.44        58.87249
893.83        58.86696
894.23        58.98065
894.63        59.24272
895.03        59.58689
895.43        59.99474
895.83        60.44861
896.23        60.89037
896.63        61.28492
897.02        61.49012
897.42        61.31184
897.82        60.74946
898.22        59.94226
898.62        59.06295
899.01        58.35357
899.41        57.92269
899.81        57.70267
900.21        57.75132
900.61        58.14951
901.00        58.84362
901.40        59.75874
901.80         60.6414
902.20        61.08503
902.59         61.0037
902.99        60.50642
903.39        59.77486
903.79        59.13602
904.18        58.71125
904.58         58.4197
904.98        58.31243
905.38        58.45786
905.77        58.83888
906.17         59.4851
906.57        60.14107
906.96        60.36443
907.36         60.0521
907.76        59.30924
908.15         58.5584
908.55        58.47419
908.95        59.19389
909.34        60.51411
909.74        61.88515
910.14        62.47287
910.53        62.03875
910.93        60.88291
911.33        59.45137
911.72        58.41891
912.12        58.04682
912.52        58.14272
912.91        58.47775
913.31        58.72057
913.70        58.77458
914.10        58.71544
914.49        58.75166
914.89        59.13963
915.29        59.92414
915.68        60.97636
916.08        61.89695
916.47        62.11619
916.87         61.5419
917.26          60.373
917.66        59.11076
918.05        58.36001
918.45        58.27079
918.84        58.71317
919.24        59.37101
919.64        59.80304
920.03        59.86795
920.42        59.67165
920.82         59.4515
921.21        59.51726
921.61        59.92408
922.00        60.57994
922.40        61.22555
922.79        61.55693
923.19        61.45506
923.58        61.05617
923.98         60.5793
924.37        60.28487
924.77        60.25734
925.16        60.37952
925.55        60.56629
925.95        60.65728
926.34        60.60238
926.74        60.43417
927.13        60.15145
927.52         59.6804
927.92        59.08907
928.31        58.41759
928.70        57.79272
929.10        57.37628
929.49        57.19779
929.89        57.16816
930.28         57.3658
930.67        57.81263
931.07         58.4398
931.46        59.28289
931.85        60.01164
932.24        60.14293
932.64        59.63604
933.03        58.60406
933.42        57.55328
933.82        57.22664
934.21        57.78011
934.60        59.05995
934.99         60.5675
935.39        61.39403
935.78        61.30479
936.17        60.46135
936.56        59.40451
936.96        58.98431
937.35        59.39228
937.74        60.36783
938.13         61.3198
938.53        61.34401
938.92        60.28411
939.31        58.50746
939.70        56.67147
940.09        55.70127
940.49        55.77496
940.88        56.64231
941.27        57.84734
941.66        58.55379
942.05        58.50054
942.44        57.98223
942.84        57.34672
943.23        57.12355
943.62        57.46349
944.01        58.11071
944.40        58.93486
944.79        59.77142
945.18        60.48919
945.57        61.12739
945.97        61.44823
946.36        61.14267
946.75        60.17631
947.14        58.74323
947.53        57.22295
947.92        56.15154
948.31        55.66913
948.70        55.64663
949.09        55.99004
949.48        56.50226
949.87        57.06865
950.26        57.73103
950.65        58.35648
951.04        58.73139
951.43        58.79721
951.82         58.5505
952.21         58.1538
952.60        57.91287
952.99        57.92191
953.38        58.13919
953.77        58.41102
954.16        58.48259
954.55        58.29005
954.94        57.87874
955.33        57.47138
955.72        57.44773
956.11        57.88417
956.50        58.67318
956.89        59.40041
957.28        59.37599
957.66        58.47216
958.05         56.9905
958.44        55.47476
958.83        54.69695
959.22        54.80783
959.61        55.56734
960.00        56.61098
960.39        57.25201
960.78        57.24525
961.16        56.81504
961.55        56.21436
961.94        55.74252
962.33        55.51838
962.72        55.45288
963.11        55.54892
963.49        55.85942
963.88        56.29114
964.27        56.80499
964.66        57.38321
965.04        58.04087
965.43        58.69926
965.82        59.36964
966.21        59.76094
966.60        59.36658
966.98        58.14689
967.37        56.43513
967.76        54.79495
968.15        53.90486
968.53        53.88706
968.92         54.5621
969.31        55.66577
969.69        56.61952
970.08        57.08151
970.47         57.1926
970.86        57.13073
971.24        57.18209
971.63        57.43103
972.02        57.76778
972.40        58.05782
972.79        57.89711
973.17         57.2889
973.56        56.40762
973.95        55.58588
974.33        55.20933
974.72        55.34442
975.11         55.8666
975.49        56.54375
975.88        56.87131
976.26        56.73358
976.65        56.25013
977.04        55.64957
977.42        55.26181
977.81        55.15614
978.19        55.21117
978.58        55.48612
978.96        56.03195
979.35        56.78428
979.74          57.735
980.12        58.68732
980.51        59.06404
980.89        58.85277
981.28        58.19442
981.66        57.41906
982.05        56.97559
982.43        56.99707
982.82        57.33762
983.20        58.02332
983.59        58.98991
983.97        60.19421
984.35        61.60567
984.74        62.79704
985.12        63.29362
985.51        62.92222
985.89        61.83556
986.28        60.52414
986.66        59.67455
987.04        59.50805
987.43        59.80326
987.81        60.29309
988.20        60.36007
988.58        59.83989
988.96        58.92918
989.35        57.84673
989.73        56.85699
990.12        56.04696
990.50        55.38985
990.88        54.85918
991.27        54.46435
991.65        54.22636
992.03        54.14645
992.42        54.36287
992.80        55.05764
993.18        56.24683
993.56        57.86859
993.95        59.47252
994.33        60.37146
994.71        60.23875
995.10         59.3576
995.48        58.21698
995.86        57.65046
996.24         57.8542
996.63        58.46574
997.01        59.39597
997.39        60.11076
997.77        60.34188
998.15        60.37421
998.54        60.01393
998.92        58.83632
999.30        56.99647
999.68        54.66405
1000.06         52.7046
1000.45        52.34114
1000.83        53.87384
1001.21        57.09435
1001.59        61.09315
1001.97        63.58546
1002.35        63.66091
1002.73        61.99878
1003.12        59.85077
1003.50        58.81579
1003.88        59.36523
1004.26        60.85487
1004.64        62.97644
1005.02        65.00857
1005.40         66.4594
1005.78        67.74331
1006.16        68.18835
1006.54        66.71252
1006.92        63.47797
1007.30        58.91588
1007.69        54.83001
1008.07        53.68412
1008.45         56.1205
1008.83        61.69888
1009.21        68.73085
1009.59        72.92032
1009.97        72.27428
1010.35        68.01673
1010.73        62.20875
1011.11        57.86382
1011.49        55.84152
1011.86        55.22823
1012.24        55.50816
1012.62        56.04394
1013.00        56.60109
1013.38        57.51906
1013.76        58.77377
1014.14        59.98937
1014.52        60.87962
1014.90        61.25228
1015.28        61.14323
1015.66        60.81764
1016.04         60.3754
1016.41        59.80657
1016.79        59.10758
1017.17        58.34516
1017.55         57.6175
1017.93        57.00022
1018.31        56.63425
1018.69        56.65805
1019.06        57.09694
1019.44        57.96721
1019.82        59.03498
1020.20        59.71509
1020.58        59.69563
1020.95        58.97532
1021.33         58.1406
1021.71        57.80379
1022.09        58.10842
1022.46        59.16494
1022.84        60.31179
1023.22        60.06682
1023.60        58.09642
1023.97        54.84102
1024.35         52.3462
1024.73        52.93024
