SpectraSmart Spectrum 2.9.0.0
--------- Device Information -----------
Spectrum Name :  反射率_0
Saving Time :  2024/04/27 00:43:49
Spectro-Module Model Name : SE2030-DUVN
Spectro-Module Serial Number : OS361AC55029948
Wavelength Start : 200
Wavelength End : 1025
Wavelength Unit : Wavelength(nm)
Spectrum Unit : Reflectance(%)
-----------Spectrum Setting ------------
Integration Time : 20ms
Average : 10
Boxcar : 0
Background removal :  enabled
linearity correction :  enabled
SC :  disabled
Intensity correction :  disabled
DWT denoise :  enabled
savitzky-golay :  disabled
FFT :  disabled
Running average :  disabled
Kalman :  disabled
High pass :  disabled
---------------BEGIN--------------------
Wavelength(nm)             Reflectance(%)
200.29               0
200.75        45.83487
201.21        44.38503
201.67         43.4392
202.13         42.9257
202.58        42.68505
203.04        43.09592
203.50        44.61143
203.96        47.67348
204.42         52.1758
204.88        57.63133
205.34        62.28726
205.80        63.66699
206.26         61.5063
206.72        56.98133
207.18        52.20165
207.64        48.64617
208.10        46.14777
208.55        44.22778
209.01        42.48743
209.47        41.87805
209.93        42.78999
210.39        44.59409
210.85        46.40355
211.31        48.18462
211.77        50.63767
212.23        55.30071
212.69        66.78006
213.14        89.85603
213.60        93.84614
214.06         81.7892
214.52        72.48405
214.98        68.31843
215.44        66.73183
215.90        65.81813
216.36         65.5614
216.81        66.14245
217.27        67.98093
217.73        72.30215
218.19        78.50198
218.65        80.94734
219.11        77.84268
219.57        72.62286
220.02         69.6841
220.48        72.40144
220.94        80.75352
221.40        95.83427
221.86        117.1952
222.32        130.8697
222.77        124.6867
223.23        108.4427
223.69        92.12492
224.15        81.09486
224.61        74.65331
225.06        70.36879
225.52          68.209
225.98        67.85709
226.44        68.89975
226.90        71.32275
227.36         74.0514
227.81        75.11428
228.27        74.30016
228.73        72.08436
229.19         69.9471
229.65        69.67509
230.10        71.27657
230.56        74.17778
231.02        76.85675
231.48        76.96312
231.93        74.25135
232.39        70.19101
232.85        66.34957
233.31        64.75347
233.77        65.56261
234.22        67.96503
234.68        70.98354
235.14        73.19506
235.60        74.09824
236.05        74.20412
236.51        73.50671
236.97         72.2043
237.43        70.56129
237.88        68.52961
238.34        66.68317
238.80        66.28621
239.26        67.81464
239.71        71.89796
240.17        77.86521
240.63        83.53222
241.08        87.34311
241.54        88.46527
242.00        88.65465
242.46          92.387
242.91        102.9883
243.37        121.8055
243.83        148.9941
244.28        170.8462
244.74        167.8343
245.20          141.56
245.66        110.4732
246.11        89.53589
246.57         79.1954
247.03        74.97051
247.48        73.74613
247.94         71.3565
248.40        67.78694
248.85        64.74066
249.31        63.23132
249.77        63.38043
250.22        64.84722
250.68        67.23087
251.14        70.04977
251.59        71.47005
252.05        70.79002
252.51        69.55486
252.96         67.5463
253.42        64.93009
253.88         62.0929
254.33        58.83569
254.79        57.79709
255.25        61.07555
255.70         68.0218
256.16        77.60147
256.62        85.54166
257.07        85.48915
257.53         79.4186
257.99        71.51562
258.44         65.1622
258.90        63.27677
259.35        64.48513
259.81        67.43876
260.27         70.3017
260.72        70.89263
261.18        69.39678
261.63        66.61738
262.09        63.90538
262.55        62.05618
263.00        61.00135
263.46        60.50697
263.91        59.92962
264.37        58.84534
264.83        57.21477
265.28        55.27925
265.74        53.62047
266.19        52.61185
266.65         52.3375
267.11        52.49699
267.56        52.73818
268.02        52.52598
268.47        51.72362
268.93        50.55512
269.38        49.20187
269.84         48.0024
270.30        47.04673
270.75        46.21793
271.21        45.54287
271.66        45.00056
272.12        44.56577
272.57        44.22651
273.03        43.87141
273.48        43.29375
273.94        42.51482
274.39        41.55664
274.85        40.61795
275.31        39.83329
275.76        39.20633
276.22        38.72766
276.67        38.28976
277.13        37.84292
277.58        37.31312
278.04        36.76076
278.49        36.15774
278.95         35.5874
279.40        35.01465
279.86        34.49826
280.31        33.96314
280.77        33.42256
281.22        32.83936
281.68        32.28285
282.13        31.77604
282.59        31.44573
283.04        31.25608
283.50        31.18064
283.95        31.11375
284.41        30.91175
284.86        30.54325
285.32        30.09175
285.77        29.62028
286.22        29.27848
286.68        29.09528
287.13        28.99043
287.59        28.93535
288.04        28.83887
288.50        28.69938
288.95        28.51596
289.41        28.31699
289.86         28.0725
290.32        27.82432
290.77        27.56766
291.22        27.35102
291.68        27.23104
292.13        27.21906
292.59        27.33324
293.04        27.56934
293.50        27.93515
293.95        28.42002
294.40        29.02655
294.86        29.75696
295.31        30.60034
295.77        31.55757
296.22        32.61979
296.68        33.76664
297.13        34.95433
297.58        36.18628
298.04        37.47246
298.49         38.8587
298.95        40.43575
299.40        42.19545
299.85        44.10218
300.31        46.06856
300.76        47.94346
301.21        49.70661
301.67        51.42499
302.12        53.14906
302.58        55.03727
303.03        57.08138
303.48         59.2581
303.94        61.53899
304.39        63.82073
304.84        66.10461
305.30        68.42687
305.75          70.757
306.20         73.1342
306.66        75.56236
307.11        77.96915
307.57        80.33331
308.02        82.52357
308.47        84.54234
308.93        86.42701
309.38        88.22034
309.83         90.1115
310.29        92.14485
310.74        94.26881
311.19        96.34467
311.65        98.10837
312.10        99.47063
312.55        100.4939
313.00         101.385
313.46        102.4816
313.91         103.835
314.36        105.3771
314.82        106.8849
315.27        108.0092
315.72        108.6443
316.18        108.9362
316.63        109.0805
317.08        109.4347
317.53        110.0985
317.99        110.9583
318.44        111.8763
318.89         112.593
319.35        113.0254
319.80        113.2568
320.25        113.4023
320.70        113.6432
321.16        114.0287
321.61        114.5489
322.06        115.0796
322.51        115.4336
322.97        115.5583
323.42        115.5197
323.87        115.5226
324.32        115.9204
324.78        116.7356
325.23        117.9393
325.68        119.1332
326.13        119.6614
326.59          119.37
327.04        118.4938
327.49         117.491
327.94        117.1241
328.39        117.5834
328.85        118.6021
329.30        119.9369
329.75        120.8584
330.20        121.1198
330.66        120.9131
331.11        120.5299
331.56        120.3479
332.01         120.508
332.46        120.8528
332.92        121.2528
333.37        121.6905
333.82        122.0585
334.27        122.4477
334.72        122.8152
335.17        123.0544
335.63        123.1576
336.08        123.2068
336.53        123.3607
336.98        123.9433
337.43        125.0054
337.88         126.411
338.34        127.8982
338.79        129.1588
339.24        129.9896
339.69        130.4733
340.14         130.625
340.59        130.4981
341.05         130.208
341.50        129.7709
341.95         129.385
342.40         129.348
342.85        129.7299
343.30        130.4543
343.75        131.3933
344.20        132.3077
344.66        133.0826
345.11          133.74
345.56        134.2146
346.01        134.4278
346.46        134.4023
346.91        134.1841
347.36         133.888
347.81        133.7136
348.26        133.7147
348.72        133.8319
349.17        134.0626
349.62        134.4293
350.07        134.8931
350.52        135.4599
350.97        135.8935
351.42        135.8175
351.87        135.1889
352.32        134.1248
352.77        133.0203
353.22        132.4624
353.67        132.5572
354.13        133.1301
354.58         133.803
355.03        133.8942
355.48        133.2352
355.93        132.0411
356.38        130.7276
356.83        129.9129
357.28         129.715
357.73        129.9066
358.18        130.1209
358.63        129.7831
359.08        128.7541
359.53        127.2509
359.98        125.5726
360.43        124.1366
360.88        123.0526
361.33         122.194
361.78        121.4065
362.23        120.4591
362.68        119.3077
363.13        118.0616
363.58        116.8476
364.03         115.834
364.48        115.0458
364.93        114.3963
365.38         113.787
365.83        113.0803
366.28        112.2348
366.73        111.3001
367.18        110.3076
367.63        109.2994
368.08        108.3003
368.53        107.3042
368.98        106.3368
369.43        105.4368
369.88        104.6133
370.33         103.864
370.78        103.1676
371.23        102.4891
371.68        101.8138
372.13        101.1359
372.58        100.4672
373.03        99.82673
373.48        99.20356
373.93        98.57753
374.38        97.89337
374.83          97.078
375.28        96.12817
375.72        95.05856
376.17        94.00548
376.62        93.05288
377.07        92.24086
377.52        91.57594
377.97        91.00217
378.42        90.43857
378.87        89.86966
379.32        89.28791
379.77        88.81551
380.22        88.62906
380.67        88.71693
381.11        89.03725
381.56        89.24023
382.01        88.84892
382.46        87.81239
382.91          86.358
383.36        84.91074
383.81        84.04906
384.26        83.86401
384.71        84.15221
385.15        84.65524
385.60        84.91688
386.05        84.78326
386.50        84.38618
386.95        83.79379
387.40        83.11878
387.85        82.43628
388.29        81.67052
388.74        80.98762
389.19        80.41428
389.64        79.94966
390.09        79.57757
390.54        79.26443
390.98         78.9287
391.43        78.59647
391.88        78.28194
392.33        77.98341
392.78        77.68931
393.23        77.40133
393.67        77.09914
394.12        76.87441
394.57        76.67758
395.02         76.5184
395.47        76.44754
395.91        76.43157
396.36        76.30494
396.81        76.07593
397.26        75.83453
397.71        75.55786
398.15        75.20197
398.60        74.86607
399.05        74.36134
399.50        73.82925
399.95        73.79356
400.39         74.1291
400.84        73.99158
401.29        73.36516
401.74        72.91408
402.18        72.67467
402.63        72.21329
403.08        71.67316
403.53         71.4502
403.97        71.57545
404.42        71.93816
404.87        72.33403
405.32        72.43114
405.76        72.14381
406.21        71.61061
406.66        71.02293
407.11        70.66576
407.55        70.64287
408.00         70.8829
408.45        71.22076
408.90        71.28816
409.34        70.98879
409.79        70.47658
410.24        69.94073
410.68        69.60732
411.13        69.54504
411.58        69.68476
412.03         69.8715
412.47        69.84979
412.92        69.54433
413.37        69.07864
413.81        68.63806
414.26        68.55275
414.71        68.84824
415.15        69.44106
415.60         70.1114
416.05        70.55001
416.49        70.65269
416.94        70.50333
417.39        70.23494
417.83         70.0472
418.28        70.00879
418.73        70.04594
419.17        70.14089
419.62        70.27267
420.07        70.41696
420.51        70.57404
420.96        70.71362
421.41        70.74128
421.85        70.62434
422.30        70.40417
422.74        70.11039
423.19        70.00504
423.64        70.04179
424.08        69.96946
424.53        69.78165
424.98         69.7617
425.42        69.93766
425.87        70.09328
426.31        70.18549
426.76         70.2991
427.21        70.40356
427.65        70.24108
428.10        69.89918
428.54        70.07307
428.99        70.31109
429.44        70.63883
429.88        70.90302
430.33        71.41342
430.77        71.95418
431.22        72.30199
431.66        72.34732
432.11        71.87457
432.56        71.11273
433.00         70.8753
433.45        71.37522
433.89        72.08325
434.34        72.28541
434.78        73.70174
435.23        72.30704
435.67        70.84062
436.12        71.14616
436.57         71.4083
437.01        72.15326
437.46        72.43944
437.90        72.29355
438.35        71.54528
438.79        71.78158
439.24        71.72758
439.68        71.79778
440.13        72.06963
440.57        72.56447
441.02        72.79761
441.46        72.78193
441.91        73.68763
442.35        74.94702
442.80        74.51847
443.24        72.80982
443.69        72.60624
444.13        73.82371
444.58        74.29326
445.02         73.8281
445.47        73.84659
445.91         74.3224
446.36        74.66209
446.80        74.81706
447.24          74.993
447.69         75.1955
448.13         75.1449
448.58        75.28081
449.02        75.22997
449.47        75.15524
449.91        75.08782
450.36        75.06528
450.80        75.05092
451.25         75.0552
451.69        75.03971
452.13        75.01647
452.58        74.99375
453.02        74.97125
453.47        74.96445
453.91        74.96186
454.36        74.93667
454.80        74.89394
455.24        74.78697
455.69        74.56766
456.13        74.37712
456.58         74.3253
457.02        73.51589
457.46        73.15424
457.91        73.53873
458.35        74.12981
458.79        74.18192
459.24        73.53603
459.68        72.71265
460.13        72.02837
460.57        71.73775
461.01        71.97874
461.46        72.21725
461.90        72.87902
462.34        73.40227
462.79        73.10851
463.23        73.10906
463.68        73.11704
464.12        73.05213
464.56        72.79877
465.01         72.0079
465.45        70.97494
465.89        70.78877
466.34        71.28322
466.78        71.64983
467.22        71.79597
467.67        70.96574
468.11        70.80066
468.55        70.77079
468.99        71.22234
469.44        71.25717
469.88        70.86247
470.32        70.59662
470.77        70.50293
471.21        70.40476
471.65        70.29562
472.10        70.22812
472.54        70.21571
472.98        70.22051
473.42        70.21387
473.87         70.4073
474.31        70.62996
474.75        70.20627
475.20        69.31801
475.64        69.17551
476.08        69.80649
476.52        69.70338
476.97        68.69428
477.41        69.64701
477.85        69.52399
478.29        68.68145
478.74         69.2095
479.18        69.61191
479.62        69.61981
480.06           69.72
480.50        69.57578
480.95        69.53597
481.39        69.64911
481.83        69.17089
482.27        68.96577
482.72        69.65499
483.16        69.34926
483.60        69.17697
484.04        69.48997
484.48        69.60799
484.93        69.65165
485.37          69.605
485.81        68.83566
486.25        68.73499
486.69        70.72997
487.14        71.21444
487.58        68.76093
488.02         69.9722
488.46        68.66691
488.90         68.1635
489.34        69.46595
489.79        70.44426
490.23        69.57361
490.67        69.10419
491.11        68.67009
491.55        68.56021
491.99        68.70721
492.43        68.61016
492.88        68.29042
493.32        68.24364
493.76        68.39503
494.20        68.51736
494.64        68.55192
495.08        68.59268
495.52        68.63721
495.96        68.63239
496.41        68.60053
496.85        68.67662
497.29        68.69391
497.73        68.72314
498.17        67.95788
498.61        67.67884
499.05        67.69674
499.49        67.98735
499.93         68.1834
500.37        68.27631
500.82         68.1815
501.26        68.12117
501.70        68.13147
502.14        68.16119
502.58        68.22916
503.02        68.31477
503.46        68.41484
503.90        68.60708
504.34        68.80547
504.78        68.77007
505.22        68.49478
505.66        68.15981
506.10        67.88096
506.54        67.65864
506.98        67.51454
507.42        67.62912
507.86        67.98479
508.30         67.6473
508.74        67.96683
509.18        67.87049
509.62        67.78935
510.06        67.71753
510.50        67.67725
510.94         67.6375
511.38        67.59513
511.82        67.58965
512.26        67.62193
512.70         67.6883
513.14        67.76368
513.58        67.81377
514.02         67.8313
514.46        67.80273
514.90         67.7468
515.34        67.81157
515.78        67.82016
516.22        67.89359
516.66        67.95173
517.10        67.95782
517.54        67.90198
517.98        67.81131
518.42        67.68955
518.86        67.53681
519.30        67.36773
519.74        67.18434
520.18        67.04314
520.62        67.02859
521.06        67.15277
521.50        67.39744
521.93        67.67435
522.37        67.81395
522.81        67.78613
523.25        67.62885
523.69        67.45023
524.13        67.42564
524.57         67.5831
525.01        67.85336
525.45        68.12126
525.89        68.20231
526.32        68.04826
526.76        67.75289
527.20        67.39535
527.64        67.10165
528.08        66.91882
528.52        66.80653
528.96        66.77348
529.40        66.83304
529.83        66.96711
530.27        67.17994
530.71        67.39018
531.15        67.47057
531.59        67.39659
532.03        67.19706
532.46        66.95017
532.90        66.83333
533.34        66.87257
533.78        66.97967
534.22        67.08467
534.66        67.16203
535.09        67.13779
535.53        66.89632
535.97        66.52078
536.41        66.31226
536.85        66.31143
537.28        66.37182
537.72        66.46677
538.16        66.60606
538.60        66.76271
539.04        66.92953
539.47        67.06055
539.91        67.12781
540.35        67.11185
540.79         67.0265
541.22        66.90153
541.66        66.81097
542.10        66.76865
542.54        66.75938
542.97        66.76401
543.41        66.77989
543.85        66.79276
544.29        66.81808
544.72        66.83324
545.16        66.84289
545.60        66.83254
546.04         66.8018
546.47        66.78618
546.91        66.83836
547.35        66.95898
547.79        67.13525
548.22        67.29316
548.66        67.30563
549.10         67.2317
549.53        67.06521
549.97        66.88433
550.41        66.70645
550.84        66.61738
551.28        66.68221
551.72        66.80804
552.15        66.96673
552.59        67.21182
553.03        66.55737
553.46        67.01502
553.90        66.86782
554.34        66.71358
554.77        66.54481
555.21        66.44342
555.65        66.48922
556.08        66.66371
556.52        66.90345
556.96        67.11371
557.39        67.31767
557.83        67.44006
558.27        67.15712
558.70        66.59671
559.14         66.3585
559.57        66.44475
560.01        66.47031
560.45        66.43257
560.88        66.52917
561.32        66.74304
561.75        66.99323
562.19        67.21196
562.63        67.04687
563.06        66.62794
563.50        66.65331
563.93        67.00686
564.37        67.09361
564.80        66.92805
565.24        66.74728
565.68        66.43911
566.11         67.1198
566.55        66.39591
566.98        66.20296
567.42        65.99336
567.85        66.24734
568.29        66.88079
568.72        67.22814
569.16        67.31905
569.60        67.68786
570.03         67.7583
570.47          68.035
570.90        68.32558
571.34        67.67295
571.77         68.1598
572.21        68.29066
572.64        68.12882
573.08        68.39527
573.51        67.79655
573.95        67.95084
574.38        68.59297
574.82        68.54237
575.25        67.94841
575.69        68.15317
576.12        68.39211
576.56        67.62094
576.99        67.58102
577.42        67.66209
577.86        68.07255
578.29        69.08899
578.73        69.16441
579.16        68.96619
579.60        68.16232
580.03         68.0197
580.47        67.94201
580.90        68.98606
581.33        68.57766
581.77        69.24107
582.20        69.13407
582.64        69.87903
583.07        68.96701
583.51        68.33469
583.94        67.72243
584.37        67.82216
584.81         68.4949
585.24        68.82334
585.68         68.6654
586.11        68.47604
586.54        68.28172
586.98        67.83782
587.41        67.14111
587.85        67.85602
588.28        67.71545
588.71        67.59551
589.15        67.26503
589.58        67.87645
590.01        67.44128
590.45        67.38869
590.88        68.12216
591.31        67.85738
591.75        67.11917
592.18        66.86838
592.61        67.26588
593.05        67.90052
593.48        68.89816
593.91        68.46077
594.35        68.09834
594.78        67.25755
595.21        66.65009
595.65        67.07575
596.08        68.49928
596.51        68.22674
596.94         67.7172
597.38        67.27809
597.81        67.31886
598.24        68.17268
598.68        67.48717
599.11        67.17972
599.54        68.64558
599.97        68.26417
600.41        67.92768
600.84        67.36276
601.27         67.9647
601.70        67.64634
602.14        67.81622
602.57         67.6085
603.00        67.50256
603.43        67.27148
603.87        67.93908
604.30        68.02357
604.73        67.83606
605.16        67.26502
605.60        66.84724
606.03        66.70555
606.46        66.88591
606.89        67.06949
607.32        67.39771
607.76        67.03526
608.19        67.49815
608.62        67.37708
609.05        67.22212
609.48        67.12949
609.92        68.01376
610.35        67.52494
610.78          67.187
611.21         67.0227
611.64        67.03516
612.07        67.28758
612.50         67.2647
612.94        67.25384
613.37        67.07803
613.80        67.09055
614.23        66.31644
614.66        66.39243
615.09        66.94919
615.52        67.19311
615.96        67.00467
616.39        67.16849
616.82        67.45072
617.25        66.80745
617.68        66.86243
618.11        66.77738
618.54        67.01287
618.97        67.02888
619.40        66.82938
619.84        66.96177
620.27        66.77813
620.70        66.91752
621.13        67.09858
621.56        66.38264
621.99        65.66639
622.42        65.41468
622.85        65.88272
623.28        66.05292
623.71        65.90391
624.14        66.25697
624.57        66.47128
625.00        66.11028
625.43        66.39761
625.86        66.29665
626.29        66.32749
626.72        65.74002
627.15        66.11337
627.58        66.11936
628.01        66.13558
628.44        66.13714
628.87        66.14323
629.30        65.77238
629.73        65.80386
630.16        65.72144
630.59        65.75565
631.02        65.87366
631.45        66.04535
631.88        66.16454
632.31        66.18685
632.74         66.2871
633.17        66.19331
633.60        66.10229
634.03        65.94717
634.46        65.73789
634.89        65.51413
635.32        65.36324
635.75        65.31161
636.18        65.26513
636.61        65.23131
637.04        65.25893
637.47        65.33828
637.89        65.44771
638.32        65.51964
638.75        65.50833
639.18        65.40386
639.61        65.22234
640.04        65.03066
640.47        64.93726
640.90        64.96817
641.33        65.09686
641.76        65.26456
642.18        65.37843
642.61        65.38807
643.04        65.32665
643.47        65.24267
643.90        65.21426
644.33        65.25933
644.76         65.3534
645.18        65.44459
645.61        65.43324
646.04        65.31075
646.47        65.11782
646.90        64.93039
647.33        64.85281
647.75        64.88385
648.18        65.05598
648.61        65.33449
649.04         65.3977
649.47        65.16185
649.89        65.72656
650.32         65.3503
650.75        65.28487
651.18        65.09991
651.61        65.12472
652.03        65.34637
652.46         65.5035
652.89        65.56712
653.32        65.55108
653.74        65.61143
654.17        65.48094
654.60        65.79041
655.03        65.86791
655.46        65.00098
655.88        65.28171
656.31        69.21153
656.74        73.64145
657.16        71.83189
657.59        69.77547
658.02        67.20289
658.45        67.00517
658.87        65.79367
659.30        65.67355
659.73        65.63313
660.15        66.72028
660.58        65.44572
661.01        65.27458
661.44         65.2497
661.86        65.13084
662.29        64.84482
662.72        65.21754
663.14        65.00498
663.57        65.01982
664.00        64.96847
664.42         65.0928
664.85        65.39223
665.27        65.73171
665.70         65.9768
666.13        66.04113
666.55        65.90652
666.98        65.52811
667.41        65.02126
667.83        64.99913
668.26        64.82587
668.69        65.00956
669.11        65.29214
669.54        65.46451
669.96        65.45815
670.39        65.73495
670.82        65.74455
671.24        65.62574
671.67        65.34791
672.09        65.51363
672.52         66.0106
672.94        66.12909
673.37        65.84122
673.80        65.51062
674.22        65.26543
674.65        65.12505
675.07        65.14757
675.50        65.30363
675.92        65.50529
676.35        65.60083
676.77        65.55135
677.20        65.39594
677.62        65.20374
678.05        65.08729
678.47        65.07636
678.90        65.14045
679.32        65.22605
679.75        65.26563
680.17        65.23532
680.60        65.16161
681.02        65.09502
681.45        65.09908
681.87        65.19769
682.30        65.37679
682.72        65.58445
683.15        65.64748
683.57        65.57829
684.00        65.51012
684.42        65.49912
684.85        65.54225
685.27        65.64381
685.70        65.83942
686.12         66.0526
686.54        66.14657
686.97         66.0963
687.39        65.96906
687.82         65.8075
688.24        65.68339
688.66        65.62268
689.09        65.61004
689.51        65.64226
689.94        65.67823
690.36        65.71037
690.78        65.73803
691.21        65.77716
691.63        65.82822
692.06        65.89156
692.48         66.0266
692.90        66.08389
693.33        66.05456
693.75            65.9
694.17        65.62012
694.60        65.34955
695.02        65.30676
695.44         65.5008
695.87        65.90257
696.29        66.34452
696.71        66.27333
697.14         65.7884
697.56        65.63728
697.98        65.86304
698.41        65.94004
698.83        65.86234
699.25        66.00665
699.68        66.26627
700.10         66.3363
700.52        66.16061
700.94         65.8476
701.37        65.53555
701.79        65.44913
702.21        65.63063
702.64        65.98787
703.06        66.39528
703.48        66.63405
703.90        66.63946
704.33        66.47788
704.75        66.23254
705.17        66.02977
705.59        65.92376
706.01        65.87851
706.44        65.88137
706.86        65.94725
707.28        66.05787
707.70        66.17242
708.12        66.29166
708.55        66.49789
708.97        66.73156
709.39        66.74377
709.81         66.5629
710.23        66.48472
710.66        66.53616
711.08        66.57296
711.50        66.55474
711.92        66.50926
712.34        66.43581
712.76        66.33839
713.19         66.2437
713.61        66.23159
714.03        66.30197
714.45         66.4388
714.87        66.61009
715.29        66.76729
715.71        66.88744
716.13        66.96526
716.56        66.99268
716.98        67.05233
717.40        67.11993
717.82        67.18487
718.24        67.19025
718.66        67.05544
719.08        66.79044
719.50        66.43244
719.92        66.08659
720.34        66.01093
720.76        66.07205
721.19        66.32418
721.61        66.67504
722.03        67.00352
722.45         67.2458
722.87        67.42437
723.29        67.49401
723.71        67.38387
724.13         67.1064
724.55        66.69471
724.97         66.2655
725.39        66.01986
725.81        66.01127
726.23        66.16689
726.65        66.40761
727.07        66.74372
727.49         66.8867
727.91        67.06086
728.33        67.20007
728.75        67.32237
729.17        67.42812
729.59        67.49397
730.01         67.5293
730.43         67.5572
730.85        67.58128
731.27        67.59977
731.69        67.59685
732.10        67.54235
732.52        67.43501
732.94        67.30467
733.36        67.20161
733.78        67.07663
734.20        66.92991
734.62        67.01154
735.04        67.38174
735.46         66.8799
735.88        67.47894
736.30        67.56847
736.72        67.72792
737.13        67.87894
737.55        67.96326
737.97        68.12509
738.39         68.2644
738.81        67.97121
739.23        67.38465
739.65        67.28413
740.06        67.62865
740.48        67.78035
740.90        67.69382
741.32        67.76673
741.74         67.9886
742.16        68.12182
742.57        68.14405
742.99        68.10526
743.41        68.01536
743.83        67.87296
744.25        67.69221
744.67        67.46397
745.08        67.26682
745.50        67.20313
745.92        67.30267
746.34        67.54029
746.75         67.8093
747.17        67.91953
747.59        67.83628
748.01        67.60873
748.42        67.36398
748.84        67.31363
749.26        67.49845
749.68         67.8278
750.09        68.16804
750.51        68.33862
750.93        68.27425
751.35        68.00153
751.76        67.61314
752.18        67.31103
752.60        67.14121
753.01        67.04664
753.43        66.99403
753.85        66.97235
754.27        66.97734
754.68        67.03975
755.10        67.14576
755.52        67.25997
755.93        67.35918
756.35        67.42316
756.77        67.52558
757.18        67.66562
757.60        67.84232
758.02        68.27911
758.43        68.81056
758.85        68.23653
759.26        68.19631
759.68        67.37247
760.10        67.52908
760.51        67.78562
760.93        67.67295
761.34        67.88619
761.76        68.12062
762.18        68.32629
762.59         68.4701
763.01        68.41859
763.42        68.30447
763.84        68.28523
764.26         68.4132
764.67        68.61348
765.09        68.78735
765.50        68.62068
765.92        68.18552
766.33        67.74361
766.75        67.36252
767.16        67.16126
767.58        67.15649
768.00        67.36028
768.41         67.7209
768.83        68.08602
769.24        68.33857
769.66        68.47692
770.07        68.49026
770.49        68.21349
770.90        67.84855
771.32        68.15197
771.73        68.96841
772.15        69.23576
772.56        68.89114
772.97        68.49634
773.39        68.20675
773.80        68.03989
774.22        68.02743
774.63        68.20997
775.05         68.4426
775.46        68.56377
775.88        68.49856
776.29         68.3243
776.70        68.13543
777.12         68.1096
777.53        68.29057
777.95        68.56568
778.36        68.86837
778.77        69.04011
779.19        69.05778
779.60        69.03898
780.02        68.96138
780.43        68.79945
780.84        68.64563
781.26        68.34084
781.67        68.08448
782.09        68.75073
782.50        70.00526
782.91        70.19228
783.33        69.35538
783.74        69.04835
784.15        69.32806
784.57        69.25011
784.98        68.87218
785.39        68.74126
785.81        68.89079
786.22        69.17081
786.63        69.48376
787.04        69.67145
787.46        69.70358
787.87        69.61805
788.28        69.48684
788.70        69.39686
789.11        69.35164
789.52         69.3443
789.93        69.35459
790.35        69.34322
790.76        69.31352
791.17         69.2794
791.58        69.25109
792.00        69.19261
792.41        69.11844
792.82        69.11214
793.23        69.17171
793.65        69.08033
794.06        68.94816
794.47        69.26786
794.88        69.87403
795.29        70.10194
795.71         69.8736
796.12        69.55736
796.53         69.2854
796.94        69.16357
797.35        69.25775
797.76        69.53864
798.18        69.87442
798.59        70.09543
799.00        70.12462
799.41        70.01851
799.82         69.8522
800.23        69.75407
800.64        69.75761
801.06        69.78168
801.47        69.83752
801.88        69.85448
802.29        69.81273
802.70        69.75014
803.11        69.65726
803.52        69.50797
803.93        69.32212
804.34        69.11276
804.75        68.96577
805.17        69.03818
805.58        69.38447
805.99        69.83067
806.40        70.26511
806.81        70.72693
807.22        71.03969
807.63        70.73888
808.04        69.98634
808.45        69.50775
808.86        69.41096
809.27        69.35506
809.68        69.29159
810.09        69.28524
810.50        69.31739
810.91        69.38091
811.32        69.50102
811.73        69.70956
812.14        69.99422
812.55        70.31862
812.96         70.5949
813.37        70.67239
813.78        70.51494
814.19        70.19042
814.60        69.78075
815.01        69.38837
815.42        69.04852
815.83        68.73741
816.24         68.5063
816.65        68.44769
817.05        68.58958
817.46        68.88809
817.87        69.24842
818.28        69.47069
818.69         69.5081
819.10        69.38657
819.51        69.23715
819.92        69.30679
820.33        69.64371
820.74        70.15334
821.14        70.65175
821.55        70.84489
821.96        70.67069
822.37         70.2346
822.78        69.69547
823.19        69.31899
823.60        69.20256
824.00        69.29883
824.41        69.50122
824.82           69.73
825.23        69.92451
825.64        70.10864
826.04        70.26794
826.45        70.33414
826.86        70.31238
827.27        70.21644
827.68        70.05749
828.08        69.89684
828.49        69.71228
828.90        69.51345
829.31         69.3774
829.72        69.42421
830.12        69.68847
830.53        70.08311
830.94        70.45525
831.35        70.48918
831.75        70.13732
832.16        69.48795
832.57        68.77717
832.97        68.36068
833.38        68.33619
833.79        68.57082
834.20        68.97542
834.60        69.40443
835.01         69.7905
835.42        70.21973
835.82        70.59583
836.23        70.66989
836.64        70.43624
837.04        69.91264
837.45          69.401
837.86        69.46745
838.26         70.2366
838.67        71.51369
839.08        72.81272
839.48        73.21092
839.89        72.48096
840.29        70.96839
840.70        69.36011
841.11        68.45496
841.51        68.45644
841.92        69.09551
842.33        70.09265
842.73        70.94727
843.14        71.34315
843.54        71.47492
843.95        71.43429
844.35        71.42133
844.76        71.48331
845.17        71.53946
845.57        71.52999
845.98        71.35623
846.38        71.03432
846.79        70.61311
847.19        70.23183
847.60        70.07091
848.00        70.17635
848.41        70.46622
848.81        70.82046
849.22        70.95007
849.62        70.82933
850.03        70.53896
850.43        70.21725
850.84        70.02091
851.24        70.05633
851.65         70.2029
852.05        70.54633
852.46         71.1061
852.86        71.81602
853.27        72.62036
853.67        73.24905
854.07        73.46126
854.48        73.20204
854.88        72.56927
855.29        71.70022
855.69        71.00683
856.10        70.57444
856.50        70.40365
856.90        70.37543
857.31        70.28706
857.71        70.13009
858.12        69.91354
858.52        69.74949
858.92        69.69318
859.33        69.74078
859.73          69.896
860.13        70.03588
860.54         69.9961
860.94         69.7892
861.34        69.45365
861.75        69.12444
862.15        69.06985
862.55        69.32059
862.96        69.74496
863.36        70.24976
863.76        70.58421
864.17        70.65263
864.57        70.57672
864.97        70.31594
865.38        69.81654
865.78        69.14465
866.18        68.30711
866.58        67.57324
866.99          67.417
867.39        67.95133
867.79        69.01624
868.19        70.22147
868.60        70.94479
869.00        71.05635
869.40        70.67314
869.80        70.04362
870.21        69.67157
870.61        69.78854
871.01        70.17921
871.41        70.57036
871.81        70.58106
872.22        70.12871
872.62        69.34483
873.02        68.49099
873.42        67.99088
873.82         67.9695
874.22        68.30053
874.63        68.70506
875.03        68.76316
875.43        68.36729
875.83          67.668
876.23        66.94786
876.63        66.63006
877.03        66.82126
877.44        67.36926
877.84        68.05029
878.24         68.4967
878.64        68.54391
879.04         68.1599
879.44        67.65199
879.84        67.58714
880.24        68.03333
880.64        68.78023
881.04        69.41995
881.44        69.31724
881.84        68.36153
882.24        66.80792
882.65        65.19851
883.05         64.3547
883.45        64.48618
883.85        65.36257
884.25        66.57244
884.65        67.40041
885.05        67.61639
885.45        67.43028
885.85        67.10172
886.25        67.03396
886.65        67.32683
887.05        67.80366
887.45          68.303
887.85         68.5885
888.25        68.57677
888.65        68.36759
889.04        68.02966
889.44        67.67835
889.84        67.35487
890.24        67.03796
890.64        66.74971
891.04        66.53461
891.44        66.40733
891.84        66.37473
892.24        66.42039
892.64        66.49852
893.04        66.60319
893.44        66.75933
893.83        66.97123
894.23        67.19698
894.63        67.43739
895.03        67.64597
895.43        67.87809
895.83        68.24044
896.23        68.71335
896.63        69.24094
897.02        69.60007
897.42         69.4655
897.82        68.80904
898.22        67.80058
898.62        66.72806
899.01         66.0084
899.41        65.76752
899.81        65.86611
900.21        66.19609
900.61        66.56891
901.00        66.88939
901.40         67.2042
901.80        67.43648
902.20        67.45542
902.59        67.26858
902.99        66.90217
903.39        66.50224
903.79        66.32462
904.18        66.41959
904.58        66.70215
904.98        67.10935
905.38        67.54656
905.77        67.96389
906.17        68.41079
906.57        68.73985
906.96         68.7114
907.36        68.28868
907.76        67.55054
908.15        66.83392
908.55        66.65948
908.95        67.13519
909.34        68.11297
909.74        69.16763
910.14        69.67374
910.53          69.429
910.93        68.64909
911.33        67.60373
911.72        66.69932
912.12         66.1468
912.52         65.8475
912.91        65.71565
913.31        65.64139
913.70        65.58874
914.10         65.5695
914.49        65.73194
914.89        66.21841
915.29         67.0387
915.68        68.11121
916.08        69.06102
916.47         69.3557
916.87        68.91344
917.26        67.90288
917.66        66.81588
918.05        66.24731
918.45         66.3446
918.84        66.97708
919.24         67.8197
919.64         68.4234
920.03        68.62947
920.42        68.52428
920.82        68.33033
921.21        68.33739
921.61        68.59641
922.00        69.03912
922.40        69.40711
922.79        69.42432
923.19        69.00582
923.58        68.30438
923.98        67.59737
924.37        67.20723
924.77        67.22016
925.16        67.49579
925.55        67.87946
925.95        68.08115
926.34         68.0221
926.74        67.78043
927.13         67.4041
927.52        66.90035
927.92        66.37003
928.31        65.81496
928.70        65.38239
929.10        65.27397
929.49        65.50141
929.89        65.94043
930.28        66.57999
930.67        67.26794
931.07        67.88305
931.46        68.52861
931.85        68.92298
932.24        68.68021
932.64        67.83304
933.03         66.4889
933.42        65.24984
933.82        64.99435
934.21        65.87943
934.60        67.70445
934.99        69.81848
935.39        71.01889
935.78        70.98024
936.17        69.93675
936.56        68.51446
936.96        67.71968
937.35        67.81724
937.74        68.50093
938.13        69.25717
938.53        69.30445
938.92        68.48516
939.31        67.14082
939.70        65.75584
940.09        64.98553
940.49        64.95309
940.88        65.46997
941.27        66.25628
941.66        66.80754
942.05         66.9496
942.44        66.86577
942.84        66.70546
943.23        66.68597
943.62         66.8802
944.01        67.14271
944.40        67.48624
944.79        67.97195
945.18        68.55338
945.57        69.21182
945.97        69.65994
946.36        69.51239
946.75        68.68838
947.14        67.39986
947.53        66.04069
947.92        65.16438
948.31         64.9118
948.70        65.14037
949.09        65.69415
949.48         66.2834
949.87         66.7707
950.26         67.2104
950.65        67.58241
951.04        67.86397
951.43        68.03676
951.82        68.05199
952.21        67.91013
952.60        67.64602
952.99        67.31443
953.38        66.98505
953.77        66.69326
954.16        66.47872
954.55        66.34508
954.94         66.2259
955.33         66.2321
955.72        66.54404
956.11        67.14666
956.50        67.99657
956.89        68.62878
957.28        68.28178
957.66        66.85644
958.05        64.68898
958.44        62.52788
958.83        61.43472
959.22        61.60949
959.61        62.76419
960.00        64.32456
960.39        65.19559
960.78        65.02158
961.16         64.1461
961.55        63.09058
961.94        62.54022
962.33        62.68521
962.72        63.30613
963.11        64.17401
963.49        64.89992
963.88        65.21641
964.27        65.23915
964.66         65.1618
965.04        65.29133
965.43        65.64436
965.82         66.1728
966.21        66.54606
966.60        66.18938
966.98        65.02013
967.37        63.37852
967.76        61.87964
968.15        61.27201
968.53        61.68225
968.92        62.92211
969.31        64.52592
969.69         65.5321
970.08        65.51091
970.47        64.74695
970.86         63.8181
971.24        63.56713
971.63        64.17797
972.02        65.40324
972.40        66.77758
972.79        67.15624
973.17        66.29996
973.56        64.65729
973.95           62.91
974.33        61.89439
974.72        61.79195
975.11         62.3343
975.49        63.23652
975.88        63.88247
976.26        64.08106
976.65        63.97338
977.04         63.7301
977.42        63.57824
977.81        63.56044
978.19        63.55692
978.58        63.64363
978.96        63.93118
979.35        64.38824
979.74          65.018
980.12        65.68639
980.51         65.9104
980.89        65.70504
981.28        65.17512
981.66        64.59583
982.05        64.33781
982.43        64.50156
982.82        64.96087
983.20        65.69758
983.59        66.54951
983.97        67.48223
984.35        68.48733
984.74        69.28804
985.12         69.6714
985.51        69.53138
985.89        68.96139
986.28        68.29865
986.66        67.99271
987.04        68.21294
987.43         68.7865
987.81        69.53714
988.20        69.97715
988.58        69.94215
988.96        69.48253
989.35        68.73034
989.73         67.8478
990.12        66.89422
990.50        65.90532
990.88        64.79822
991.27        63.50541
991.65        62.15291
992.03        60.86729
992.42        60.04666
992.80        60.17812
993.18        61.31736
993.56        63.31214
993.95        65.55598
994.33        67.03357
994.71        67.23496
995.10        66.50506
995.48        65.33424
995.86        64.58988
996.24        64.50499
996.63        64.67236
997.01        65.13274
997.39        65.62267
997.77        65.96478
998.15        66.37672
998.54        66.53175
998.92        65.76409
999.30        64.17759
999.68        62.04012
1000.06         60.2148
1000.45        59.92649
1000.83        61.49728
1001.21        64.65646
1001.59        68.66598
1001.97        71.58688
1002.35        72.51966
1002.73        71.98457
1003.12        70.77258
1003.50        69.84108
1003.88        69.60008
1004.26        69.59785
1004.64        69.94806
1005.02        70.87926
1005.40        72.28266
1005.78        74.22961
1006.16        75.81481
1006.54        75.55069
1006.92        73.36253
1007.30        69.83117
1007.69        66.36148
1008.07        64.78908
1008.45        65.66782
1008.83        68.53127
1009.21        72.49961
1009.59        75.29812
1009.97        75.70258
1010.35        74.33054
1010.73        71.79711
1011.11        69.03319
1011.49        66.54843
1011.86        64.18586
1012.24        62.28733
1012.62        61.24751
1013.00        61.08292
1013.38        61.80188
1013.76        63.17853
1014.14        64.46155
1014.52        65.21382
1014.90        65.46434
1015.28        65.43764
1015.66        65.60172
1016.04        66.05572
1016.41        66.61559
1016.79        66.98685
1017.17        66.77346
1017.55        65.90475
1017.93        64.60802
1018.31        63.24614
1018.69        62.22293
1019.06        61.65562
1019.44        61.51235
1019.82         61.6023
1020.20        61.52219
1020.58        61.11365
1020.95        60.36634
1021.33        59.86397
1021.71        60.19943
1022.09        61.49721
1022.46        63.94519
1022.84        66.57122
1023.22        67.06818
1023.60        64.75768
1023.97        60.29354
1024.35         56.4803
1024.73        56.60999
