SpectraSmart Spectrum 2.9.0.0
--------- Device Information -----------
Spectrum Name :  反射率_0
Saving Time :  2024/04/27 00:44:21
Spectro-Module Model Name : SE2030-DUVN
Spectro-Module Serial Number : OS361AC55029948
Wavelength Start : 200
Wavelength End : 1025
Wavelength Unit : Wavelength(nm)
Spectrum Unit : Reflectance(%)
-----------Spectrum Setting ------------
Integration Time : 20ms
Average : 10
Boxcar : 0
Background removal :  enabled
linearity correction :  enabled
SC :  disabled
Intensity correction :  disabled
DWT denoise :  enabled
savitzky-golay :  disabled
FFT :  disabled
Running average :  disabled
Kalman :  disabled
High pass :  disabled
---------------BEGIN--------------------
Wavelength(nm)             Reflectance(%)
200.29               0
200.75        54.37027
201.21         52.3917
201.67        51.42103
202.13        50.55732
202.58        49.45047
203.04         48.6023
203.50        48.96336
203.96        52.39594
204.42        59.64676
204.88        69.95844
205.34        79.77116
205.80        83.49683
206.26        80.12727
206.72        71.90327
207.18        63.32566
207.64        57.84862
208.10        55.46633
208.55         55.8743
209.01        57.69411
209.47        57.44172
209.93         54.4912
210.39        51.42728
210.85        50.66432
211.31        54.20457
211.77        63.91657
212.23        86.49931
212.69        142.1528
213.14        231.6007
213.60        220.7674
214.06        151.8072
214.52         107.307
214.98        88.56793
215.44        81.89968
215.90        79.57758
216.36        79.64284
216.81        80.19735
217.27        80.88223
217.73        83.99924
218.19        88.99329
218.65         90.4836
219.11        87.26273
219.57        81.98372
220.02          79.549
220.48        84.31744
220.94        96.50493
221.40         117.905
221.86        147.3048
222.32        163.8322
222.77        151.2426
223.23        124.8464
223.69        99.94506
224.15        84.41335
224.61        76.51532
225.06        72.23243
225.52        70.66785
225.98        70.71708
226.44        71.77125
226.90        74.07937
227.36        76.43733
227.81        76.66228
228.27        74.70129
228.73        71.23154
229.19        68.10542
229.65        67.51344
230.10        69.49848
230.56         73.3633
231.02        77.40126
231.48        78.90899
231.93        77.39626
232.39        74.27608
232.85        71.19289
233.31        70.32716
233.77        71.85535
234.22        74.93232
234.68        78.32137
235.14        80.17448
235.60        79.91976
236.05        78.16368
236.51        75.39886
236.97         72.9206
237.43        71.45443
237.88        70.81103
238.34        70.91121
238.80         71.8433
239.26        73.71465
239.71        77.37757
240.17        82.59029
240.63        88.56698
241.08          94.626
241.54        99.60595
242.00        104.7226
242.46        113.6828
242.91        130.0872
243.37        156.4759
243.83        193.5675
244.28        225.0257
244.74        225.8271
245.20         195.434
245.66        158.3879
246.11        136.7625
246.57        131.0152
247.03        134.7173
247.48        139.3951
247.94        132.2606
248.40        116.0919
248.85        99.61064
249.31        87.60818
249.77        81.34184
250.22         79.4441
250.68        80.00561
251.14        83.12207
251.59        88.27422
252.05        93.81439
252.51        99.63033
252.96        102.2311
253.42        99.47341
253.88        92.70219
254.33        83.41723
254.79         76.7007
255.25        76.56651
255.70        82.27441
256.16        91.98205
256.62        100.6646
257.07        100.9191
257.53         94.6235
257.99        86.31168
258.44        79.59225
258.90        77.65676
259.35        78.96609
259.81        82.11426
260.27        85.00154
260.72        85.15934
261.18        82.93161
261.63        79.28518
262.09        75.90134
262.55        73.81295
263.00        72.88493
263.46        72.74682
263.91        72.54768
264.37        71.67898
264.83        70.04704
265.28        67.97362
265.74        66.10811
266.19        64.83569
266.65        64.27731
267.11        64.09628
267.56        64.00074
268.02        63.57277
268.47        62.68774
268.93        61.54978
269.38        60.21849
269.84        58.85323
270.30        57.50942
270.75        56.12492
271.21        54.86664
271.66        53.91122
272.12        53.27649
272.57        52.88504
273.03        52.50549
273.48          51.735
273.94        50.57856
274.39        49.14454
274.85        47.76772
275.31        46.73936
275.76        46.08087
276.22        45.71744
276.67        45.45188
277.13        45.13628
277.58        44.64879
278.04        44.07645
278.49        43.39801
278.95        42.73024
279.40        42.03387
279.86        41.36297
280.31        40.62206
280.77        39.82167
281.22        38.93163
281.68        38.06605
282.13        37.26503
282.59        36.68759
283.04        36.30145
283.50        36.07816
283.95        35.93246
284.41         35.7559
284.86        35.51134
285.32        35.26755
285.77         35.0222
286.22        34.84787
286.68        34.75725
287.13        34.67486
287.59         34.6268
288.04        34.60239
288.50        34.61286
288.95        34.62172
289.41        34.59172
289.86         34.3829
290.32        34.03976
290.77        33.60996
291.22        33.23263
291.68         33.0902
292.13        33.22352
292.59        33.61639
293.04        34.21848
293.50        34.96515
293.95        35.81234
294.40        36.77527
294.86        37.85625
295.31        39.04523
295.77        40.33793
296.22        41.70033
296.68        43.10839
297.13        44.51572
297.58        45.93037
298.04        47.37624
298.49        48.88693
298.95        50.53712
299.40        52.32078
299.85        54.20899
300.31        56.17104
300.76        58.13141
301.21        60.07721
301.67        62.04934
302.12        63.99854
302.58        65.94874
303.03        67.85844
303.48        69.74813
303.94        71.69414
304.39         73.7373
304.84        75.91024
305.30        78.20303
305.75        80.48082
306.20        82.63663
306.66        84.65474
307.11        86.51819
307.57        88.31432
308.02        90.05843
308.47        91.78824
308.93        93.49205
309.38        95.12538
309.83         96.7531
310.29        98.38755
310.74        100.0161
311.19        101.5656
311.65        102.8798
312.10        103.9041
312.55        104.6729
313.00        105.3414
313.46        106.1634
313.91        107.1702
314.36        108.3259
314.82         109.461
315.27        110.3158
315.72        110.8065
316.18        111.0436
316.63        111.1708
317.08        111.4687
317.53        112.0102
317.99        112.7011
318.44        113.4251
318.89        113.9573
319.35        114.2335
319.80        114.3345
320.25        114.3656
320.70        114.4953
321.16        114.7681
321.61        115.1692
322.06        115.6104
322.51        115.9603
322.97        116.1678
323.42        116.2836
323.87         116.415
324.32        116.7581
324.78        117.3093
325.23        118.0852
325.68        118.8321
326.13        119.1525
326.59        118.9585
327.04        118.4011
327.49         117.791
327.94         117.657
328.39        118.1266
328.85        119.0096
329.30        120.1283
329.75        120.8745
330.20        121.0571
330.66        120.8191
331.11        120.4759
331.56        120.4501
332.01        120.8749
332.46        121.5912
332.92        122.3589
333.37        122.9605
333.82        123.2352
334.27        123.3144
334.72        123.2989
335.17        123.3298
335.63        123.4716
336.08         123.754
336.53        124.1997
336.98         124.903
337.43        125.8531
337.88        126.9763
338.34        128.1651
338.79        129.3681
339.24        130.4444
339.69        131.3944
340.14        132.0353
340.59        132.1069
341.05        131.6554
341.50        130.8007
341.95        129.9512
342.40         129.725
342.85        130.2656
343.30        131.3986
343.75        132.8215
344.20        134.0058
344.66         134.764
345.11        135.2243
345.56        135.4713
346.01        135.6549
346.46        135.8571
346.91        136.0345
347.36        136.2018
347.81        136.4181
348.26        136.6785
348.72        136.9448
349.17        137.2484
349.62        137.6636
350.07        138.1681
350.52         138.766
350.97        139.1555
351.42        138.8627
351.87        137.8604
352.32         136.329
352.77        134.8401
353.22        134.2321
353.67        134.6471
354.13        135.8272
354.58        137.2002
355.03        137.7475
355.48        137.2009
355.93        135.8707
356.38        134.3177
356.83        133.3923
357.28        133.2734
357.73        133.6474
358.18        134.0802
358.63        133.8922
359.08        132.9064
359.53        131.3918
359.98        129.6577
360.43        128.1227
360.88        126.9174
361.33        125.9234
361.78        125.0293
362.23         124.078
362.68        123.0371
363.13        121.9833
363.58         121.014
364.03        120.2501
364.48        119.6883
364.93        119.2472
365.38        118.7857
365.83        118.1011
366.28        117.1532
366.73        116.0221
367.18        114.8179
367.63        113.7088
368.08        112.7515
368.53        111.9017
368.98        111.1449
369.43        110.4498
369.88        109.7928
370.33        109.1879
370.78        108.5892
371.23        107.9231
371.68        107.1722
372.13        106.3365
372.58         105.481
373.03        104.7159
373.48        104.0583
373.93        103.4782
374.38        102.8805
374.83         102.118
375.28        101.1732
375.72        100.0859
376.17        99.04086
376.62        98.19046
377.07        97.58148
377.52         97.1826
377.97        96.88374
378.42        96.51923
378.87        96.04423
379.32        95.47342
379.77        94.95483
380.22         94.7059
380.67        94.73062
381.11        94.97809
381.56        95.09892
382.01        94.62701
382.46        93.51991
382.91        92.01695
383.36        90.53859
383.81        89.64804
384.26        89.43474
384.71         89.6994
385.15        90.19768
385.60        90.49528
386.05        90.43842
386.50        90.14244
386.95        89.65256
387.40        89.04841
387.85        88.39624
388.29        87.62766
388.74        86.92353
389.19        86.31768
389.64        85.81395
390.09        85.38969
390.54        85.02565
390.98        84.66389
391.43        84.33589
391.88        84.04863
392.33        83.76832
392.78        83.44159
393.23        83.06757
393.67         82.6249
394.12        82.25132
394.57         81.9912
395.02        81.84846
395.47        81.77085
395.91        81.71574
396.36        81.58312
396.81         81.3745
397.26        81.12564
397.71        80.83255
398.15        80.49336
398.60        80.21731
399.05        79.81855
399.50         79.3848
399.95         79.3591
400.39        79.63903
400.84         79.3757
401.29        78.61729
401.74        78.32612
402.18        78.42065
402.63        77.82684
403.08        76.76894
403.53        76.34522
403.97        76.61874
404.42        77.07098
404.87        77.45724
405.32        77.56343
405.76        77.30289
406.21        76.79459
406.66        76.19939
407.11        75.83513
407.55        75.81075
408.00        75.82314
408.45        75.84866
408.90         76.2447
409.34        76.74359
409.79        76.42214
410.24        75.48801
410.68         75.0257
411.13        75.11533
411.58        75.16156
412.03        75.06726
412.47        74.95415
412.92        74.78131
413.37        74.56552
413.81        74.35644
414.26        74.29245
414.71        74.36436
415.15        74.55701
415.60         74.7906
416.05         75.0087
416.49        75.17877
416.94        75.30162
417.39        75.36279
417.83        75.32533
418.28        75.20218
418.73        75.00922
419.17        74.81043
419.62        74.71539
420.07        74.73563
420.51        74.80959
420.96        74.92635
421.41        74.96484
421.85        74.86993
422.30        74.86718
422.74        74.84091
423.19        74.48025
423.64        73.87747
424.08         73.6405
424.53        73.80125
424.98        73.90878
425.42        73.94894
425.87        74.31677
426.31         74.8362
426.76        74.75259
427.21        74.18545
427.65         73.9199
428.10        73.95367
428.54        74.20297
428.99        73.97858
429.44        73.88274
429.88        73.85258
430.33        74.47884
430.77        75.40524
431.22         75.8799
431.66        75.75188
432.11        75.03738
432.56        74.07784
433.00        73.86147
433.45        74.58931
433.89        75.48869
434.34        75.72646
434.78         77.2167
435.23        75.31131
435.67        74.04018
436.12        74.29541
436.57        74.55599
437.01         75.0593
437.46        75.49644
437.90        75.50894
438.35         74.1603
438.79        74.74783
439.24        74.62064
439.68         74.7322
440.13        75.04512
440.57         75.5485
441.02        75.82996
441.46         75.8187
441.91        76.35947
442.35        77.08221
442.80        76.61697
443.24          75.308
443.69         75.3263
444.13        76.52358
444.58        76.98095
445.02        76.61557
445.47        76.54894
445.91        76.84604
446.36        77.05076
446.80        77.12896
447.24        77.49813
447.69        77.55948
448.13        77.66441
448.58        77.65362
449.02        77.53539
449.47        77.37409
449.91        77.25179
450.36        77.22392
450.80         77.2428
451.25         77.3067
451.69        77.34763
452.13        77.36583
452.58        77.36597
453.02        77.36857
453.47        77.41323
453.91        77.48817
454.36        77.58925
454.80        77.65511
455.24        77.48008
455.69        77.04935
456.13        76.65963
456.58        76.42758
457.02        75.64297
457.46        75.43581
457.91        75.75843
458.35         76.5267
458.79        76.57774
459.24        75.89574
459.68        74.96275
460.13        74.11553
460.57        73.77155
461.01        74.09727
461.46         74.3806
461.90        74.66042
462.34        76.08064
462.79        75.22913
463.23        75.47903
463.68        75.69202
464.12        75.51806
464.56        74.92721
465.01        74.08941
465.45        73.29418
465.89        73.17426
466.34        73.53815
466.78        73.87437
467.22        74.16823
467.67        72.98008
468.11        73.20268
468.55        73.21254
468.99        73.69485
469.44        73.72858
469.88        73.30067
470.32        72.93874
470.77        72.70983
471.21        72.53019
471.65        72.41432
472.10         72.3905
472.54        72.44934
472.98        72.54472
473.42        72.63586
473.87        72.85187
474.31         73.0302
474.75        72.71301
475.20        72.02946
475.64        71.68449
476.08        71.76331
476.52        71.54597
476.97         70.9641
477.41         71.2527
477.85        71.61935
478.29        70.90114
478.74         71.5508
479.18        72.12759
479.62        71.82928
480.06        71.87844
480.50        71.82578
480.95        71.69545
481.39        71.49147
481.83        71.27798
482.27        71.33981
482.72        71.42033
483.16        71.58207
483.60        71.71867
484.04        71.80334
484.48        71.96405
484.93        72.11325
485.37        71.90466
485.81        71.34274
486.25        71.15344
486.69        73.49585
487.14        73.49831
487.58        70.85111
488.02        71.98461
488.46        70.77752
488.90        70.13056
489.34        72.11385
489.79        72.36253
490.23        71.99021
490.67         71.1907
491.11        70.43488
491.55         70.4064
491.99        70.96336
492.43         71.0346
492.88        70.57476
493.32        70.39429
493.76        70.55108
494.20        70.67281
494.64        70.73262
495.08        70.89291
495.52        71.07829
495.96        70.99526
496.41        70.68083
496.85         70.5926
497.29        70.61482
497.73        70.51998
498.17        69.54324
498.61        69.56583
499.05        70.22881
499.49         70.5172
499.93        70.14289
500.37        70.18373
500.82        70.54895
501.26         70.4482
501.70        70.33023
502.14        70.15438
502.58        70.12682
503.02        70.18188
503.46        70.33379
503.90        70.62357
504.34         70.9214
504.78        70.98328
505.22        70.74156
505.66        70.33562
506.10        69.94328
506.54        69.62815
506.98        69.36388
507.42        70.07352
507.86        69.74403
508.30        69.94604
508.74        70.05134
509.18        70.12241
509.62        70.16911
510.06        69.97585
510.50        70.05984
510.94        69.98682
511.38        69.91105
511.82        69.84256
512.26        69.79131
512.70        69.75195
513.14        69.72403
513.58        69.73865
514.02         69.8032
514.46        69.86826
514.90        69.89587
515.34        70.08935
515.78        70.06888
516.22        70.04682
516.66        69.94838
517.10        70.05266
517.54        70.26688
517.98        70.11423
518.42        69.67181
518.86         69.4556
519.30        69.50053
519.74        69.55381
520.18         69.5801
520.62        69.56641
521.06        69.53734
521.50        69.65496
521.93        69.87682
522.37        69.95583
522.81        69.87912
523.25        69.76055
523.69        69.66817
524.13        69.66378
524.57         69.7608
525.01        69.93284
525.45        70.09624
525.89         70.1142
526.32        69.95313
526.76        69.68398
527.20        69.37841
527.64        69.15429
528.08        69.04874
528.52        69.02423
528.96        69.06397
529.40        69.14169
529.83        69.23452
530.27        69.35579
530.71        69.46577
531.15         69.5069
531.59        69.46954
532.03        69.36298
532.46        69.21859
532.90        69.13938
533.34        69.13614
533.78        69.14624
534.22        69.14267
534.66        69.16795
535.09        69.16035
535.53         68.9729
535.97        68.66058
536.41        68.48786
536.85        68.48322
537.28        68.51469
537.72        68.56289
538.16         68.6485
538.60         68.7552
539.04        68.87579
539.47         68.9788
539.91         69.0614
540.35        69.10384
540.79        69.10617
541.22        69.08077
541.66        69.07389
542.10         69.0859
542.54        69.10693
542.97        69.10645
543.41        69.06839
543.85        68.98344
544.29        68.87666
544.72        68.76063
545.16        68.69362
545.60        68.67604
546.04        68.69868
546.47         68.7652
546.91        68.88641
547.35        69.05722
547.79        69.21613
548.22        69.31254
548.66        69.41157
549.10        69.57556
549.53        69.24059
549.97        69.22733
550.41        68.96133
550.84        68.74324
551.28        68.75777
551.72        68.96333
552.15        69.02726
552.59        68.93421
553.03        69.03731
553.46        69.11586
553.90        69.13287
554.34        69.00943
554.77        68.95652
555.21        68.78339
555.65        68.78536
556.08        68.89095
556.52        69.07596
556.96        69.24264
557.39        69.30547
557.83        69.24739
558.27        68.98274
558.70        68.61131
559.14        68.47567
559.57        68.56062
560.01        68.62348
560.45         68.6356
560.88        68.72256
561.32        68.87852
561.75        68.97136
562.19        69.00494
562.63        68.92828
563.06        68.80379
563.50         68.8409
563.93        68.96773
564.37        69.05891
564.80         69.2697
565.24        68.98582
565.68        68.26102
566.11        68.83305
566.55        68.26792
566.98        68.33086
567.42        68.35715
567.85         68.5699
568.29        68.93509
568.72        69.28686
569.16        69.67472
569.60        69.85461
570.03        69.90621
570.47        70.08972
570.90        70.51656
571.34        69.52943
571.77        70.16982
572.21         70.2803
572.64        70.09592
573.08        70.27895
573.51        69.68768
573.95        69.67786
574.38        70.10913
574.82        70.27238
575.25        70.29087
575.69        70.17342
576.12         70.1179
576.56        69.32825
576.99        69.61881
577.42         69.9738
577.86        70.08999
578.29        71.13508
578.73        71.03936
579.16         70.8106
579.60        69.96381
580.03        69.92889
580.47        69.82941
580.90        70.68214
581.33        70.52748
581.77        71.06699
582.20        71.26048
582.64        71.54077
583.07        70.72247
583.51        70.14481
583.94        69.83445
584.37        69.91153
584.81        70.38281
585.24        70.56136
585.68        70.32935
586.11        70.54784
586.54        70.27035
586.98        69.70309
587.41          69.038
587.85        69.73639
588.28        69.75315
588.71        69.74297
589.15        69.32762
589.58        69.67438
590.01        69.09264
590.45        69.18632
590.88         70.1889
591.31        70.06093
591.75        69.25698
592.18        68.75703
592.61        68.74497
593.05        69.68815
593.48        70.52121
593.91        69.99606
594.35        69.78056
594.78        69.09554
595.21        68.68697
595.65        69.18909
596.08        70.51063
596.51        70.24235
596.94        69.52352
597.38        69.00257
597.81          69.004
598.24        70.29866
598.68        69.52236
599.11        69.30772
599.54        71.09296
599.97        69.92365
600.41        69.82105
600.84        69.01007
601.27        69.50166
601.70        69.52994
602.14        69.70976
602.57        69.46053
603.00        69.16177
603.43        68.54955
603.87        69.70827
604.30        69.94746
604.73        69.57064
605.16        68.87334
605.60        69.27303
606.03         69.1266
606.46        68.81678
606.89        68.95599
607.32        69.32799
607.76        68.93401
608.19        69.32443
608.62         69.1909
609.05        69.09637
609.48        69.09265
609.92        70.12844
610.35        69.58085
610.78        69.05163
611.21        69.30934
611.64        68.87676
612.07        69.19827
612.50        69.27901
612.94        69.30975
613.37        69.08747
613.80        69.04613
614.23        68.28768
614.66        68.31227
615.09        68.84332
615.52        69.07367
615.96        68.90891
616.39        68.99488
616.82        69.21702
617.25        68.70392
617.68        68.49735
618.11        68.64069
618.54        69.25401
618.97        69.44267
619.40        68.84621
619.84        68.72918
620.27        68.62798
620.70        68.77921
621.13        68.96657
621.56        68.46326
621.99        67.68031
622.42        67.63705
622.85        68.09358
623.28        67.76972
623.71        67.80397
624.14        68.05617
624.57        68.39285
625.00        68.20484
625.43        68.41941
625.86        68.31038
626.29        68.25694
626.72        67.93893
627.15         68.1073
627.58        68.11624
628.01        68.09005
628.44        68.05228
628.87        68.05042
629.30        67.46454
629.73        67.62221
630.16         67.5535
630.59        67.64927
631.02        67.87748
631.45         68.1698
631.88        68.36652
632.31        68.41051
632.74        68.35236
633.17        68.22318
633.60        68.08346
634.03        67.96084
634.46         67.8302
634.89        67.69732
635.32        67.59019
635.75        67.51727
636.18        67.41116
636.61        67.29195
637.04        67.22688
637.47        67.22056
637.89        67.24718
638.32        67.26591
638.75        67.27743
639.18        67.27481
639.61        67.25661
640.04        67.24203
640.47        67.26852
640.90        67.34062
641.33        67.45042
641.76        67.56189
642.18        67.61477
642.61        67.57321
643.04        67.47892
643.47        67.38844
643.90        67.29748
644.33        67.37517
644.76        67.46622
645.18        67.55653
645.61        67.52364
646.04        67.35979
646.47        67.11998
646.90        66.86519
647.33        66.69682
647.75        66.62338
648.18        66.63456
648.61        66.76881
649.04        66.92551
649.47         66.9726
649.89        67.75703
650.32        67.44141
650.75        67.43301
651.18        67.29456
651.61        67.34205
652.03        67.58311
652.46        67.72406
652.89        67.73015
653.32        67.67163
653.74        67.71998
654.17        67.19705
654.60        67.88097
655.03        67.42505
655.46        66.70526
655.88        67.02409
656.31        71.19685
656.74         75.0659
657.16        73.43555
657.59        71.94196
658.02        69.03859
658.45        68.77505
658.87        67.88679
659.30        67.89756
659.73        67.72268
660.15        68.73559
660.58        67.66153
661.01        67.45788
661.44        67.28767
661.86        67.02517
662.29        66.65501
662.72        67.19128
663.14        67.25434
663.57        67.21022
664.00        66.80612
664.42        66.80823
664.85        67.24056
665.27          67.661
665.70        67.91217
666.13         68.0234
666.55        67.96597
666.98        67.65038
667.41        67.17838
667.83        67.16533
668.26        66.96258
668.69        67.08678
669.11        67.26942
669.54        67.40491
669.96        67.46112
670.39        67.47759
670.82        67.49197
671.24        67.51435
671.67        67.55904
672.09        67.62782
672.52        67.71423
672.94        67.74321
673.37        67.71215
673.80         67.6445
674.22        67.57318
674.65        67.50432
675.07        67.46621
675.50        67.44891
675.92        67.43195
676.35        67.36811
676.77        67.25527
677.20        67.10681
677.62        66.98024
678.05         66.9654
678.47        67.07195
678.90        67.27144
679.32        67.48135
679.75        67.58553
680.17        67.55312
680.60         67.4241
681.02        67.26756
681.45        67.20044
681.87        67.26877
682.30        67.39392
682.72        67.54668
683.15        67.72122
683.57        67.86652
684.00        67.79974
684.42        67.60961
684.85        67.61652
685.27        67.84144
685.70        68.11392
686.12        68.31708
686.54        68.40311
686.97        68.35088
687.39        67.96269
687.82        67.74488
688.24        67.50906
688.66        67.42566
689.09        67.44362
689.51        67.53863
689.94        67.62666
690.36        67.68295
690.78        67.72012
691.21        67.75629
691.63        67.80999
692.06        67.88634
692.48        67.98074
692.90        68.04408
693.33        68.01002
693.75        67.87081
694.17        67.62268
694.60        67.37551
695.02        67.31985
695.44         67.4604
695.87        67.73553
696.29        68.02617
696.71        67.95697
697.14         67.5981
697.56        67.45607
697.98        67.57776
698.41        67.62821
698.83        67.60166
699.25        67.76001
699.68        67.99952
700.10        68.08183
700.52        67.95217
700.94        67.69471
701.37        67.43385
701.79        67.37495
702.21         67.5538
702.64        67.88634
703.06        68.25269
703.48        68.44116
703.90        68.39362
704.33        68.17864
704.75        67.88651
705.17        67.65218
705.59        67.53255
706.01        67.49322
706.44        67.51842
706.86        67.60884
707.28          67.741
707.70        67.89441
708.12        68.06865
708.55        68.29958
708.97        68.54779
709.39        68.66526
709.81        68.64817
710.23        68.64049
710.66        68.64918
711.08        68.60612
711.50         68.4967
711.92        68.35899
712.34        68.20704
712.76        68.04949
713.19        67.90762
713.61        67.85169
714.03        67.88151
714.45        67.98587
714.87        68.14906
715.29        68.34547
715.71        68.55311
716.13        68.75709
716.56        68.91489
716.98        69.05388
717.40        69.13126
717.82          69.148
718.24        69.08752
718.66        68.92668
719.08        68.68935
719.50        68.41569
719.92        68.17818
720.34        68.07949
720.76        68.14048
721.19        68.30507
721.61        68.56965
722.03        68.87218
722.45        69.16597
722.87        69.44751
723.29        69.63701
723.71        69.61228
724.13        69.36555
724.55        68.94756
724.97        68.48894
725.39        68.19043
725.81        68.11201
726.23        68.22156
726.65        68.46167
727.07        68.66295
727.49        68.88435
727.91        69.06937
728.33        69.24619
728.75        69.40817
729.17        69.54716
729.59          69.634
730.01        69.66515
730.43        69.65569
730.85        69.60896
731.27        69.53033
731.69        69.41512
732.10        69.24928
732.52        69.04148
732.94        68.82349
733.36        68.65845
733.78        68.51369
734.20        68.39079
734.62        68.53728
735.04        68.99869
735.46        68.56099
735.88        69.23979
736.30        69.38818
736.72        69.59758
737.13        69.80492
737.55        69.95382
737.97        70.12595
738.39         70.2353
738.81        70.02747
739.23        69.58778
739.65         69.4006
740.06        69.47622
740.48        69.50375
740.90        69.45537
741.32        69.55481
741.74        69.77985
742.16        69.95238
742.57        70.04308
742.99        70.08743
743.41        70.06955
743.83        69.94743
744.25        69.73111
744.67        69.42287
745.08        69.14639
745.50        69.07896
745.92        69.26383
746.34        69.64793
746.75        70.07153
747.17        70.25751
747.59        70.14811
748.01        69.82245
748.42        69.43832
748.84        69.25513
749.26        69.33501
749.68        69.57949
750.09         69.8618
750.51        70.00054
750.93        69.93273
751.35        69.71036
751.76         69.3959
752.18        69.11418
752.60         68.9019
753.01        68.73962
753.43        68.61316
753.85        68.53702
754.27        68.52415
754.68        68.59813
755.10        68.76051
755.52        68.99944
755.93        69.27667
756.35        69.55616
756.77        69.88109
757.18        70.10536
757.60        70.17589
758.02        70.59207
758.43        71.24865
758.85        70.09791
759.26        69.72237
759.68        69.26635
760.10        69.48508
760.51        69.68792
760.93        69.83054
761.34        69.84225
761.76        70.26756
762.18        70.39587
762.59        70.42271
763.01        70.35081
763.42        70.29447
763.84         70.2175
764.26        70.15601
764.67        70.22063
765.09        70.35497
765.50        70.09566
765.92        69.60547
766.33        69.50486
766.75        69.72208
767.16        69.80021
767.58         69.6619
768.00        69.51577
768.41        69.47815
768.83        69.77393
769.24        70.24931
769.66        70.41005
770.07         70.2284
770.49        69.83222
770.90        69.46243
771.32        69.84706
771.73        70.79852
772.15        71.13674
772.56        70.78497
772.97        70.38905
773.39        70.12875
773.80        70.01058
774.22        70.06964
774.63        70.35395
775.05        70.68085
775.46        70.82674
775.88        70.70146
776.29        70.39757
776.70        70.05869
777.12        69.94274
777.53        70.11747
777.95        70.45412
778.36        70.83109
778.77        71.00838
779.19        70.94739
779.60        70.75571
780.02        70.49123
780.43        70.34521
780.84        70.39446
781.26        70.22025
781.67         69.9728
782.09        70.69078
782.50         71.9901
782.91        71.96997
783.33        70.77288
783.74        70.32035
784.15        70.71578
784.57        70.86797
784.98         70.7497
785.39        70.76707
785.81        70.93712
786.22        71.25878
786.63        71.63668
787.04        71.80997
787.46        71.75831
787.87        71.58156
788.28         71.3854
788.70        71.27642
789.11        71.26933
789.52        71.36514
789.93        71.49992
790.35        71.55836
790.76        71.51604
791.17        71.38423
791.58        71.24017
792.00        71.13249
792.41        71.07359
792.82        71.22376
793.23        71.47175
793.65        71.10503
794.06        70.38795
794.47          70.651
794.88        71.66579
795.29        72.00112
795.71        71.55502
796.12        71.18732
796.53        71.04143
796.94        70.89562
797.35        70.85362
797.76        71.20288
798.18        71.79113
798.59          72.167
799.00        72.22799
799.41        72.18333
799.82        72.08271
800.23        71.94574
800.64        71.80495
801.06        71.61037
801.47        71.44536
801.88        71.36497
802.29        71.37851
802.70         71.4792
803.11        71.59184
803.52        71.58171
803.93        71.44209
804.34        71.22272
804.75        71.01846
805.17        71.06898
805.58        71.46461
805.99        71.80779
806.40          72.054
806.81        72.85648
807.22        73.82052
807.63        73.32909
808.04        71.70978
808.45         70.9542
808.86        71.25822
809.27        71.58474
809.68        71.73473
810.09         71.8425
810.50        71.83641
810.91        71.69557
811.32        71.55585
811.73        71.62666
812.14         71.9454
812.55        72.43667
812.96        72.94482
813.37        73.17875
813.78        73.05345
814.19        72.68905
814.60        72.21294
815.01        71.78739
815.42        71.46502
815.83        71.19403
816.24         71.0152
816.65        71.00713
817.05         71.1843
817.46        71.50708
817.87        71.86624
818.28        72.03407
818.69        71.96126
819.10        71.68184
819.51        71.35465
819.92        71.28022
820.33        71.53065
820.74        72.00568
821.14        72.50713
821.55        72.71243
821.96        72.54801
822.37        72.12332
822.78        71.60475
823.19        71.27015
823.60        71.21631
824.00        71.38921
824.41         71.6552
824.82        71.89613
825.23        72.04598
825.64        72.14436
826.04        72.21866
826.45        72.26607
826.86        72.30923
827.27        72.34263
827.68        72.34295
828.08        72.31299
828.49        72.20226
828.90         72.0266
829.31        71.87584
829.72        71.89302
830.12        72.12259
830.53        72.47433
830.94        72.77118
831.35        72.66142
831.75        72.09831
832.16        71.18291
832.57         70.2298
832.97        69.71069
833.38        69.74129
833.79         70.1601
834.20        70.76099
834.60        71.21059
835.01        71.40822
835.42        71.49937
835.82        71.53044
836.23        71.49812
836.64        71.46598
837.04        71.37546
837.45        71.39021
837.86        71.86103
838.26        72.84059
838.67        74.17463
839.08        75.44484
839.48        75.85149
839.89        75.19935
840.29        73.78616
840.70        72.22994
841.11        71.23232
841.51        70.98637
841.92        71.26441
842.33        71.88477
842.73        72.51855
843.14        72.91049
843.54        73.22018
843.95         73.4337
844.35        73.58108
844.76        73.65642
845.17        73.60938
845.57        73.47569
845.98        73.31361
846.38        73.17304
846.79        73.05679
847.19        72.96003
847.60        72.83802
848.00        72.69829
848.41        72.52789
848.81        72.41194
849.22        72.39875
849.62        72.53848
850.03        72.80263
850.43        73.09406
850.84        73.18623
851.24         73.0806
851.65        72.76078
852.05          72.497
852.46        72.64314
852.86        73.25303
853.27        74.16986
853.67        75.00016
854.07        75.33336
854.48        75.07384
854.88        74.38839
855.29        73.46967
855.69        72.81918
856.10         72.5416
856.50        72.58102
856.90        72.77687
857.31        72.87341
857.71        72.83649
858.12        72.69263
858.52        72.52412
858.92        72.33453
859.33        72.12534
859.73        71.91792
860.13        71.69173
860.54        71.45689
860.94        71.26443
861.34        71.10665
861.75        71.00133
862.15        71.01164
862.55        71.11972
862.96        71.27094
863.36        71.45493
863.76        71.56528
864.17        71.56052
864.57        71.49901
864.97          71.356
865.38        71.10818
865.78        70.79984
866.18        70.43655
866.58        70.13588
866.99        70.09879
867.39        70.38753
867.79        70.92473
868.19        71.54778
868.60        71.98422
869.00        72.18591
869.40         72.1795
869.80        72.05224
870.21          71.983
870.61        72.08913
871.01        72.26765
871.41        72.36423
871.81        72.15709
872.22        71.61931
872.62        70.83596
873.02        70.05475
873.42        69.68866
873.82        69.83783
874.22        70.35958
874.63        70.97964
875.03         71.2749
875.43        71.12157
875.83        70.67309
876.23        70.10081
876.63        69.66722
877.03        69.46889
877.44        69.39441
877.84        69.46149
878.24        69.71209
878.64         70.0647
879.04        70.36382
879.44         70.5871
879.84        70.79391
880.24        70.95383
880.64        71.01414
881.04        70.86653
881.44        70.37904
881.84        69.58248
882.24        68.57814
882.65        67.63808
883.05        67.16401
883.45         67.2546
883.85        67.80246
884.25        68.60978
884.65        69.31564
885.05        69.76593
885.45        70.01987
885.85        70.11954
886.25        70.15209
886.65        70.15298
887.05        70.08114
887.45         69.9247
887.85        69.68924
888.25        69.39465
888.65        69.07619
889.04        68.79523
889.44        68.65189
889.84        68.65302
890.24        68.78054
890.64        68.96171
891.04        69.07249
891.44        69.08141
891.84        69.02366
892.24        68.96439
892.64        69.00363
893.04        69.16935
893.44        69.43562
893.83        69.77026
894.23        70.06516
894.63        70.30302
895.03        70.48213
895.43        70.64382
895.83        70.86585
896.23        71.13589
896.63        71.39322
897.02         71.5163
897.42        71.34547
897.82        70.86842
898.22        70.20337
898.62        69.45983
899.01        68.77856
899.41        68.24639
899.81        67.81962
900.21        67.58574
900.61        67.67925
901.00        68.08495
901.40        68.73774
901.80        69.41028
902.20        69.72942
902.59        69.62207
902.99        69.19058
903.39        68.62586
903.79        68.25596
904.18          68.175
904.58        68.27768
904.98         68.5352
905.38         68.9124
905.77        69.36729
906.17        69.94146
906.57        70.45164
906.96        70.58427
907.36        70.27464
907.76        69.61496
908.15        68.94775
908.55        68.81105
908.95        69.31863
909.34        70.30804
909.74        71.36903
910.14        71.90436
910.53        71.72366
910.93        71.05715
911.33         70.1349
911.72        69.29669
912.12        68.74718
912.52        68.39397
912.91        68.24461
913.31        68.33775
913.70        68.64971
914.10        69.14171
914.49        69.79253
914.89        70.45311
915.29        71.05674
915.68        71.59515
916.08        71.89026
916.47        71.75685
916.87        71.21396
917.26        70.33844
917.66        69.45022
918.05        68.87627
918.45        68.71581
918.84        68.94115
919.24        69.36883
919.64        69.79655
920.03        70.13453
920.42        70.36045
920.82        70.59155
921.21        70.97034
921.61        71.48776
922.00        72.12321
922.40        72.58318
922.79        72.53551
923.19        71.91395
923.58        70.90384
923.98        69.90262
924.37        69.41088
924.77        69.54599
925.16        70.10961
925.55        70.87312
925.95        71.40067
926.34        71.54959
926.74        71.43721
927.13        71.07911
927.52        70.43954
927.92         69.6386
928.31        68.69032
928.70        67.87212
929.10        67.58539
929.49        67.88511
929.89        68.61279
930.28        69.61418
930.67        70.47231
931.07        70.98533
931.46        71.31178
931.85        71.33829
932.24        70.96654
932.64        70.28359
933.03        69.29277
933.42        68.38744
933.82        68.12982
934.21        68.62353
934.60        69.79206
934.99        71.18413
935.39        71.95506
935.78        71.90891
936.17        71.16441
936.56        70.23566
936.96        69.94952
937.35        70.47247
937.74        71.52412
938.13        72.52295
938.53        72.57951
938.92        71.53886
939.31        69.79368
939.70         67.9256
940.09        66.74066
940.49         66.4136
940.88         66.7267
941.27        67.44289
941.66        68.11491
942.05        68.55553
942.44        68.92758
942.84        69.23304
943.23        69.45216
943.62        69.60999
944.01        69.61993
944.40         69.6344
944.79        69.96451
945.18         70.6309
945.57         71.5284
945.97        72.28994
946.36        72.38711
946.75        71.67645
947.14        70.43021
947.53        69.01917
947.92        67.95409
948.31         67.3933
948.70        67.20032
949.09        67.34563
949.48         67.7686
949.87        68.38417
950.26        69.18779
950.65        69.99899
951.04         70.5101
951.43        70.62804
951.82        70.39907
952.21        69.94151
952.60        69.48788
952.99        69.15582
953.38        68.93494
953.77        68.84508
954.16         68.9106
954.55        69.10731
954.94        69.38406
955.33         69.7524
955.72        70.20821
956.11         70.6964
956.50        71.21694
956.89        71.45992
957.28        70.94021
957.66        69.63694
958.05        67.80982
958.44        66.07304
958.83         65.2958
959.22        65.62476
959.61        66.81431
960.00        68.35474
960.39        69.26369
960.78        69.20567
961.16        68.47165
961.55        67.49075
961.94        66.81292
962.33        66.61647
962.72         66.7433
963.11        67.09022
963.49        67.51347
963.88        67.83783
964.27        68.10724
964.66        68.41864
965.04        68.94328
965.43        69.64011
965.82        70.48461
966.21        71.10101
966.60        70.82371
966.98        69.55141
967.37        67.66422
967.76        65.84921
968.15        64.94563
968.53        65.10753
968.92        66.12885
969.31        67.58986
969.69        68.61258
970.08        68.76847
970.47        68.30172
970.86         67.6805
971.24        67.59667
971.63        68.20148
972.02         69.2784
972.40        70.39913
972.79        70.51017
973.17        69.43933
973.56        67.62156
973.95        65.76168
974.33        64.71782
974.72         64.6636
975.11        65.33595
975.49        66.40049
975.88        67.12311
976.26        67.28251
976.65        67.04703
977.04        66.65267
977.42        66.43636
977.81        66.46664
978.19        66.58254
978.58         66.8238
978.96        67.24718
979.35        67.79428
979.74        68.48964
980.12        69.18551
980.51        69.36383
980.89        69.05287
981.28        68.38168
981.66        67.67366
982.05        67.37559
982.43        67.59966
982.82        68.18579
983.20        69.11192
983.59        70.18713
983.97        71.35042
984.35        72.59566
984.74        73.55109
985.12          73.855
985.51        73.39299
985.89         72.3204
986.28        71.15629
986.66        70.62192
987.04         70.9491
987.43         71.8961
987.81        73.16586
988.20        73.99822
988.58        74.12328
988.96          73.668
989.35        72.84202
989.73        71.91828
990.12        71.00954
990.50        70.12041
990.88          69.178
991.27        68.14211
991.65        67.10492
992.03        66.12897
992.42        65.60119
992.80         65.9936
993.18        67.35338
993.56        69.55746
993.95        71.83316
994.33        72.88922
994.71         72.2238
995.10        70.35662
995.48        68.17191
995.86        67.08553
996.24        67.42604
996.63        68.62041
997.01         70.4592
997.39        72.05981
997.77        72.92245
998.15        73.43674
998.54        73.24969
998.92        71.68996
999.30        68.99138
999.68        65.43855
1000.06        62.34207
1000.45        61.58531
1000.83        63.61735
1001.21        68.11256
1001.59         73.8231
1001.97        77.58279
1002.35        78.04652
1002.73         76.0855
1003.12        73.30255
1003.50        71.79675
1003.88        72.19615
1004.26        73.70665
1004.64        75.88298
1005.02        77.78403
1005.40        78.83791
1005.78        79.54544
1006.16        79.45202
1006.54        77.75609
1006.92        74.65887
1007.30         70.5328
1007.69        66.82003
1008.07        65.42534
1008.45        66.88577
1008.83        70.83447
1009.21        76.12424
1009.59        79.74732
1009.97        80.14317
1010.35        78.01649
1010.73        74.49908
1011.11        71.32587
1011.49         69.1298
1011.86        67.49319
1012.24        66.31242
1012.62        65.37103
1013.00        64.55788
1013.38         63.9949
1013.76        63.86393
1014.14        64.40579
1014.52        65.61002
1014.90         67.2394
1015.28        68.76183
1015.66        69.57702
1016.04        69.62196
1016.41        69.07574
1016.79        68.25168
1017.17        67.84984
1017.55        68.06272
1017.93        68.59759
1018.31        69.32398
1018.69        70.06653
1019.06        70.78029
1019.44        71.62576
1019.82         72.1692
1020.20         71.5073
1020.58         69.4943
1020.95        66.40983
1021.33        63.60143
1021.71         62.3998
1022.09        62.98933
1022.46        65.47703
1022.84        68.59893
1023.22         69.3201
1023.60        66.65668
1023.97        61.41505
1024.35         56.9269
1024.73        57.17446
