SpectraSmart Spectrum 2.9.0.0
--------- Device Information -----------
Spectrum Name :  反射率_0
Saving Time :  2024/04/30 00:02:09
Spectro-Module Model Name : SE2030-DUVN
Spectro-Module Serial Number : OS361AC55029948
Wavelength Start : 200
Wavelength End : 1025
Wavelength Unit : Wavelength(nm)
Spectrum Unit : Reflectance(%)
-----------Spectrum Setting ------------
Integration Time : 20ms
Average : 10
Boxcar : 0
Background removal :  enabled
linearity correction :  enabled
SC :  disabled
Intensity correction :  disabled
DWT denoise :  enabled
savitzky-golay :  disabled
FFT :  disabled
Running average :  disabled
Kalman :  disabled
High pass :  disabled
---------------BEGIN--------------------
Wavelength(nm)             Reflectance(%)
200.29               0
200.75        101.1106
201.21        92.29872
201.67        83.03168
202.13        73.62962
202.58        64.70609
203.04        55.78152
203.50        49.26511
203.96        50.62481
204.42        61.03712
204.88        78.06651
205.34        94.13841
205.80        98.36169
206.26        91.43085
206.72        80.16305
207.18        68.89085
207.64        59.52972
208.10        51.47087
208.55        43.19713
209.01        35.67085
209.47        32.98745
209.93        35.81448
210.39        42.11658
210.85         48.2056
211.31        51.01093
211.77        50.49371
212.23        46.87544
212.69        41.60348
213.14        41.46054
213.60        48.12131
214.06         57.1954
214.52        64.26543
214.98        67.02602
215.44        66.28131
215.90        63.22609
216.36         59.3653
216.81        57.46181
217.27        59.07932
217.73         64.2149
218.19        72.30298
218.65        78.66789
219.11         79.5882
219.57        76.29269
220.02        72.24435
220.48        70.50269
220.94        70.56535
221.40        71.54034
221.86        71.13329
222.32        65.06771
222.77        54.92025
223.23        45.84169
223.69        39.50048
224.15        35.54684
224.61        32.97919
225.06        31.11934
225.52        30.46683
225.98        31.69937
226.44        34.29099
226.90         37.2296
227.36        39.54271
227.81        40.77027
228.27        41.12991
228.73        40.78553
229.19        40.08072
229.65        39.74919
230.10        39.94753
230.56        40.39552
231.02        40.65071
231.48        40.30573
231.93        39.28979
232.39        37.82776
232.85        36.20411
233.31        35.03127
233.77         34.5694
234.22        34.81845
234.68          35.363
235.14        35.44093
235.60        34.93057
236.05        34.07953
236.51        33.69535
236.97        34.88814
237.43         38.0165
237.88        43.32635
238.34        50.11129
238.80         55.5859
239.26        57.45423
239.71        56.03804
240.17        52.96198
240.63        51.05811
241.08        51.30433
241.54        53.59121
242.00        58.84433
242.46        66.59164
242.91        74.38784
243.37          80.343
243.83        84.31732
244.28        88.69171
244.74        94.54379
245.20        100.6146
245.66        106.8161
246.11        112.7069
246.57        117.3139
247.03        122.6043
247.48        124.2321
247.94        114.2563
248.40        97.53957
248.85        80.71441
249.31        70.66646
249.77        69.93933
250.22        78.01437
250.68         96.7006
251.14        125.4126
251.59        140.5223
252.05        126.3207
252.51        101.5852
252.96        82.57289
253.42        74.28972
253.88        72.92734
254.33        75.06935
254.79        78.30273
255.25        77.93034
255.70        73.76051
256.16        69.31213
256.62        65.96004
257.07        64.23044
257.53        64.05501
257.99        64.51891
258.44        64.87869
258.90        64.93206
259.35        64.22171
259.81        63.38632
260.27        62.47491
260.72        61.53318
261.18        60.74148
261.63        59.77919
262.09        58.71643
262.55        57.32914
263.00        55.65889
263.46        54.06099
263.91        52.51203
264.37        51.26643
264.83        50.22179
265.28        49.23251
265.74        48.41697
266.19        47.73128
266.65        47.22186
267.11         46.8442
267.56        46.42746
268.02         45.7238
268.47        44.66856
268.93        43.33825
269.38        41.92986
269.84        40.91354
270.30        40.38916
270.75        40.21583
271.21        40.12798
271.66        39.69782
272.12        38.84001
272.57        37.66634
273.03        36.40273
273.48        35.32627
273.94        34.57887
274.39         34.0159
274.85        33.56367
275.31        33.04395
275.76        32.39582
276.22        31.71548
276.67         31.0191
277.13        30.41547
277.58        29.87742
278.04        29.40457
278.49        28.91788
278.95        28.40082
279.40        27.81367
279.86        27.25263
280.31        26.70977
280.77        26.28385
281.22        25.95728
281.68        25.72678
282.13        25.58803
282.59        25.58465
283.04        25.67608
283.50        25.83154
283.95        25.94398
284.41        25.86126
284.86        25.56169
285.32        25.15585
285.77        24.70989
286.22        24.38869
286.68        24.24685
287.13        24.19735
287.59        24.27917
288.04        24.49213
288.50        24.81597
288.95        25.20281
289.41        25.54598
289.86        25.64682
290.32        25.51122
290.77        25.21126
291.22        24.88198
291.68        24.73698
292.13        24.83759
292.59        25.15269
293.04        25.68116
293.50        26.44498
293.95        27.42308
294.40        28.62355
294.86        29.92609
295.31        31.14745
295.77        32.23701
296.22         33.2152
296.68        34.21595
297.13         35.4361
297.58        36.91833
298.04        38.56392
298.49        40.22073
298.95         41.6622
299.40        42.83376
299.85        43.82257
300.31        44.76919
300.76        45.81373
301.21        47.03335
301.67        48.39725
302.12        49.81437
302.58        51.29456
303.03        52.78886
303.48        54.21986
303.94        55.61057
304.39        57.41051
304.84        58.85931
305.30        60.54404
305.75        62.12547
306.20        63.51134
306.66        64.69249
307.11        65.66545
307.57        66.57253
308.02        67.51424
308.47        68.55293
308.93        69.65638
309.38        70.73034
309.83        71.69524
310.29        72.53033
310.74        73.26378
311.19        73.90482
311.65        74.45297
312.10         74.9119
312.55        75.29303
313.00        75.69842
313.46          76.291
313.91         77.0732
314.36        77.99699
314.82         78.9047
315.27        79.56484
315.72        79.89893
316.18         79.9797
316.63         79.9096
317.08        79.87164
317.53        79.93966
317.99        80.09011
318.44        80.27625
318.89        80.43433
319.35        80.54714
319.80        80.64001
320.25        80.79173
320.70        81.11951
321.16        81.60921
321.61        82.24826
322.06        82.85042
322.51        83.13171
322.97         83.0276
323.42          82.637
323.87        82.16637
324.32        81.96227
324.78        82.10244
325.23        82.54478
325.68        83.11642
326.13        83.52066
326.59        83.65248
327.04        83.62595
327.49        83.58335
327.94        83.79577
328.39        84.31794
328.85        85.01055
329.30        85.74165
329.75        86.13216
330.20        86.08403
330.66        85.71426
331.11        85.24266
331.56        84.95773
332.01         84.9762
332.46        85.23008
332.92        85.63367
333.37        86.15297
333.82        86.69705
334.27        87.28452
334.72         87.8958
335.17         88.4922
335.63        89.03276
336.08        89.55257
336.53        89.97517
336.98        90.24699
337.43        90.36993
337.88        90.35947
338.34         90.3444
338.79        90.55206
339.24        91.02144
339.69        91.71185
340.14        92.44367
340.59        92.89956
341.05        93.02062
341.50        92.92303
341.95        92.80425
342.40        92.99425
342.85        93.56242
343.30        94.36185
343.75        95.26061
344.20        96.05103
344.66        96.66039
345.11        97.16677
345.56        97.50433
346.01         97.5603
346.46        97.37064
346.91        96.97933
347.36        96.66879
347.81        96.87556
348.26        97.65948
348.72        98.87034
349.17         100.196
349.62        101.0357
350.07        101.2184
350.52        100.9378
350.97        100.4487
351.42         100.148
351.87        100.1668
352.32         100.382
352.77        100.7441
353.22        101.1828
353.67        101.6325
354.13        102.0939
354.58        102.4928
355.03        102.6935
355.48        102.6487
355.93        102.3743
356.38        101.8876
356.83        101.2323
357.28        100.4601
357.73        99.60482
358.18        98.75072
358.63        98.01959
359.08        97.44603
359.53        97.00365
359.98        96.66633
360.43        96.37673
360.88        96.10046
361.33        95.84714
361.78        95.55522
362.23        95.13181
362.68        94.56763
363.13        93.88592
363.58         93.1881
364.03         92.6415
364.48         92.2837
364.93        92.06736
365.38        91.89716
365.83        91.61996
366.28        91.18964
366.73        90.64223
367.18        90.04717
367.63         89.5117
368.08        89.05832
368.53        88.65663
368.98        88.23183
369.43        87.66249
369.88        86.94559
370.33        86.15351
370.78        85.39996
371.23        84.86668
371.68        84.59116
372.13        84.48276
372.58        84.47875
373.03        84.47923
373.48        84.41489
373.93        84.30256
374.38        84.02503
374.83        83.40548
375.28         82.4644
375.72        81.27419
376.17        80.13788
376.62        79.35887
377.07        78.99503
377.52        78.94013
377.97        79.05613
378.42        79.10757
378.87        79.00036
379.32        78.79056
379.77        78.48624
380.22        78.09808
380.67        77.63879
381.11        77.09653
381.56        76.50455
382.01        75.94984
382.46        75.47464
382.91          75.083
383.36        74.76565
383.81        74.48898
384.26         74.2364
384.71        74.01183
385.15        73.79535
385.60        73.61172
386.05        73.43118
386.50        73.23335
386.95        73.00259
387.40        72.72572
387.85        72.41228
388.29        72.04166
388.74        71.70581
389.19        71.33607
389.64        70.92975
390.09        70.47864
390.54        70.06406
390.98        69.81277
391.43        69.77223
391.88        69.87624
392.33        69.95073
392.78        69.81628
393.23        69.46277
393.67        68.81843
394.12        68.09331
394.57        68.03825
395.02        67.70909
395.47        67.81973
395.91        67.99084
396.36        68.05602
396.81        67.96164
397.26        67.77511
397.71        67.54181
398.15        67.22186
398.60        66.90533
399.05        66.68134
399.50        66.53313
399.95        66.21198
400.39        65.62397
400.84        65.94514
401.29        66.85694
401.74        67.06509
402.18        66.43578
402.63        65.62936
403.08        64.96722
403.53        64.64871
403.97        64.74919
404.42        65.18027
404.87          65.688
405.32        65.84364
405.76        65.54285
406.21        65.02695
406.66        64.44608
407.11        63.93591
407.55        63.68491
408.00        63.77754
408.45        64.14188
408.90        64.72482
409.34        65.23445
409.79        64.95079
410.24         64.1349
410.68        63.91628
411.13        64.38083
411.58        64.89491
412.03        65.25764
412.47        65.41949
412.92        65.28422
413.37        64.91837
413.81        64.44499
414.26        64.11494
414.71        63.96085
415.15        63.93298
415.60        63.98568
416.05        64.08164
416.49        64.20037
416.94        64.36512
417.39        64.52625
417.83        64.57897
418.28         64.5166
418.73        64.35964
419.17        64.20805
419.62        64.24136
420.07        64.46555
420.51        64.79778
420.96        65.14526
421.41        65.24489
421.85        65.02726
422.30        64.87199
422.74        64.75224
423.19        64.22199
423.64        63.53035
424.08        63.81129
424.53        64.90207
424.98         65.5003
425.42        65.46236
425.87        65.58521
426.31        65.87101
426.76        65.75879
427.21        65.22702
427.65        65.23077
428.10        65.63171
428.54        65.57439
428.99        65.13148
429.44        64.93751
429.88          65.043
430.33        65.15718
430.77        65.27172
431.22        65.84681
431.66        66.72154
432.11        67.03982
432.56        66.77168
433.00        66.66827
433.45        66.90994
433.89        66.98113
434.34        67.06693
434.78        68.03103
435.23        66.56365
435.67        66.23947
436.12        66.18899
436.57         66.2741
437.01        66.45725
437.46        66.81342
437.90        67.09182
438.35        67.64268
438.79        68.27261
439.24        68.57943
439.68        68.56326
440.13        68.59428
440.57        68.74881
441.02        68.76658
441.46        68.61353
441.91        68.74229
442.35         69.0943
442.80        68.50365
443.24        68.97719
443.69        68.84624
444.13        68.71921
444.58        68.64466
445.02        68.59574
445.47        68.56595
445.91        68.57932
446.36        68.64678
446.80         68.7244
447.24        69.30976
447.69        69.42329
448.13        69.60842
448.58        69.59241
449.02        69.42828
449.47        69.24181
449.91        69.21474
450.36        69.40434
450.80        69.71739
451.25        70.06444
451.69        70.27141
452.13        70.30197
452.58        70.24434
453.02        70.14024
453.47        70.05807
453.91        70.00479
454.36         70.0953
454.80        70.03671
455.24        70.26805
455.69        70.55804
456.13        70.91579
456.58        70.47153
457.02        70.41265
457.46        70.49462
457.91        70.47655
458.35          70.309
458.79         70.1792
459.24        70.13974
459.68        70.05798
460.13        69.93725
460.57        70.06138
461.01        69.95522
461.46         69.8673
461.90        69.70512
462.34        69.90892
462.79         70.3019
463.23        70.15778
463.68        69.55547
464.12        69.23454
464.56        69.24953
465.01        69.19615
465.45        69.03745
465.89        69.04941
466.34        69.19418
466.78        69.42206
467.22        69.42448
467.67        69.39812
468.11        69.27726
468.55        69.00916
468.99        68.67859
469.44        68.43768
469.88        68.32607
470.32        68.31828
470.77        68.36056
471.21        68.38534
471.65        68.35286
472.10        68.29943
472.54        68.25549
472.98         68.2739
473.42        68.34837
473.87        68.55228
474.31        68.78779
474.75        68.65431
475.20        68.23884
475.64        68.24717
476.08        68.69513
476.52        68.38994
476.97        67.93975
477.41        68.04417
477.85        67.96125
478.29        67.15009
478.74        68.11058
479.18        68.09577
479.62        67.64493
480.06        67.60101
480.50        67.90645
480.95        67.85564
481.39        68.47726
481.83        67.85631
482.27        68.56066
482.72        68.19479
483.16        68.42848
483.60        68.27712
484.04        68.46587
484.48        68.60718
484.93        68.62527
485.37        68.60117
485.81        67.83265
486.25        67.01762
486.69        68.71619
487.14        68.53126
487.58         67.9103
488.02        67.79622
488.46        68.06815
488.90        68.16965
489.34        67.99365
489.79        68.59298
490.23        67.87206
490.67        67.80937
491.11        67.78469
491.55        67.57842
491.99         67.2489
492.43         67.1118
492.88        67.20898
493.32         67.4358
493.76        67.71266
494.20        67.95596
494.64        68.11266
495.08        68.20782
495.52        68.27126
495.96        68.24814
496.41        68.12948
496.85        68.30876
497.29        68.19678
497.73         67.9219
498.17        67.60687
498.61        67.37346
499.05        67.13452
499.49        67.24116
499.93        67.51135
500.37        67.46679
500.82        67.15142
501.26        67.10395
501.70        67.34006
502.14        67.52127
502.58        67.60504
503.02         67.6928
503.46        67.77687
503.90        67.78849
504.34        67.81046
504.78        67.82777
505.22        67.86649
505.66        67.90061
506.10          67.908
506.54        67.92678
506.98        67.96581
507.42           67.89
507.86        67.63795
508.30        67.87453
508.74        67.36678
509.18        67.13421
509.62        66.90082
510.06        66.84108
510.50        66.97044
510.94        67.25696
511.38         67.5931
511.82        67.76378
512.26        67.71747
512.70        67.51268
513.14        67.25399
513.58        67.11377
514.02        67.13685
514.46        67.25491
514.90          67.391
515.34        67.50139
515.78        67.42902
516.22        67.31326
516.66        67.17458
517.10        67.09818
517.54        67.10505
517.98        67.17042
518.42        67.24418
518.86        67.24662
519.30        67.16183
519.74        67.01705
520.18        66.87647
520.62        66.83442
521.06        66.91281
521.50        67.08794
521.93        67.29161
522.37         67.3903
522.81        67.36115
523.25        67.23457
523.69        67.09959
524.13         67.0951
524.57        67.24355
525.01        67.49519
525.45        67.74036
525.89        67.80274
526.32        67.63554
526.76        67.32407
527.20        66.97582
527.64        66.75848
528.08        66.71606
528.52        66.79735
528.96        66.93653
529.40        67.02937
529.83        67.03792
530.27        67.00288
530.71        66.95133
531.15        66.93004
531.59        66.95001
532.03         66.9882
532.46        67.01127
532.90        66.99985
533.34        66.94389
533.78        66.86301
534.22        66.78085
534.66        66.73022
535.09        66.71289
535.53        66.72868
535.97        66.76051
536.41        66.79606
536.85        66.82574
537.28        66.84939
537.72        66.85324
538.16        66.80987
538.60        66.71809
539.04        66.59023
539.47        66.44221
539.91        66.35439
540.35        66.32361
540.79        66.34409
541.22        66.38785
541.66        66.41947
542.10        66.42514
542.54        66.42297
542.97        66.42587
543.41        66.47332
543.85        66.56152
544.29        66.68491
544.72        66.79201
545.16        66.84203
545.60        66.82088
546.04        66.71504
546.47        66.58351
546.91        66.62466
547.35        66.81378
547.79        66.90331
548.22        66.84419
548.66        66.91847
549.10        67.12773
549.53        67.11512
549.97        66.78642
550.41        67.37082
550.84        66.85363
551.28        66.76571
551.72        66.51334
552.15        66.68003
552.59        66.44398
553.03        66.47002
553.46        66.51209
553.90        66.55594
554.34        66.57587
554.77        66.64663
555.21        66.74569
555.65        66.67159
556.08        66.47871
556.52        66.49183
556.96        66.68556
557.39        66.84022
557.83        66.92268
558.27        66.98218
558.70        66.92227
559.14        67.01251
559.57        67.15836
560.01        67.23656
560.45        67.23591
560.88          66.998
561.32        66.91663
561.75        66.92401
562.19        67.07237
562.63        66.95783
563.06         66.6338
563.50         66.5797
563.93        66.75813
564.37        66.84241
564.80        66.80223
565.24         66.8391
565.68        66.92235
566.11        66.97972
566.55        67.00584
566.98        66.88469
567.42        66.74634
567.85        66.74932
568.29         66.8794
568.72        67.10564
569.16        67.50025
569.60        66.91962
570.03         67.4239
570.47        67.39227
570.90         67.4341
571.34        67.21789
571.77         67.4276
572.21        67.53595
572.64        67.68434
573.08        67.64298
573.51        67.41785
573.95         67.5956
574.38        67.74602
574.82        67.44271
575.25        67.67121
575.69         67.5099
576.12        67.13214
576.56        66.94951
576.99        66.90375
577.42        67.41373
577.86        67.13963
578.29        66.62174
578.73        67.56783
579.16        67.35622
579.60        67.49445
580.03         67.1194
580.47        67.52593
580.90        67.52341
581.33         67.0189
581.77         67.0429
582.20        67.14491
582.64        67.82492
583.07        67.31961
583.51        66.98987
583.94         66.8013
584.37        66.52213
584.81        66.47977
585.24         66.8494
585.68        67.29919
586.11        67.90912
586.54        67.27106
586.98        66.73739
587.41        67.57923
587.85        67.55811
588.28        67.79061
588.71        67.99706
589.15        67.29621
589.58        66.94428
590.01        66.58853
590.45        66.65802
590.88         67.1271
591.31        67.31831
591.75          67.261
592.18        67.52646
592.61        67.68142
593.05        66.38145
593.48        67.07681
593.91        67.83126
594.35        66.79312
594.78        66.61855
595.21        66.40852
595.65        67.03887
596.08        66.54047
596.51        66.66963
596.94        66.99552
597.38        67.15823
597.81        67.17442
598.24        66.95792
598.68         67.3394
599.11        66.79667
599.54        67.61861
599.97        67.72777
600.41        66.49368
600.84        67.06525
601.27        66.81434
601.70         67.2252
602.14        67.50822
602.57        67.22578
603.00        66.58001
603.43        66.37225
603.87        66.37578
604.30        67.21931
604.73        66.66917
605.16        66.52866
605.60        66.67286
606.03        66.91615
606.46        67.18105
606.89        67.52863
607.32        67.02525
607.76        66.96667
608.19        67.15842
608.62        67.00884
609.05        66.86492
609.48        66.97704
609.92        67.40092
610.35        67.07091
610.78        67.33429
611.21         66.9716
611.64        66.94075
612.07        67.22083
612.50        67.16527
612.94        66.82796
613.37        67.26437
613.80        67.13893
614.23        67.34965
614.66        67.35584
615.09        67.32656
615.52        67.31098
615.96        67.31409
616.39        67.25814
616.82        67.07268
617.25        67.27399
617.68        66.65295
618.11         66.7158
618.54        67.01953
618.97        67.02699
619.40         66.7772
619.84        66.74955
620.27        66.99481
620.70        67.33373
621.13        67.64148
621.56        67.46632
621.99        66.97572
622.42        66.76435
622.85        67.30128
623.28        66.74316
623.71        67.42934
624.14        66.53012
624.57        67.28939
625.00        67.06628
625.43        67.09048
625.86        66.93349
626.29        66.82925
626.72        66.75452
627.15        66.71917
627.58        66.75655
628.01        66.82554
628.44        66.80301
628.87        66.70728
629.30        66.73283
629.73        66.87984
630.16        66.95246
630.59        66.93099
631.02        67.07807
631.45        67.07544
631.88         67.0867
632.31        67.01503
632.74        66.91784
633.17        66.77319
633.60        66.66541
634.03        66.59884
634.46        66.55347
634.89        66.52735
635.32        66.52563
635.75         66.5411
636.18         66.5627
636.61        66.58003
637.04        66.58803
637.47         66.5983
637.89        66.57218
638.32        66.46996
638.75        66.43192
639.18        66.49574
639.61          65.979
640.04        66.12066
640.47        66.03529
640.90         66.0934
641.33        66.25933
641.76        66.46632
642.18        66.58063
642.61        66.53577
643.04        66.37968
643.47        66.22118
643.90        66.21698
644.33         66.3888
644.76        66.76525
645.18         67.1824
645.61        67.18734
646.04        66.67974
646.47        66.51875
646.90         66.6609
647.33        66.60309
647.75        66.34152
648.18        66.17209
648.61        66.15219
649.04        66.25114
649.47        66.43217
649.89        66.67866
650.32        66.86374
650.75        66.77615
651.18        66.51586
651.61        66.42239
652.03        66.58853
652.46        66.91714
652.89        67.14409
653.32        67.11339
653.74        67.03239
654.17         66.0222
654.60        65.70193
655.03        67.27699
655.46        65.95452
655.88        66.62634
656.31         67.9614
656.74        69.46964
657.16        69.68042
657.59        67.82362
658.02        66.86734
658.45        67.21256
658.87        67.12201
659.30        67.07449
659.73        67.67434
660.15        67.34306
660.58         67.4737
661.01         67.1903
661.44        66.91927
661.86        66.57508
662.29        66.27211
662.72        66.47025
663.14        67.01421
663.57        66.95713
664.00        66.40106
664.42        66.26505
664.85        66.59518
665.27        66.82425
665.70        66.87729
666.13        66.94345
666.55        67.01341
666.98        67.01588
667.41        66.97054
667.83        66.91219
668.26        66.84536
668.69        66.77905
669.11         66.7174
669.54        66.65919
669.96        66.60491
670.39        66.57926
670.82         66.5808
671.24        66.54987
671.67        66.50214
672.09        66.57919
672.52        66.74665
672.94        66.88193
673.37        66.45383
673.80        66.74506
674.22        66.32148
674.65        66.34942
675.07        66.46724
675.50        66.67616
675.92        66.90694
676.35        67.04086
676.77        67.06499
677.20         66.9827
677.62        66.87341
678.05        66.88024
678.47        67.01565
678.90        67.20798
679.32        67.36832
679.75         67.3966
680.17        67.26451
680.60        67.02055
681.02        66.75275
681.45        66.60081
681.87        66.60188
682.30         66.7323
682.72        66.90563
683.15        67.04692
683.57        67.14549
684.00        67.31475
684.42        67.49105
684.85         67.5454
685.27        67.47687
685.70         67.2095
686.12         66.9071
686.54        67.18502
686.97        67.90348
687.39        68.26638
687.82        68.16049
688.24         68.1424
688.66        68.19479
689.09        67.94273
689.51        67.48866
689.94        67.20384
690.36         67.1416
690.78        67.20434
691.21        67.32968
691.63         67.4248
692.06        67.45164
692.48        67.44576
692.90        67.43192
693.33        67.44155
693.75        67.48659
694.17        67.53938
694.60        67.58161
695.02        67.60001
695.44        67.58628
695.87         67.5787
696.29        67.58865
696.71        67.53154
697.14        67.45217
697.56        67.49306
697.98        67.64844
698.41        67.77092
698.83        67.83106
699.25        67.93729
699.68        68.04079
700.10        68.01801
700.52        67.83362
700.94        67.75669
701.37        67.43987
701.79        67.29647
702.21        67.22957
702.64        67.23464
703.06         67.2971
703.48        67.40923
703.90        67.56069
704.33        67.75759
704.75        67.93246
705.17         68.0415
705.59        68.04939
706.01        67.97708
706.44        67.87483
706.86        67.81606
707.28        67.81959
707.70        67.89023
708.12        68.03342
708.55        68.06641
708.97        68.31031
709.39        68.37717
709.81        68.37226
710.23        68.45785
710.66        68.63157
711.08         68.8147
711.50        68.95232
711.92        69.04272
712.34        69.07677
712.76        69.05537
713.19        68.98999
713.61        68.94724
714.03        68.92536
714.45        68.91929
714.87        68.92291
715.29        68.92023
715.71        68.90364
716.13        68.88429
716.56        68.86387
716.98         68.8585
717.40        68.83047
717.82        68.90946
718.24        69.11428
718.66         68.7614
719.08         68.9809
719.50        68.86707
719.92        68.77014
720.34        68.68056
720.76        68.61463
721.19        68.55392
721.61        68.49543
722.03        68.43895
722.45        68.38184
722.87        68.32513
723.29        68.28815
723.71        68.29575
724.13        68.34437
724.55        68.44246
724.97        68.55832
725.39        68.58054
725.81        68.48787
726.23        68.53996
726.65        68.37234
727.07        68.38374
727.49        68.46589
727.91        68.59182
728.33         68.7356
728.75        68.86359
729.17        68.96371
729.59        69.04165
730.01        69.05166
730.43         68.9597
730.85        68.78442
731.27        68.39234
731.69        68.19539
732.10        68.16542
732.52        68.42033
732.94        68.89249
733.36        69.44392
733.78        69.81857
734.20        69.92704
734.62        69.83159
735.04        69.63922
735.46        69.53649
735.88        69.56966
736.30        69.64973
736.72        69.71448
737.13        69.74223
737.55        69.64463
737.97        69.36865
738.39        69.02177
738.81        68.76723
739.23        68.70248
739.65        69.00993
740.06        69.48426
740.48        69.64133
740.90        69.40976
741.32        69.02774
741.74        68.66018
742.16         68.5238
742.57        68.70188
742.99        69.03033
743.41        69.39658
743.83        69.79246
744.25        70.07663
744.67        69.89272
745.08        69.39346
745.50        69.19128
745.92        69.37328
746.34        69.61799
746.75         69.8355
747.17        70.00494
747.59        70.08743
748.01        70.11652
748.42        70.11517
748.84        70.05569
749.26        69.97777
749.68        69.94549
750.09         69.9497
750.51         69.9494
750.93        69.93069
751.35        69.93899
751.76        69.95924
752.18        69.93261
752.60         69.8499
753.01        69.74337
753.43        69.62799
753.85        69.53413
754.27        69.48376
754.68        69.60239
755.10        69.66133
755.52        69.74468
755.93        69.76464
756.35        69.71671
756.77        69.71558
757.18        69.89151
757.60        70.25673
758.02        70.94769
758.43        71.65131
758.85        71.53929
759.26        70.59027
759.68        70.12122
760.10        70.23056
760.51        70.36749
760.93        70.47491
761.34        70.71833
761.76        70.94902
762.18        70.97621
762.59        70.75197
763.01        70.11141
763.42        69.32574
763.84        68.95802
764.26        69.11326
764.67        69.52539
765.09        70.03783
765.50         70.4435
765.92        70.65884
766.33        70.69226
766.75        70.51257
767.16        70.37965
767.58        70.30619
768.00        70.05833
768.41        69.74852
768.83        69.93291
769.24        70.44166
769.66        70.48785
770.07         70.0929
770.49        69.85678
770.90        69.87512
771.32        70.08706
771.73        70.42027
772.15        70.52074
772.56        70.36224
772.97        70.41231
773.39        70.24512
773.80        70.35199
774.22        70.57082
774.63        70.93596
775.05        71.28632
775.46        71.46047
775.88        71.38437
776.29         71.1378
776.70        70.81935
777.12        70.61382
777.53        70.58553
777.95        70.67453
778.36        70.83061
778.77         70.9578
779.19        71.02334
779.60        71.08435
780.02        71.13664
780.43        71.26241
780.84        71.45757
781.26        71.55563
781.67        71.58392
782.09        71.86928
782.50        72.27705
782.91        72.15009
783.33        71.55273
783.74         71.2014
784.15        71.15869
784.57        71.05624
784.98        70.91082
785.39        70.92049
785.81        71.09285
786.22        71.36567
786.63         71.7123
787.04        72.08607
787.46        72.45367
787.87        72.78826
788.28        73.05054
788.70        73.18067
789.11        73.16018
789.52        73.02285
789.93        72.80317
790.35        72.55601
790.76        72.33225
791.17         72.1377
791.58        72.01056
792.00        71.98375
792.41        72.07734
792.82        72.26089
793.23        72.49634
793.65        72.72022
794.06        72.90586
794.47        73.05102
794.88        73.11557
795.29         73.0469
795.71        72.81845
796.12        72.48208
796.53        72.16589
796.94        72.11943
797.35        72.40157
797.76        72.93912
798.18        73.53228
798.59         73.8979
799.00         73.9323
799.41        73.72387
799.82         73.3897
800.23         73.1343
800.64        73.03543
801.06        73.01152
801.47        73.07828
801.88         73.1837
802.29        73.29625
802.70        73.42046
803.11        73.54289
803.52        73.62872
803.93        73.67777
804.34        73.70699
804.75        73.67437
805.17        73.58041
805.58        73.47622
805.99         73.1589
806.40        72.79763
806.81          73.131
807.22        73.97163
807.63        74.16618
808.04        73.72326
808.45        73.64463
808.86        73.97327
809.27        74.09397
809.68        73.96174
810.09        73.83925
810.50        73.74522
810.91        73.60199
811.32        73.49172
811.73        73.54788
812.14        73.78429
812.55        74.17793
812.96        74.58844
813.37        74.74135
813.78        74.57622
814.19        74.20018
814.60        73.76778
815.01        73.49937
815.42        73.44961
815.83        73.53985
816.24        73.74425
816.65        74.00376
817.05        74.26313
817.46        74.50227
817.87        74.65236
818.28        74.55169
818.69        74.19219
819.10        73.61813
819.51        73.00425
819.92        72.68831
820.33        72.77203
820.74        73.14987
821.14        73.67259
821.55        74.10712
821.96        74.36726
822.37        74.53066
822.78        74.58009
823.19        74.49349
823.60        74.28737
824.00         73.9408
824.41        73.58428
824.82        73.46905
825.23        73.63497
825.64         74.0416
826.04        74.49121
826.45        74.53954
826.86        74.11917
827.27        73.36964
827.68        72.57851
828.08        72.22446
828.49        72.38335
828.90        72.94985
829.31        73.72156
829.72        74.34045
830.12        74.70478
830.53        74.83308
830.94         74.8596
831.35        74.96991
831.75        75.23354
832.16        75.49101
832.57        75.67919
832.97        75.67023
833.38        75.44659
833.79        75.13314
834.20        74.77016
834.60        74.37769
835.01        74.02197
835.42        73.66634
835.82        73.49351
836.23        73.73644
836.64        74.43376
837.04        75.53773
837.45        76.60881
837.86        77.06071
838.26        76.74049
838.67        75.83134
839.08        74.72538
839.48        74.02027
839.89        73.92406
840.29        74.25819
840.70        74.82098
841.11        75.29868
841.51        75.59691
841.92        75.76923
842.33        75.89702
842.73        76.08828
843.14        76.31406
843.54        76.54983
843.95        76.70449
844.35        76.71895
844.76        76.56179
845.17        76.25646
845.57        75.92674
845.98        75.72906
846.38        75.72354
846.79        75.87144
847.19        76.01752
847.60         75.8438
848.00         75.3228
848.41        74.57791
848.81          73.892
849.22        73.68257
849.62        74.06609
850.03        74.86195
850.43        75.87072
850.84        76.52654
851.24        76.70514
851.65         76.4547
852.05        75.98115
852.46        75.57669
852.86        75.33793
853.27        75.25217
853.67        75.14792
854.07        74.98705
854.48        74.70034
854.88        74.33865
855.29        73.95416
855.69        73.86122
856.10        74.03294
856.50         74.4877
856.90          74.911
857.31        74.87198
857.71        74.35167
858.12         73.4511
858.52        72.54726
858.92        72.22131
859.33        72.60023
859.73        73.53393
860.13        74.68413
860.54        75.50485
860.94        75.85624
861.34        75.79864
861.75        75.40891
862.15        74.89827
862.55        74.34464
862.96        73.74142
863.36        73.07396
863.76        72.34354
864.17         71.6121
864.57        70.95534
864.97        70.51612
865.38        70.44202
865.78        70.77368
866.18        71.42203
866.58        72.25436
866.99        72.96878
867.39        73.46382
867.79        73.75341
868.19        73.78068
868.60        73.48451
869.00        72.90898
869.40        72.07052
869.80        71.28983
870.21        71.10972
870.61        71.68349
871.01        72.82241
871.41        74.05261
871.81        74.60677
872.22        74.29279
872.62        73.32723
873.02        72.11908
873.42        71.36466
873.82        71.27948
874.22        71.68144
874.63        72.24897
875.03        72.48765
875.43        72.28059
875.83         71.7895
876.23        71.34095
876.63         71.4549
877.03        72.22774
877.44        73.41799
877.84        74.65538
878.24        75.25125
878.64        75.04681
879.04        74.29337
879.44        73.35012
879.84         72.7408
880.24        72.59926
880.64        72.74825
881.04        73.07458
881.44         73.3876
881.84        73.60928
882.24        73.83997
882.65        73.97127
883.05        73.94583
883.45        73.71852
883.85        73.31988
884.25        72.97787
884.65        73.06506
885.05        73.62032
885.45        74.48174
885.85        75.39738
886.25        75.92886
886.65        75.92171
887.05        75.53033
887.45        74.78577
887.85        73.77203
888.25        72.65354
888.65        71.49401
889.04        70.55901
889.44        70.26118
889.84        70.58877
890.24        71.46626
890.64        72.60747
891.04        73.37609
891.44         73.5266
891.84         73.2256
892.24        72.75026
892.64        72.51281
893.04        72.60139
893.44        72.86243
893.83        73.22997
894.23         73.5126
894.63        73.68024
895.03        73.84332
895.43        73.95912
895.83        73.94661
896.23        73.80657
896.63        73.49785
897.02        73.23135
897.42           73.43
897.82         74.1176
898.22        75.20069
898.62        76.18599
899.01        76.26501
899.41        75.28808
899.81         73.5449
900.21        71.71747
900.61        70.84934
901.00        71.17323
901.40        72.38831
901.80        73.89131
902.20        74.67288
902.59        74.44516
902.99        73.51091
903.39        72.37143
903.79        71.77666
904.18        71.90548
904.58        72.53206
904.98         73.2505
905.38        73.46157
905.77        73.01083
906.17        72.11175
906.57        71.16814
906.96        70.82751
907.36        71.20059
907.76        72.10519
908.15        73.09284
908.55        73.29415
908.95        72.58324
909.34        71.25281
909.74         69.9233
910.14        69.40055
910.53        69.91412
910.93        71.15367
911.33        72.77601
911.72        74.25358
912.12        75.28328
912.52        75.99911
912.91        76.47469
913.31        76.81766
913.70        77.07076
914.10        77.13346
914.49        76.91138
914.89        76.28225
915.29        75.30499
915.68        74.10963
916.08        73.02316
916.47         72.3927
916.87        72.34856
917.26        72.74644
917.66         73.4072
918.05        74.03992
918.45        74.46661
918.84         74.8023
919.24        74.93594
919.64        74.84872
920.03         74.5694
920.42        74.06571
920.82        73.53451
921.21        73.19879
921.61        73.12031
922.00        73.26702
922.40        73.50069
922.79        73.65157
923.19        73.63566
923.58        73.54507
923.98        73.42629
924.37        73.36327
924.77        73.37662
925.16        73.42467
925.55        73.52375
925.95         73.7112
926.34        73.99327
926.74         74.3454
927.13        74.66053
927.52        74.72794
927.92         74.5249
928.31        74.09735
928.70        73.62778
929.10         73.4043
929.49        73.49387
929.89         73.7769
930.28        74.12207
930.67        74.21466
931.07        73.97759
931.46        73.56473
931.85        73.06528
932.24        72.60573
932.64        72.26334
933.03        72.00968
933.42         71.9498
933.82        72.25149
934.21        72.92027
934.60        73.81433
934.99        74.75126
935.39        75.40281
935.78        75.71322
936.17        75.76044
936.56        75.39857
936.96         74.4756
937.35        73.11274
937.74        71.45003
938.13         70.0747
938.53        69.72973
938.92        70.46822
939.31        72.15615
939.70        74.16969
940.09        75.26048
940.49        75.01687
940.88         73.7901
941.27         72.2943
941.66        71.61647
942.05        72.00504
942.44        73.17457
942.84        74.52838
943.23         75.0669
943.62        74.45387
944.01        73.05615
944.40        71.59718
944.79        71.10786
945.18        71.80132
945.57        73.36079
945.97        75.06795
946.36        75.92628
946.75        75.52905
947.14        74.22727
947.53        72.70644
947.92        71.99431
948.31        72.34895
948.70        73.47123
949.09        74.80712
949.48        75.37464
949.87        74.88194
950.26        73.67408
950.65        72.32727
951.04        71.61084
951.43        71.70526
951.82         72.4086
952.21         73.2948
952.60        73.60981
952.99        73.14561
953.38        72.15495
953.77        71.20124
954.16        71.03201
954.55        71.78554
954.94        73.30653
955.33        74.99926
955.72        75.59039
956.11        74.67532
956.50        72.71042
956.89        70.65913
957.28        69.76651
957.66        70.31623
958.05         71.8933
958.44        73.86255
958.83        74.91238
959.22        74.58836
959.61        73.35974
960.00         71.8923
960.39        71.02139
960.78         70.9088
961.16        71.30115
961.55        71.85947
961.94        72.04528
962.33        71.67959
962.72        71.06236
963.11        70.40546
963.49         69.9481
963.88         69.7674
964.27        69.74592
964.66        69.96848
965.04        70.64725
965.43        71.67783
965.82        73.01482
966.21        74.30115
966.60        74.88084
966.98        74.61925
967.37        73.77734
967.76        72.71783
968.15         71.9378
968.53        71.54498
968.92        71.32035
969.31        71.35907
969.69        71.84599
970.08        72.69837
970.47        74.02968
970.86        75.18328
971.24        75.02819
971.63        73.38866
972.02        70.67927
972.40        68.10415
972.79        67.54698
973.17        69.29221
973.56         72.6372
973.95        76.43993
974.33         78.5284
974.72        78.13383
975.11        75.99535
975.49        73.11289
975.88        71.34666
976.26        71.19228
976.65        72.00751
977.04        73.37534
977.42        74.53503
977.81        74.99947
978.19        75.19558
978.58        75.06156
978.96        74.33479
979.35        73.14455
979.74        71.54184
980.12        70.15324
980.51        70.06944
980.89        71.57994
981.28        74.18729
981.66        77.36422
982.05         79.8803
982.43        81.38566
982.82          82.116
983.20        81.93194
983.59        80.57491
983.97        78.29981
984.35        75.27419
984.74        72.66151
985.12        72.06834
985.51        73.64215
985.89        77.02648
986.28        80.83783
986.66        83.05875
987.04        82.88935
987.43        80.88675
987.81        77.93624
988.20         75.9361
988.58        75.44453
988.96        76.00089
989.35        76.66513
989.73        76.14925
990.12        74.11619
990.50        71.21211
990.88        68.33112
991.27        66.83507
991.65        67.01694
992.03        68.43321
992.42        70.46977
992.80        72.52149
993.18        74.21258
993.56        75.71032
993.95        76.83707
994.33        77.44401
994.71        77.41164
995.10        76.80878
995.48        75.91115
995.86        75.24076
996.24        74.97193
996.63        74.95167
997.01        75.29813
997.39        75.94553
997.77        76.77472
998.15        77.77129
998.54        78.64562
998.92        78.96563
999.30        78.65735
999.68        77.87569
1000.06        76.90318
1000.45        76.27334
1000.83        76.24926
1001.21        76.60992
1001.59        77.41534
1001.97        78.72343
1002.35        80.39341
1002.73        82.39413
1003.12        84.03506
1003.50        84.14793
1003.88        82.63916
1004.26        79.90024
1004.64        76.95819
1005.02        75.62123
1005.40        76.30888
1005.78        78.33583
1006.16        80.85227
1006.54        82.69548
1006.92        83.53583
1007.30        83.72587
1007.69        83.23761
1008.07        82.20201
1008.45        80.75586
1008.83         78.9115
1009.21        77.11848
1009.59        76.16458
1009.97        76.22223
1010.35        77.04371
1010.73        78.40909
1011.11        79.85154
1011.49         81.0718
1011.86        82.22709
1012.24        82.65829
1012.62        81.56452
1013.00        78.85887
1013.38        74.65184
1013.76        70.03744
1014.14         67.4524
1014.52        67.84601
1014.90        70.68522
1015.28         74.5333
1015.66        77.01791
1016.04        77.43974
1016.41        76.50465
1016.79        74.68328
1017.17        73.11781
1017.55        72.45238
1017.93        72.33092
1018.31        72.73763
1018.69        73.84179
1019.06        75.83811
1019.44        78.91145
1019.82        83.29227
1020.20        87.76277
1020.58        90.54636
1020.95        91.08228
1021.33        90.02795
1021.71        88.37193
1022.09        86.23178
1022.46        83.08102
1022.84        78.69111
1023.22        73.27475
1023.60        68.43101
1023.97        65.21261
1024.35        63.90395
1024.73        64.24246
