SpectraSmart Spectrum 2.9.0.0
--------- Device Information -----------
Spectrum Name :  反射率_0
Saving Time :  2024/04/30 00:34:18
Spectro-Module Model Name : SE2030-DUVN
Spectro-Module Serial Number : OS361AC55029948
Wavelength Start : 200
Wavelength End : 1025
Wavelength Unit : Wavelength(nm)
Spectrum Unit : Reflectance(%)
-----------Spectrum Setting ------------
Integration Time : 20ms
Average : 10
Boxcar : 0
Background removal :  enabled
linearity correction :  enabled
SC :  disabled
Intensity correction :  disabled
DWT denoise :  enabled
savitzky-golay :  disabled
FFT :  disabled
Running average :  disabled
Kalman :  disabled
High pass :  disabled
---------------BEGIN--------------------
Wavelength(nm)             Reflectance(%)
200.29               0
200.75        94.50028
201.21        82.81795
201.67        71.57012
202.13        64.38637
202.58        63.21188
203.04        67.13211
203.50        76.85015
203.96        93.10201
204.42        113.4842
204.88        135.0465
205.34        148.1421
205.80        141.9251
206.26        121.6881
206.72        97.70338
207.18        77.24497
207.64        63.46322
208.10        54.64296
208.55        48.23661
209.01        44.22305
209.47        44.24181
209.93        47.87818
210.39        53.89626
210.85        59.35898
211.31        61.98255
211.77         61.8096
212.23        58.61138
212.69         53.6619
213.14        53.33807
213.60        59.16764
214.06        67.54712
214.52        73.82307
214.98        75.09841
215.44        72.27592
215.90        66.77561
216.36         61.0582
216.81        59.92091
217.27        66.01504
217.73        79.77082
218.19        100.5838
218.65        118.6456
219.11        124.7686
219.57        120.5739
220.02        113.1151
220.48         109.022
220.94        107.9649
221.40        108.3313
221.86        107.3166
222.32        99.97684
222.77        88.06264
223.23         77.6174
223.69        70.72742
224.15        67.16833
224.61        65.68592
225.06        65.52446
225.52        66.06155
225.98        65.92535
226.44        64.95563
226.90        63.83113
227.36        62.97005
227.81        62.61026
228.27        62.74194
228.73        63.02521
229.19        63.48705
229.65        64.11538
230.10        64.64536
230.56         65.1803
231.02        65.30246
231.48        64.63739
231.93        63.15984
232.39        61.06951
232.85        58.84037
233.31        57.53531
233.77        57.50138
234.22        58.60278
234.68        60.07171
235.14        60.50988
235.60        59.61958
236.05        57.93279
236.51        56.46534
236.97         56.4995
237.43        58.41797
237.88        62.28759
238.34        67.65428
238.80        72.94638
239.26        76.39761
239.71        77.96616
240.17        77.97348
240.63        77.72818
241.08        77.93568
241.54        78.14371
242.00        78.86718
242.46        81.24812
242.91        86.12462
243.37        92.38587
243.83        98.97604
244.28        106.2519
244.74        114.8446
245.20         124.235
245.66        134.0583
246.11        142.6826
246.57        148.1584
247.03        152.4379
247.48        150.8647
247.94        136.3917
248.40        115.7201
248.85        96.03579
249.31        84.37016
249.77         82.7334
250.22        90.23851
250.68        108.5794
251.14        137.2885
251.59        152.8864
252.05        139.4659
252.51        115.5491
252.96        97.09322
253.42        89.29528
253.88        88.52406
254.33        91.49577
254.79        96.03611
255.25        97.46539
255.70        94.92024
256.16        91.63522
256.62        89.04749
257.07        87.86391
257.53        88.16711
257.99        88.94253
258.44        89.04861
258.90          87.956
259.35        85.45689
259.81        82.83413
260.27        80.49331
260.72        78.73293
261.18        77.68986
261.63        76.72861
262.09        75.78918
262.55        74.38934
263.00        72.51144
263.46        70.67995
263.91        68.83585
264.37        67.29648
264.83        65.94702
265.28        64.61409
265.74        63.50469
266.19        62.67288
266.65         62.1792
267.11        61.90451
267.56        61.56669
268.02        60.78291
268.47        59.44657
268.93        57.69653
269.38        55.76385
269.84        54.19412
270.30         53.1532
270.75        52.49047
271.21        52.02536
271.66        51.41723
272.12        50.57744
272.57        49.57295
273.03        48.50002
273.48        47.41107
273.94        46.42051
274.39        45.45005
274.85        44.56565
275.31        43.75586
275.76        42.98897
276.22        42.31392
276.67        41.67313
277.13        41.10613
277.58        40.54465
278.04        40.02364
278.49        39.46399
278.95         38.8814
279.40        38.21881
279.86        37.55951
280.31        36.86707
280.77        36.23105
281.22        35.62975
281.68        35.10271
282.13        34.64398
282.59        34.31285
283.04        34.07341
283.50        33.91018
283.95        33.75481
284.41        33.53255
284.86        33.21333
285.32         32.8723
285.77        32.49972
286.22        32.16793
286.68        31.90999
287.13        31.66561
287.59        31.49822
288.04        31.43782
288.50        31.49577
288.95        31.61829
289.41        31.73749
289.86        31.69753
290.32        31.51128
290.77        31.23562
291.22        30.97063
291.68        30.86647
292.13        30.96636
292.59        31.26499
293.04        31.77355
293.50        32.54573
293.95          33.566
294.40        34.82853
294.86        36.22684
295.31        37.60043
295.77        38.89709
296.22        40.13226
296.68        41.39387
297.13        42.80125
297.58        44.38816
298.04        46.08382
298.49        47.80233
298.95        49.42694
299.40        50.92333
299.85         52.3463
300.31        53.77879
300.76         55.2632
301.21        56.85537
301.67        58.55857
302.12        60.32287
302.58        62.22223
303.03        64.21569
303.48        66.23884
303.94        68.29156
304.39        70.63353
304.84        72.73168
305.30        75.01064
305.75        77.23523
306.20        79.36656
306.66        81.39996
307.11        83.27775
307.57        85.09852
308.02        86.88518
308.47        88.69772
308.93        90.52818
309.38        92.30059
309.83        93.97781
310.29        95.54746
310.74          97.011
311.19        98.36419
311.65        99.58602
312.10        100.6694
312.55        101.6461
313.00        102.6292
313.46        103.7996
313.91         105.162
314.36        106.6565
314.82        108.1308
315.27        109.3669
315.72        110.2738
316.18        110.9175
316.63        111.3508
317.08        111.6787
317.53        111.9747
317.99         112.259
318.44        112.5576
318.89         112.928
319.35        113.3847
319.80        113.9122
320.25        114.5632
320.70        115.4111
321.16        116.3982
321.61        117.5265
322.06        118.5399
322.51        119.0461
322.97        118.9632
323.42        118.4327
323.87        117.7459
324.32        117.3972
324.78        117.5083
325.23        118.0263
325.68        118.7573
326.13        119.3618
326.59        119.6989
327.04        119.8994
327.49        120.0744
327.94        120.4596
328.39        121.0958
328.85        121.8288
329.30        122.5474
329.75        122.8491
330.20         122.653
330.66        122.0938
331.11        121.4719
331.56        121.1735
332.01        121.3453
332.46        121.9007
332.92        122.6788
333.37        123.5633
333.82        124.3984
334.27         125.213
334.72        126.0141
335.17         126.818
335.63        127.5857
336.08        128.3541
336.53        128.9875
336.98        129.3634
337.43        129.4721
337.88        129.3538
338.34        129.2199
338.79         129.424
339.24        130.0316
339.69        130.9718
340.14        131.9599
340.59        132.5013
341.05        132.4995
341.50        132.1277
341.95        131.7005
342.40        131.7373
342.85        132.3466
343.30         133.311
343.75        134.3973
344.20         135.235
344.66        135.7112
345.11        135.9723
345.56        136.0043
346.01        135.7753
346.46        135.3587
346.91        134.7685
347.36        134.3206
347.81        134.5014
348.26        135.3603
348.72        136.7259
349.17        138.2014
349.62        139.0156
350.07        138.9668
350.52        138.3088
350.97        137.4065
351.42        136.8273
351.87         136.738
352.32        136.9466
352.77        137.3504
353.22        137.7957
353.67        138.1725
354.13        138.5014
354.58        138.6708
355.03        138.4807
355.48        137.8962
355.93        136.9718
356.38        135.8154
356.83        134.6084
357.28        133.4332
357.73        132.2786
358.18        131.1913
358.63        130.2274
359.08        129.3895
359.53        128.6718
359.98        128.0075
360.43        127.2753
360.88        126.4449
361.33        125.5483
361.78        124.6178
362.23        123.7128
362.68        122.8544
363.13        122.0186
363.58        121.2169
364.03        120.4701
364.48        119.7684
364.93        119.1001
365.38        118.4227
365.83        117.6691
366.28        116.8318
366.73        115.9421
367.18         115.032
367.63        114.1486
368.08        113.3084
368.53         112.498
368.98        111.7383
369.43        111.0584
369.88        110.4649
370.33        109.9636
370.78        109.4914
371.23        108.9483
371.68         108.303
372.13        107.5476
372.58        106.7826
373.03        106.1766
373.48        105.7417
373.93        105.4223
374.38        105.0208
374.83         104.224
375.28        103.0145
375.72        101.5227
376.17        100.0984
376.62        99.06615
377.07        98.49288
377.52        98.24927
377.97          98.203
378.42        98.14391
378.87         97.9743
379.32        97.73171
379.77        97.39742
380.22        96.94203
380.67        96.35895
381.11        95.64081
381.56        94.81184
382.01        93.95473
382.46        93.13094
382.91        92.36915
383.36        91.68945
383.81        91.09653
384.26        90.58617
384.71         90.1524
385.15        89.79169
385.60        89.55476
386.05        89.40253
386.50        89.30511
386.95        89.17096
387.40        88.87704
387.85        88.41152
388.29        87.76367
388.74        87.15358
389.19        86.65794
389.64        86.30257
390.09        86.03999
390.54        85.80658
390.98        85.54717
391.43        85.28603
391.88        84.86901
392.33        84.38311
392.78        84.24371
393.23        84.24936
393.67        83.66778
394.12        82.79697
394.57        81.86673
395.02        82.01794
395.47        81.85497
395.91        81.68584
396.36        81.62626
396.81        81.67426
397.26        81.76723
397.71        81.77919
398.15         81.5304
398.60        81.10483
399.05        80.48791
399.50        79.83666
399.95        79.54969
400.39        79.34305
400.84        79.51184
401.29        79.77805
401.74        79.78027
402.18        79.42736
402.63        78.78506
403.08        78.11109
403.53        77.79896
403.97        77.90503
404.42        78.26478
404.87        78.64449
405.32        78.68366
405.76        78.29813
406.21        77.69837
406.66        77.03498
407.11        76.52255
407.55        76.32571
408.00        76.32517
408.45        76.48607
408.90        77.09735
409.34        77.81272
409.79        77.46872
410.24        76.37387
410.68        76.06117
411.13        76.63382
411.58        77.24837
412.03        77.65758
412.47        77.82898
412.92         77.6489
413.37        77.18523
413.81        76.60162
414.26        76.22112
414.71        76.08088
415.15        76.10928
415.60        76.21824
416.05        76.30347
416.49        76.32939
416.94        76.34768
417.39        76.33269
417.83        76.21426
418.28        76.00377
418.73        75.71173
419.17        75.46234
419.62        75.47616
420.07        75.75751
420.51        76.20515
420.96        76.67308
421.41        76.81925
421.85        76.55391
422.30        76.26218
422.74        75.96479
423.19        75.37689
423.64        74.70623
424.08        74.96148
424.53        75.74528
424.98        76.31817
425.42        76.43683
425.87        76.61581
426.31        76.84328
426.76        76.54136
427.21        76.00615
427.65        75.85619
428.10        76.07163
428.54        75.79942
428.99        75.20773
429.44        75.07459
429.88        75.37577
430.33        75.66634
430.77        75.79432
431.22        76.05491
431.66        76.35943
432.11        76.18085
432.56        75.59858
433.00        75.51819
433.45        76.16074
433.89        76.54871
434.34        76.00073
434.78        78.76525
435.23        75.84888
435.67        75.43764
436.12        75.21449
436.57        75.42037
437.01        75.83784
437.46        76.48763
437.90        76.46877
438.35        76.46564
438.79        77.12733
439.24        77.27267
439.68        77.18874
440.13        77.25909
440.57        77.55211
441.02        77.62779
441.46         77.3903
441.91        77.79626
442.35        78.02637
442.80        77.36391
443.24        77.93465
443.69        77.73619
444.13        77.49446
444.58        77.32571
445.02        77.20427
445.47        77.12473
445.91        77.09333
446.36         77.0269
446.80        76.86221
447.24        77.43554
447.69        77.26777
448.13        77.44097
448.58        77.52853
449.02        77.56184
449.47        77.57592
449.91        77.61776
450.36         77.7204
450.80        77.82241
451.25         77.9248
451.69         77.9913
452.13        78.02665
452.58        78.08472
453.02        78.12219
453.47         78.0997
453.91        77.99859
454.36        77.88128
454.80        77.51602
455.24        77.73569
455.69        78.26288
456.13        78.38237
456.58        78.11346
457.02        77.47498
457.46        77.23325
457.91        77.13448
458.35        77.04993
458.79        76.98973
459.24        76.93334
459.68        76.95482
460.13        76.98495
460.57        77.25896
461.01        77.17586
461.46        76.76288
461.90        76.52724
462.34        76.70531
462.79         77.2668
463.23        77.20473
463.68        76.54712
464.12        76.18893
464.56        76.18876
465.01        75.93707
465.45        75.48162
465.89        75.56863
466.34        76.07992
466.78        76.12519
467.22        75.95868
467.67        75.79581
468.11        75.87602
468.55         75.7298
468.99         75.4272
469.44        75.16506
469.88        74.96621
470.32        74.79784
470.77        74.65154
471.21         74.5426
471.65         74.4583
472.10        74.42201
472.54        74.42732
472.98        74.48698
473.42        74.58031
473.87        74.73486
474.31        74.88191
474.75        74.82581
475.20        74.62484
475.64        74.62284
476.08        74.79039
476.52        74.62725
476.97        74.23928
477.41        74.14687
477.85        73.60321
478.29        73.64985
478.74        74.51534
479.18        74.73901
479.62        73.79726
480.06        73.59638
480.50        73.91401
480.95        73.90018
481.39        74.77476
481.83         73.4795
482.27        74.74297
482.72        74.47179
483.16         74.3898
483.60          74.243
484.04        74.52699
484.48        74.92104
484.93         75.2924
485.37        74.80708
485.81        73.87975
486.25        73.02858
486.69        74.80705
487.14        74.11247
487.58        73.11733
488.02        73.28542
488.46        74.76039
488.90        73.99794
489.34        73.47621
489.79        73.88079
490.23        73.59745
490.67        73.68098
491.11        73.41302
491.55        73.08537
491.99        72.77062
492.43        72.67726
492.88        72.83984
493.32        73.14836
493.76        73.49989
494.20        73.77193
494.64        73.90465
495.08        73.99866
495.52        74.03648
495.96        73.81133
496.41        73.43481
496.85        73.45528
497.29        73.47398
497.73        73.68051
498.17        73.14541
498.61         73.0408
499.05        73.12595
499.49        73.10737
499.93        72.96637
500.37         72.9045
500.82        72.93821
501.26        72.90805
501.70        72.79018
502.14        72.98518
502.58        72.84882
503.02        72.95026
503.46        73.09306
503.90        73.27436
504.34        73.43744
504.78        73.51395
505.22         73.4902
505.66        73.35226
506.10        73.13768
506.54        73.02861
506.98        73.07197
507.42        72.97741
507.86        72.64857
508.30        72.98933
508.74        72.70052
509.18        72.10555
509.62        72.18793
510.06        72.11552
510.50        72.28201
510.94        72.61342
511.38        72.99058
511.82        73.15481
512.26         73.0396
512.70        72.73402
513.14        72.37797
513.58        72.19023
514.02        72.22704
514.46         72.4202
514.90        72.66918
515.34        72.81135
515.78        72.79641
516.22        72.67547
516.66        72.51767
517.10        72.42525
517.54        72.42599
517.98        72.48562
518.42        72.54593
518.86        72.52017
519.30        72.39201
519.74        72.19613
520.18        72.00803
520.62         71.9351
521.06        72.00551
521.50        72.19742
521.93        72.43364
522.37        72.56439
522.81        72.56054
523.25        72.44646
523.69        72.33072
524.13        72.38464
524.57        72.62965
525.01        73.00436
525.45        73.34426
525.89        73.38495
526.32        73.07039
526.76        72.52657
527.20        71.94157
527.64        71.60492
528.08        71.58691
528.52         71.7957
528.96         72.1097
529.40        72.33392
529.83        72.39838
530.27        72.36954
530.71        72.28711
531.15        72.21944
531.59        72.18866
532.03         72.1619
532.46        72.11526
532.90        72.05059
533.34        71.96333
533.78         71.8752
534.22        71.80027
534.66        71.75134
535.09         71.7262
535.53        71.73141
535.97         71.7598
536.41        71.81675
536.85        71.89335
537.28        71.97684
537.72        72.03989
538.16        72.03481
538.60        71.95296
539.04        71.81261
539.47        71.63037
539.91        71.49152
540.35        71.39751
540.79        71.34681
541.22         71.3226
541.66        71.30736
542.10        71.29241
542.54        71.29316
542.97        71.31525
543.41        71.38589
543.85        71.49224
544.29        71.63178
544.72        71.74926
545.16        71.78414
545.60        71.72036
546.04        71.59636
546.47        71.47341
546.91        71.44798
547.35        71.54858
547.79        71.75992
548.22        71.96886
548.66         72.1674
549.10        72.34135
549.53        72.27728
549.97        71.88242
550.41        72.45817
550.84        71.85794
551.28         71.6385
551.72        71.22211
552.15        71.55771
552.59        71.65641
553.03        71.69005
553.46        71.44212
553.90        71.41071
554.34        71.58403
554.77        71.74463
555.21         71.8462
555.65        71.76707
556.08        71.55267
556.52        71.54995
556.96        71.74725
557.39        71.82394
557.83        71.80917
558.27        71.95638
558.70        71.78866
559.14        71.82745
559.57        71.87573
560.01        71.97401
560.45        71.96148
560.88        71.78812
561.32        71.79145
561.75        71.82153
562.19        71.93463
562.63        71.74609
563.06        71.33613
563.50        71.32141
563.93        71.45682
564.37        71.60368
564.80        71.62691
565.24        71.60349
565.68        71.53647
566.11        71.53979
566.55        71.62325
566.98        71.55941
567.42        71.46412
567.85        71.50956
568.29        71.65917
568.72        71.91528
569.16        72.40859
569.60        71.80166
570.03        72.21294
570.47         72.5563
570.90        72.43261
571.34        71.74301
571.77        72.28661
572.21        72.42681
572.64        72.65791
573.08        72.41612
573.51        71.81736
573.95        72.10798
574.38        72.67498
574.82        72.58091
575.25        72.61761
575.69        72.40428
576.12        72.04227
576.56        71.99964
576.99        71.89866
577.42        72.20704
577.86        72.13773
578.29        72.14722
578.73        72.70315
579.16         72.0508
579.60        72.16995
580.03        71.98568
580.47        72.57605
580.90        72.38122
581.33        71.83698
581.77        71.80914
582.20        72.33596
582.64        72.66074
583.07        71.96671
583.51         71.4808
583.94        71.31963
584.37        71.18756
584.81        71.28793
585.24        71.82725
585.68        72.29105
586.11        72.88116
586.54        71.95262
586.98        71.32227
587.41        72.60024
587.85        72.66924
588.28        72.29585
588.71        72.72386
589.15        71.83987
589.58        72.14945
590.01        71.29398
590.45        71.43056
590.88        72.00488
591.31        72.38311
591.75        72.27662
592.18        72.47685
592.61        72.65652
593.05        71.47666
593.48        72.12332
593.91        73.00429
594.35        71.68274
594.78        71.51234
595.21        71.47163
595.65         71.8216
596.08        71.34727
596.51        71.47068
596.94        71.88776
597.38        72.06155
597.81        71.76504
598.24          72.206
598.68        71.77998
599.11        71.08991
599.54        71.84645
599.97        72.87996
600.41        71.31072
600.84          71.208
601.27        71.45238
601.70        71.73564
602.14        71.80701
602.57        71.44898
603.00         70.8504
603.43        70.99847
603.87        71.06934
604.30        71.97859
604.73        71.52538
605.16        71.30135
605.60        71.36214
606.03        71.49479
606.46        71.74895
606.89        71.90323
607.32        71.76742
607.76         71.7318
608.19        71.79472
608.62        71.62956
609.05        71.30574
609.48        71.57078
609.92        71.52926
610.35        71.61988
610.78        71.94959
611.21        71.32146
611.64        71.45654
612.07        71.81324
612.50        71.80623
612.94        71.70078
613.37        72.16621
613.80        71.71227
614.23        72.05601
614.66        71.97063
615.09        71.91086
615.52        71.87183
615.96        71.82685
616.39        71.72092
616.82        71.53976
617.25        71.41939
617.68        70.96577
618.11        71.22674
618.54        71.85603
618.97        71.83913
619.40        71.27973
619.84        71.04689
620.27        71.19418
620.70        71.76555
621.13        71.92838
621.56        71.39854
621.99        71.45797
622.42        71.09856
622.85        71.56361
623.28        71.52278
623.71        72.02003
624.14        70.84238
624.57        71.61773
625.00        71.49479
625.43        71.49158
625.86        71.30082
626.29        71.18946
626.72        71.41992
627.15        71.19016
627.58        71.30721
628.01         71.4491
628.44        71.30534
628.87         71.0028
629.30        70.97025
629.73        71.62664
630.16        71.84103
630.59        71.69443
631.02        71.75757
631.45        71.73243
631.88        71.69615
632.31        71.54858
632.74        71.47467
633.17        71.26945
633.60        71.13113
634.03        71.01225
634.46        70.90168
634.89        70.82133
635.32        70.81922
635.75        70.89536
636.18        71.02075
636.61        71.14878
637.04         71.2188
637.47        71.22966
637.89        71.15501
638.32        70.98574
638.75        70.92832
639.18         71.0363
639.61        70.55953
640.04        70.79332
640.47        70.74589
640.90        70.80048
641.33         70.9341
641.76        71.08983
642.18        71.14821
642.61        71.04873
643.04        70.83725
643.47        70.62988
643.90        70.59239
644.33        70.74925
644.76        71.13775
645.18        71.58064
645.61        71.58913
646.04        71.05065
646.47        70.87389
646.90         71.0247
647.33        70.97555
647.75        70.72256
648.18        70.61802
648.61        70.67953
649.04        70.72769
649.47        70.75732
649.89        70.93934
650.32        71.17267
650.75        71.15479
651.18        70.96962
651.61        70.98434
652.03        71.26023
652.46        71.62805
652.89        71.80198
653.32        71.72469
653.74        71.61595
654.17        70.55709
654.60        69.94606
655.03        72.07253
655.46        70.01347
655.88        71.73856
656.31        74.33859
656.74         75.4392
657.16         74.0507
657.59        71.84773
658.02         70.8653
658.45        72.16505
658.87        71.84112
659.30         71.2589
659.73        71.48682
660.15        72.17506
660.58        71.85162
661.01        71.74982
661.44        71.37689
661.86        70.96642
662.29         70.6403
662.72        70.84461
663.14        71.44089
663.57        71.38021
664.00        70.77698
664.42        70.64598
664.85        71.03159
665.27        71.29356
665.70        71.35552
666.13         71.4414
666.55        71.54187
666.98        71.58067
667.41        71.54603
667.83          71.424
668.26        71.21715
668.69        70.95284
669.11        70.71565
669.54        70.62381
669.96        70.69733
670.39        70.94093
670.82        71.24696
671.24        71.33969
671.67        71.21153
672.09        71.14777
672.52        71.19287
672.94        71.27348
673.37        70.85554
673.80        71.30936
674.22         71.0454
674.65        71.19264
675.07        71.32994
675.50        71.49135
675.92        71.64788
676.35        71.73888
676.77        71.76991
677.20        71.73429
677.62        71.66819
678.05        71.63517
678.47        71.64688
678.90        71.68918
679.32         71.7335
679.75         71.7461
680.17        71.70863
680.60        71.64438
681.02         71.5657
681.45        71.48053
681.87        71.39744
682.30        71.34674
682.72        71.34556
683.15        71.24287
683.57        71.12918
684.00        71.31932
684.42        71.71404
684.85        71.92439
685.27        71.91617
685.70         71.7533
686.12        71.58462
686.54        71.93879
686.97        72.67018
687.39        73.01751
687.82        72.86875
688.24        72.77402
688.66        72.72764
689.09        72.37587
689.51        71.83508
689.94        71.48865
690.36         71.3931
690.78        71.44588
691.21        71.59686
691.63        71.76054
692.06        71.89919
692.48        72.06387
692.90        72.21178
693.33        72.25876
693.75        72.19016
694.17        71.99828
694.60        71.79929
695.02        71.73695
695.44        71.82508
695.87        72.24285
696.29        72.78543
696.71         72.5416
697.14        71.71695
697.56        71.61928
697.98        72.21231
698.41        72.40523
698.83        72.16444
699.25        72.14135
699.68        72.31805
700.10        72.39842
700.52        72.34769
700.94        72.26765
701.37         72.1544
701.79        72.01735
702.21        71.86464
702.64        71.70206
703.06        71.57691
703.48         71.5808
703.90        71.72894
704.33        72.00636
704.75          72.311
705.17        72.54259
705.59         72.6364
706.01        72.62005
706.44        72.55217
706.86        72.52373
707.28         72.5544
707.70        72.65382
708.12        72.78271
708.55        72.77473
708.97         72.6599
709.39        72.67197
709.81        72.80922
710.23        72.88523
710.66        72.88454
711.08          72.937
711.50        73.02724
711.92        73.10853
712.34        73.17799
712.76        73.24739
713.19        73.29147
713.61         73.3175
714.03        73.30698
714.45        73.26803
714.87        73.23083
715.29        73.24079
715.71        73.30618
716.13        73.41275
716.56        73.51424
716.98        73.62437
717.40        73.69827
717.82         73.7375
718.24        73.74902
718.66        73.74693
719.08        73.73502
719.50        73.70876
719.92        73.65923
720.34        73.57203
720.76        73.44958
721.19        73.30117
721.61        73.17509
722.03        73.07451
722.45        73.00045
722.87         73.0254
723.29        73.15812
723.71        72.97174
724.13        73.14839
724.55        73.14289
724.97        73.15884
725.39        73.13403
725.81        73.07164
726.23        73.04942
726.65        73.10923
727.07        72.97367
727.49        73.23239
727.91        73.37704
728.33        73.56364
728.75        73.74358
729.17        73.89803
729.59        74.03902
730.01        74.09556
730.43        73.97305
730.85        73.67876
731.27        73.25716
731.69        72.87569
732.10         72.7953
732.52        73.06512
732.94        73.61226
733.36        74.25449
733.78        74.67464
734.20        74.76472
734.62        74.56574
735.04        74.24356
735.46        74.14172
735.88        74.29436
736.30        74.44431
736.72        74.48615
737.13        74.47952
737.55         74.3483
737.97        73.94465
738.39        73.45528
738.81          73.347
739.23        73.65139
739.65        74.09321
740.06        74.46017
740.48        74.63847
740.90         74.5574
741.32        74.22822
741.74        73.79516
742.16        73.56949
742.57         73.6441
742.99        73.82431
743.41        74.04231
743.83        74.36953
744.25        74.67057
744.67         74.5524
745.08        74.12212
745.50        73.93156
745.92        74.05196
746.34        74.17416
746.75        74.25461
747.17        74.35902
747.59        74.46458
748.01        74.55627
748.42        74.62972
748.84        74.64433
749.26        74.60806
749.68        74.53409
750.09        74.42477
750.51        74.32166
750.93        74.22699
751.35        74.14173
751.76        74.09237
752.18        74.10944
752.60        74.19321
753.01        74.33883
753.43        74.48756
753.85        74.57397
754.27        74.59161
754.68        74.58949
755.10        74.57368
755.52        74.55731
755.93        74.53138
756.35        74.46198
756.77        74.45723
757.18        74.61095
757.60        74.92329
758.02        75.60888
758.43        76.33604
758.85        76.07199
759.26        74.93862
759.68         74.4294
760.10        74.65667
760.51        74.80996
760.93         74.8449
761.34        75.07143
761.76        75.61213
762.18        75.58882
762.59           75.13
763.01        74.65752
763.42        74.36681
763.84        74.20089
764.26        74.22584
764.67        74.46681
765.09         74.8419
765.50        75.21789
765.92        75.48684
766.33        75.43492
766.75        75.05527
767.16        74.87004
767.58        74.91054
768.00        74.83253
768.41        74.67596
768.83        74.88706
769.24        75.32125
769.66        75.31848
770.07        74.92914
770.49        74.80405
770.90         74.9689
771.32        75.08054
771.73        75.11919
772.15        75.09157
772.56        75.00157
772.97        75.12549
773.39        74.96844
773.80        75.09877
774.22        75.33057
774.63        75.68463
775.05        76.01537
775.46        76.19612
775.88        76.15745
776.29        75.96951
776.70        75.70558
777.12         75.5146
777.53        75.44849
777.95        75.44922
778.36        75.49969
778.77          75.554
779.19         75.6031
779.60        75.71233
780.02        75.81726
780.43        75.94631
780.84        76.09065
781.26        75.96619
781.67        75.74466
782.09        76.29025
782.50        77.34878
782.91        77.49426
783.33        76.72771
783.74        76.29411
784.15        76.25531
784.57        75.89281
784.98        75.32524
785.39        75.10574
785.81        75.29456
786.22        75.73215
786.63        76.30479
787.04        76.82333
787.46        77.21306
787.87        77.49952
788.28         77.6987
788.70        77.82726
789.11         77.8893
789.52        77.89111
789.93        77.82409
790.35        77.67868
790.76        77.48087
791.17        77.25082
791.58        77.07321
792.00        77.01291
792.41         77.0983
792.82        77.40672
793.23        77.82296
793.65        77.86415
794.06        77.62689
794.47        77.79224
794.88        78.25637
795.29        78.34051
795.71        77.99471
796.12        77.63142
796.53        77.39133
796.94        77.36138
797.35        77.59515
797.76         78.0646
798.18        78.59523
798.59         78.9482
799.00        79.02709
799.41        78.89851
799.82        78.64612
800.23        78.42459
800.64        78.29429
801.06        78.18388
801.47         78.1311
801.88        78.11812
802.29        78.13037
802.70        78.17015
803.11        78.22383
803.52        78.25558
803.93        78.27168
804.34        78.29359
804.75        78.29288
805.17        78.31443
805.58        78.41078
805.99         78.2737
806.40        78.04204
806.81         78.6089
807.22        79.68362
807.63        79.67896
808.04         78.7201
808.45        78.42719
808.86         78.9197
809.27        79.26405
809.68        79.32315
810.09        79.33492
810.50        79.27009
810.91        79.06337
811.32        78.82499
811.73        78.73011
812.14        78.81481
812.55        79.04717
812.96        79.30827
813.37        79.36711
813.78        79.17484
814.19        78.82993
814.60         78.4619
815.01        78.24697
815.42        78.22584
815.83        78.33256
816.24        78.52945
816.65        78.73968
817.05        78.91438
817.46        79.04043
817.87         79.0983
818.28        78.99768
818.69          78.743
819.10        78.36028
819.51        77.97901
819.92        77.84533
820.33        78.02464
820.74         78.4316
821.14        78.93989
821.55        79.35983
821.96        79.61632
822.37         79.7604
822.78        79.77736
823.19        79.65484
823.60        79.40995
824.00        79.03745
824.41        78.62986
824.82        78.36815
825.23         78.2928
825.64         78.3946
826.04        78.57552
826.45        78.55794
826.86        78.31882
827.27        77.93795
827.68         77.6001
828.08        77.62296
828.49        78.02213
828.90        78.72437
829.31        79.54839
829.72        80.18109
830.12        80.54449
830.53        80.63332
830.94        80.59329
831.35        80.63292
831.75        80.83601
832.16        81.05062
832.57         81.2235
832.97        81.22523
833.38        81.03487
833.79         80.7761
834.20         80.4759
834.60        80.13521
835.01        79.81561
835.42        79.47719
835.82        79.30868
836.23        79.55141
836.64        80.24761
837.04        81.34982
837.45        82.40279
837.86         82.8052
838.26        82.40496
838.67        81.39288
839.08        80.18633
839.48         79.4191
839.89        79.30301
840.29        79.64323
840.70        80.21291
841.11        80.65639
841.51        80.87299
841.92        80.93954
842.33        80.94604
842.73        81.01395
843.14        81.12904
843.54        81.26561
843.95        81.37945
844.35        81.49039
844.76        81.56219
845.17        81.57531
845.57        81.55882
845.98        81.51486
846.38        81.46442
846.79        81.41579
847.19        81.26585
847.60        80.78869
848.00        80.01444
848.41        79.05742
848.81        78.24366
849.22        78.04835
849.62        78.59727
850.03         79.7073
850.43        81.11238
850.84        82.09464
851.24         82.4748
851.65        82.30209
852.05        81.84355
852.46        81.50765
852.86        81.40474
853.27        81.47875
853.67        81.47893
854.07        81.28365
854.48         80.8115
854.88        80.16137
855.29        79.44445
855.69        79.12878
856.10        79.24413
856.50        79.77052
856.90        80.34962
857.31        80.48498
857.71        80.11836
858.12        79.35889
858.52        78.53619
858.92        78.14317
859.33        78.29897
859.73        78.89169
860.13         79.6577
860.54        80.18189
860.94        80.37766
861.34        80.27586
861.75        79.95539
862.15         79.6216
862.55        79.31543
862.96        79.01489
863.36        78.61415
863.76        77.97532
864.17        77.14053
864.57        76.22883
864.97         75.4675
865.38        75.13261
865.78         75.3086
866.18         75.8785
866.58        76.71357
866.99        77.50423
867.39        78.14555
867.79        78.65942
868.19        78.93307
868.60        78.82417
869.00        78.35201
869.40        77.51806
869.80        76.70665
870.21        76.58102
870.61        77.31241
871.01        78.68009
871.41        80.06668
871.81        80.47769
872.22        79.69473
872.62        78.02393
873.02        76.10503
873.42        75.00494
873.82        75.03623
874.22        75.91572
874.63        77.09786
875.03        77.73743
875.43        77.62025
875.83         76.9827
876.23        76.32497
876.63        76.46296
877.03        77.55461
877.44        79.24895
877.84        80.94251
878.24        81.57685
878.64        80.93826
879.04        79.44624
879.44        77.72912
879.84        76.69019
880.24        76.54167
880.64        76.97075
881.04        77.71056
881.44        78.31918
881.84        78.62426
882.24        78.80722
882.65        78.77667
883.05         78.5097
883.45        78.01533
883.85        77.33786
884.25        76.78423
884.65        76.85168
885.05         77.5978
885.45        78.81194
885.85        80.21117
886.25        81.28893
886.65        81.82099
887.05        81.94953
887.45        81.56364
887.85        80.52859
888.25        79.01048
888.65        77.19254
889.04        75.55917
889.44        74.81154
889.84        74.98682
890.24        75.93656
890.64        77.32408
891.04         78.3822
891.44        78.78396
891.84        78.72907
892.24        78.44553
892.64         78.2847
893.04        78.34593
893.44        78.47955
893.83        78.70507
894.23        78.99741
894.63        79.34966
895.03        79.78719
895.43        80.18087
895.83        80.31319
896.23        80.14609
896.63        79.71056
897.02        79.17952
897.42         78.9093
897.82        78.96248
898.22        79.28029
898.62         79.6127
899.01        79.54646
899.41        78.99627
899.81         78.1209
900.21         77.2712
900.61        76.97938
901.00         77.3428
901.40         78.1784
901.80        79.11343
902.20          79.539
902.59        79.29012
902.99        78.56165
903.39        77.66446
903.79        77.06028
904.18        76.87888
904.58        77.01244
904.98        77.27563
905.38        77.40259
905.77        77.29543
906.17        77.03308
906.57        76.77277
906.96        76.78263
907.36        77.07256
907.76        77.57816
908.15        78.02559
908.55        77.84489
908.95        77.02072
909.34        75.75551
909.74        74.59496
910.14        74.23015
910.53        74.84235
910.93         76.1605
911.33        77.84936
911.72        79.37843
912.12        80.44965
912.52        81.20136
912.91        81.68647
913.31        81.98772
913.70        82.15223
914.10        82.07302
914.49        81.75462
914.89        81.22663
915.29        80.55186
915.68        79.81091
916.08        79.13664
916.47        78.56575
916.87        78.18042
917.26        77.93867
917.66        77.89927
918.05        78.17393
918.45        78.68888
918.84        79.44317
919.24        80.12824
919.64        80.38162
920.03        80.12074
920.42        79.43176
920.82        78.62121
921.21        78.06438
921.61        77.89179
922.00        78.03158
922.40        78.35091
922.79        78.70847
923.19        78.99427
923.58        79.25707
923.98        79.52385
924.37        79.84232
924.77        80.20174
925.16        80.57162
925.55        80.82877
925.95        80.79635
926.34         80.4798
926.74        79.93449
927.13        79.36478
927.52        79.05798
927.92        79.09329
928.31        79.37364
928.70        79.74685
929.10        79.94134
929.49        79.87553
929.89        79.58896
930.28        79.19407
930.67        78.80333
931.07        78.48186
931.46        78.22972
931.85        78.01192
932.24         77.7793
932.64        77.54785
933.03         77.3738
933.42        77.35326
933.82        77.61501
934.21        78.18053
934.60        78.89975
934.99        79.68545
935.39        80.38194
935.78        80.96643
936.17        81.45786
936.56        81.57188
936.96         80.9188
937.35        79.53752
937.74        77.63035
938.13        75.88828
938.53        75.18465
938.92        75.60439
939.31        76.99506
939.70        78.68927
940.09         79.3845
940.49        78.70081
940.88        77.05161
941.27        75.27355
941.66        74.60192
942.05        75.30145
942.44        77.04602
942.84        79.08327
943.23        80.12268
943.62        79.70515
944.01        78.24223
944.40        76.61234
944.79        76.10201
945.18        76.98461
945.57        78.87376
945.97        80.89365
946.36        81.78822
946.75        81.09003
947.14        79.25481
947.53        77.18346
947.92        76.21033
948.31        76.66877
948.70        78.18999
949.09        80.03197
949.48        80.86483
949.87        80.29813
950.26        78.78816
950.65        77.13482
951.04         76.4285
951.43        76.91914
951.82        78.31172
952.21         79.9747
952.60        80.76844
952.99        80.34485
953.38         79.0544
953.77        77.70412
954.16        77.37521
954.55        78.27957
954.94        80.20469
955.33        82.31274
955.72        82.83788
956.11        81.26298
956.50        78.25966
956.89        75.24725
957.28        74.04231
957.66        75.01417
958.05        77.58928
958.44        80.76928
958.83        82.48677
959.22        82.02922
959.61        80.13091
960.00        77.84283
960.39        76.50141
960.78        76.37481
961.16        77.04691
961.55        78.03818
961.94        78.55243
962.33        78.27911
962.72        77.62319
963.11        76.82449
963.49        76.13479
963.88         75.6632
964.27        75.27597
964.66        75.12112
965.04        75.55329
965.43        76.49828
965.82        77.86779
966.21        79.27032
966.60        79.96805
966.98        79.77674
967.37        78.99601
967.76        77.90816
968.15        76.88831
968.53         76.0544
968.92        75.22446
969.31        74.68697
969.69        75.00597
970.08        76.21264
970.47        78.31718
970.86        80.44799
971.24        81.07312
971.63        79.84295
972.02        77.25144
972.40        74.56947
972.79        73.80624
973.17        75.30657
973.56        78.34144
973.95        81.80838
974.33        83.62814
974.72        83.06805
975.11        80.87159
975.49        78.05833
975.88        76.48013
976.26        76.63308
976.65        77.90039
977.04        79.75139
977.42        81.21983
977.81        81.74356
978.19        81.74354
978.58        81.40138
978.96        80.87208
979.35        80.34491
979.74        79.76774
980.12        79.34361
980.51         79.4122
980.89        80.10662
981.28        81.15253
981.66        82.59989
982.05        84.18951
982.43        85.86045
982.82        87.56181
983.20        88.69169
983.59        88.12418
983.97        85.80721
984.35        82.18916
984.74        78.65405
985.12        77.09518
985.51        77.79483
985.89        80.30644
986.28        83.34226
986.66        85.07594
987.04         84.7669
987.43        82.99059
987.81        80.52938
988.20        79.04104
988.58        78.97569
988.96         79.8466
989.35        80.78487
989.73        80.66404
990.12        79.15025
990.50        76.82672
990.88        74.33782
991.27        72.66349
991.65        72.08681
992.03        72.35988
992.42        73.29971
992.80        74.94822
993.18        77.09449
993.56        79.74339
993.95        82.41161
994.33        84.31481
994.71        85.02618
995.10        84.74271
995.48         83.8577
995.86         83.1237
996.24         82.7987
996.63         82.6079
997.01        82.70033
997.39        83.08505
997.77        83.68268
998.15        84.55029
998.54        85.30791
998.92        85.33601
999.30        84.51484
999.68        82.99579
1000.06        81.30821
1000.45        80.44473
1000.83        80.81226
1001.21        82.12531
1001.59        83.91754
1001.97        85.39369
1002.35        86.24249
1002.73        86.63344
1003.12        86.68922
1003.50        86.52366
1003.88        86.27809
1004.26        85.96537
1004.64        85.55828
1005.02        85.07811
1005.40        84.57295
1005.78        84.01266
1006.16        83.73387
1006.54         84.1927
1006.92        85.42154
1007.30        87.40368
1007.69        89.31898
1008.07        89.62959
1008.45        87.77602
1008.83        84.20071
1009.21        80.36031
1009.59        78.72837
1009.97        79.94012
1010.35        83.19987
1010.73        87.28493
1011.11        90.15074
1011.49        91.08451
1011.86        90.76152
1012.24        89.39861
1012.62        87.49664
1013.00        85.33167
1013.38        82.69331
1013.76        79.97428
1014.14        78.19869
1014.52        77.75375
1014.90        78.47632
1015.28        79.90234
1015.66        81.10059
1016.04        81.75291
1016.41        82.24046
1016.79        82.12535
1017.17        80.88727
1017.55        78.93127
1017.93        76.72577
1018.31        75.31345
1018.69        75.79888
1019.06        78.42292
1019.44        83.25433
1019.82        90.03678
1020.20        95.50439
1020.58        96.78004
1020.95        94.31474
1021.33        90.45956
1021.71        87.75185
1022.09         86.4531
1022.46        85.63558
1022.84        85.00831
1023.22        83.55241
1023.60        81.40771
1023.97        79.78922
1024.35        78.83902
1024.73        78.17097
