SpectraSmart Spectrum 2.9.0.0
--------- Device Information -----------
Spectrum Name :  反射率_0
Saving Time :  2024/04/30 00:05:41
Spectro-Module Model Name : SE2030-DUVN
Spectro-Module Serial Number : OS361AC55029948
Wavelength Start : 200
Wavelength End : 1025
Wavelength Unit : Wavelength(nm)
Spectrum Unit : Reflectance(%)
-----------Spectrum Setting ------------
Integration Time : 20ms
Average : 10
Boxcar : 0
Background removal :  enabled
linearity correction :  enabled
SC :  disabled
Intensity correction :  disabled
DWT denoise :  enabled
savitzky-golay :  disabled
FFT :  disabled
Running average :  disabled
Kalman :  disabled
High pass :  disabled
---------------BEGIN--------------------
Wavelength(nm)             Reflectance(%)
200.29               0
200.75        61.99839
201.21        53.52218
201.67        45.23517
202.13        37.87244
202.58        32.11201
203.04        28.15278
203.50        28.45053
203.96        37.61944
204.42        55.77128
204.88        79.57458
205.34        99.19328
205.80        101.8105
206.26        89.96658
206.72        73.01338
207.18         57.5274
207.64        46.76015
208.10        39.70048
208.55        34.14581
209.01        30.46745
209.47        30.89557
209.93        35.01238
210.39        41.29394
210.85        46.71141
211.31        48.79513
211.77        47.49007
212.23        42.58903
212.69        35.00793
213.14        31.45623
213.60           34.97
214.06        42.15039
214.52        48.52412
214.98        51.25078
215.44        50.95265
215.90        48.97293
216.36        46.89795
216.81        47.60197
217.27        52.85495
217.73        62.95559
218.19        77.45011
218.65        89.74603
219.11        93.64752
219.57        90.11833
220.02        84.41538
220.48        81.43004
220.94        80.70457
221.40        80.92905
221.86        79.43825
222.32        71.56832
222.77        59.59333
223.23        49.53973
223.69        42.83585
224.15        38.73593
224.61        36.13521
225.06         34.2497
225.52        33.99231
225.98        36.66642
226.44        41.24096
226.90        45.98224
227.36        49.26191
227.81        50.18084
228.27          49.083
228.73        46.24091
229.19        42.50031
229.65        40.00099
230.10        39.53233
230.56        40.34659
231.02        41.23252
231.48        41.03168
231.93        39.62211
232.39        37.44325
232.85        35.19733
233.31        34.23719
233.77         34.9842
234.22        37.16336
234.68        39.71664
235.14        40.70161
235.60         39.6917
236.05        37.40316
236.51         35.3363
236.97        35.48996
237.43        38.47757
237.88        44.36138
238.34        52.57167
238.80        60.25357
239.26        64.64857
239.71        65.81667
240.17        64.88734
240.63        64.48253
241.08        65.77604
241.54        68.47401
242.00        73.21837
242.46        79.23978
242.91        84.22946
243.37        86.89017
243.83        88.23785
244.28        90.65603
244.74         94.8997
245.20        100.3026
245.66         106.122
246.11        110.3392
246.57        111.5849
247.03        111.4076
247.48        108.9414
247.94        102.9147
248.40        96.17644
248.85        90.06507
249.31        87.39582
249.77        89.07442
250.22        95.27271
250.68        107.4894
251.14        125.4502
251.59        134.4969
252.05        125.1098
252.51        109.2251
252.96        96.68025
253.42        90.65491
253.88        88.54446
254.33        88.20088
254.79        88.76251
255.25        88.34848
255.70        86.52462
256.16        84.82611
256.62        83.39453
257.07        82.07838
257.53        81.18103
257.99        80.31671
258.44        79.02704
258.90        77.64748
259.35        75.94894
259.81        74.50507
260.27        73.35223
260.72        72.54401
261.18        72.18135
261.63        71.77308
262.09        71.21957
262.55        69.99807
263.00        68.12106
263.46        66.12968
263.91        64.08931
264.37        62.42777
264.83        61.05437
265.28        59.78693
265.74        58.74437
266.19        57.85703
266.65        57.18576
267.11        56.68161
267.56        56.19759
268.02        55.53454
268.47        54.60217
268.93        53.44268
269.38        52.15216
269.84        51.03811
270.30        50.17442
270.75        49.48752
271.21        48.82462
271.66        47.89423
272.12        46.65678
272.57        45.18382
273.03        43.69662
273.48        42.45257
273.94        41.58797
274.39         40.9585
274.85        40.46447
275.31        39.86801
275.76         39.0926
276.22        38.25046
276.67        37.38526
277.13        36.67012
277.58         36.0808
278.04        35.61223
278.49        35.13437
278.95         34.5784
279.40         33.8891
279.86        33.18291
280.31        32.50685
280.77        32.05713
281.22        31.81129
281.68         31.7313
282.13        31.71376
282.59        31.67977
283.04        31.57295
283.50        31.42961
283.95        31.22701
284.41        30.95335
284.86        30.61511
285.32        30.27313
285.77        29.94495
286.22        29.73961
286.68        29.68319
287.13        29.69507
287.59        29.79537
288.04        29.94474
288.50        30.13103
288.95        30.32368
289.41        30.45779
289.86        30.38629
290.32        30.14208
290.77        29.79442
291.22        29.49041
291.68        29.45321
292.13        29.73738
292.59        30.30692
293.04        31.13261
293.50        32.20689
293.95        33.49105
294.40        34.98842
294.86        36.57931
295.31        38.08601
295.77        39.45459
296.22        40.69913
296.68        41.93737
297.13        43.33936
297.58        44.95364
298.04        46.70449
298.49         48.4739
298.95        50.09329
299.40        51.51661
299.85        52.80968
300.31        54.10304
300.76         55.5089
301.21        57.09258
301.67        58.83804
302.12        60.61878
302.58        62.39503
303.03         64.1127
303.48        65.74541
303.94        67.39542
304.39         69.4916
304.84        71.50381
305.30        73.81108
305.75        76.05565
306.20        78.02193
306.66        79.67086
307.11        81.01409
307.57        82.24603
308.02        83.52702
308.47        84.94866
308.93        86.46075
309.38        87.93835
309.83        89.26869
310.29        90.42408
310.74        91.44106
311.19        92.35778
311.65        93.21144
312.10        94.00831
312.55        94.75493
313.00        95.52332
313.46        96.43282
313.91        97.47351
314.36        98.60467
314.82        99.71105
315.27        100.6323
315.72        101.2986
316.18        101.7645
316.63        102.0557
317.08        102.2337
317.53        102.3582
317.99        102.4541
318.44        102.5803
318.89        102.8448
319.35         103.265
319.80        103.8049
320.25        104.4511
320.70        105.1719
321.16         105.897
321.61        106.6661
322.06        107.3127
322.51        107.5952
322.97        107.4744
323.42        107.0377
323.87        106.5185
324.32        106.3158
324.78        106.5115
325.23        107.0694
325.68        107.7785
326.13        108.2694
326.59        108.4124
327.04        108.3515
327.49        108.2523
327.94        108.4377
328.39        108.9793
328.85        109.7114
329.30        110.5137
329.75        110.9781
330.20        110.9974
330.66        110.6947
331.11        110.2986
331.56         110.094
332.01        110.2023
332.46        110.5552
332.92        111.0566
333.37        111.6968
333.82        112.3731
334.27        113.0993
334.72        113.8572
335.17        114.6138
335.63        115.3118
336.08        115.9889
336.53        116.5432
336.98        116.8924
337.43         117.037
337.88        117.0204
338.34        116.9694
338.79        117.1083
339.24        117.4899
339.69         118.071
340.14        118.7516
340.59        119.3436
341.05        119.7942
341.50         120.167
341.95        120.4971
342.40        120.8656
342.85          121.29
343.30        121.6982
343.75        122.1142
344.20        122.5844
344.66        123.1185
345.11        123.7366
345.56        124.2692
346.01         124.436
346.46        124.2189
346.91        123.6981
347.36        123.2539
347.81        123.4651
348.26         124.405
348.72        125.8684
349.17        127.3849
349.62        128.0824
350.07        127.7612
350.52        126.7406
350.97        125.5169
351.42        124.8435
351.87        124.9196
352.32        125.4852
352.77        126.3306
353.22        127.1245
353.67        127.6977
354.13        128.1247
354.58        128.3197
355.03        128.1299
355.48        127.5518
355.93        126.6234
356.38        125.4994
356.83        124.4403
357.28         123.534
357.73        122.7454
358.18        122.0508
358.63        121.3891
359.08        120.7311
359.53        120.1004
359.98        119.4729
360.43        118.8009
360.88        118.0771
361.33        117.3116
361.78        116.5175
362.23         115.725
362.68        114.9501
363.13        114.1871
363.58        113.4669
364.03        112.8351
364.48        112.2892
364.93        111.8092
365.38        111.3341
365.83         110.769
366.28        110.0931
366.73        109.3341
367.18          108.54
367.63        107.7867
368.08        107.0927
368.53        106.4355
368.98        105.7962
369.43        105.1404
369.88        104.4703
370.33        103.8236
370.78        103.2037
371.23         102.616
371.68        102.0596
372.13        101.4981
372.58        100.9874
373.03        100.6203
373.48        100.3811
373.93        100.2315
374.38        99.97827
374.83        99.31671
375.28        98.22904
375.72        96.83018
376.17        95.47367
376.62        94.50492
377.07        93.99587
377.52        93.82132
377.97        93.83366
378.42        93.78985
378.87        93.59681
379.32        93.31761
379.77        92.96761
380.22        92.56807
380.67        92.11987
381.11        91.58591
381.56        90.98097
382.01        90.36751
382.46        89.78331
382.91        89.25954
383.36        88.75769
383.81        88.19835
384.26        87.57718
384.71        86.91816
385.15        86.33054
385.60        86.04053
386.05        86.04575
386.50        86.26593
386.95        86.49176
387.40        86.41031
387.85        85.96464
388.29        85.20338
388.74        84.44711
389.19        83.92211
389.64         83.6823
390.09         83.6284
390.54        83.60764
390.98        83.43601
391.43        83.11417
391.88        82.50628
392.33        81.79669
392.78        81.63142
393.23        81.76625
393.67        81.20517
394.12        80.28581
394.57         79.3852
395.02        79.77641
395.47        79.97769
395.91        80.20239
396.36        80.28891
396.81        80.18678
397.26        79.95903
397.71        79.64754
398.15        79.25328
398.60        78.88974
399.05        78.58517
399.50        78.33854
399.95        78.06181
400.39        77.55249
400.84        77.76099
401.29        78.38733
401.74        78.44428
402.18        77.83335
402.63        77.05103
403.08        76.38977
403.53        76.07209
403.97        76.15668
404.42        76.54211
404.87        77.00916
405.32        77.15193
405.76        76.85567
406.21        76.45004
406.66        76.00529
407.11        75.27261
407.55        74.52884
408.00        74.52177
408.45        75.15675
408.90        75.61097
409.34        75.68014
409.79        75.48123
410.24        75.18338
410.68        75.18018
411.13        75.50997
411.58        75.88956
412.03        76.16869
412.47        76.24458
412.92        76.04126
413.37        75.63458
413.81        75.12035
414.26        74.72427
414.71        74.46916
415.15        74.31628
415.60        74.24009
416.05        74.24537
416.49        74.32327
416.94        74.47929
417.39        74.64382
417.83        74.68054
418.28        74.57436
418.73        74.35622
419.17        74.13516
419.62        74.11977
420.07        74.32176
420.51        74.61047
420.96        74.89941
421.41        75.01427
421.85        74.84558
422.30        74.59387
422.74        74.25034
423.19        73.60751
423.64        72.88287
424.08         72.9584
424.53         73.7251
424.98        74.16068
425.42        74.14404
425.87        74.39819
426.31        74.82442
426.76        74.57938
427.21        73.68668
427.65        73.56762
428.10        74.03592
428.54        73.92366
428.99        73.32202
429.44        72.74354
429.88        72.39364
430.33        72.78664
430.77        73.68919
431.22        73.87565
431.66        74.67823
432.11        74.26745
432.56        73.26343
433.00        73.27951
433.45        74.61438
433.89        73.97092
434.34        74.44192
434.78        75.78769
435.23        73.64687
435.67        72.89473
436.12        72.38403
436.57        72.50153
437.01        72.93458
437.46        74.03168
437.90        73.60268
438.35        73.60246
438.79        74.21207
439.24        74.37104
439.68        74.32522
440.13        74.35789
440.57        74.51211
441.02         74.6041
441.46        74.58521
441.91        74.69685
442.35        74.72369
442.80        74.64404
443.24        74.42678
443.69          74.302
444.13        74.24743
444.58        74.12087
445.02        73.87614
445.47        73.68082
445.91        73.61765
446.36        73.63344
446.80        73.68386
447.24        74.36521
447.69         74.5025
448.13        74.67807
448.58        74.59083
449.02         74.2915
449.47        73.95129
449.91        73.81226
450.36         73.9511
450.80        74.25325
451.25        74.60964
451.69        74.81252
452.13        74.81583
452.58        74.72064
453.02        74.57213
453.47        74.44856
453.91        74.36363
454.36          74.395
454.80        74.22484
455.24        74.39265
455.69        74.68541
456.13        74.70045
456.58        74.47621
457.02        74.06438
457.46        73.90205
457.91        73.81082
458.35         73.8232
458.79        73.78367
459.24        73.71851
459.68        73.72026
460.13        73.78703
460.57        73.84792
461.01        73.83387
461.46        73.71497
461.90         73.5251
462.34         73.6135
462.79        73.87034
463.23        73.75667
463.68        73.27455
464.12        73.00681
464.56        73.02974
465.01        72.52878
465.45        72.31152
465.89        72.36832
466.34         72.8122
466.78        72.82518
467.22        72.63712
467.67        72.44048
468.11        72.35657
468.55        72.11817
468.99        71.77489
469.44         71.4874
469.88        71.28288
470.32        71.15886
470.77        71.09072
471.21        71.04528
471.65        70.99419
472.10        70.96558
472.54        70.96846
472.98        71.02235
473.42        71.11166
473.87        71.31187
474.31        71.51968
474.75        71.37862
475.20        70.96472
475.64        70.90582
476.08        71.24191
476.52        71.06998
476.97        70.28429
477.41        70.77512
477.85        70.69733
478.29        69.58367
478.74        70.78432
479.18        70.61648
479.62        70.30506
480.06        70.23215
480.50        70.45572
480.95        70.33743
481.39        70.95634
481.83         70.2873
482.27        70.79096
482.72        70.72681
483.16        70.69455
483.60        70.68728
484.04        70.95377
484.48        71.26788
484.93        71.36028
485.37        71.25968
485.81        70.46002
486.25        69.10648
486.69        70.33273
487.14        70.66632
487.58        69.67584
488.02        69.61662
488.46        70.28382
488.90        70.54751
489.34        69.95837
489.79        70.31358
490.23        69.87851
490.67        69.78871
491.11        69.57614
491.55        69.29321
491.99        69.02551
492.43        68.97302
492.88         69.1586
493.32        69.49981
493.76        69.89265
494.20        70.18594
494.64        70.31419
495.08         70.4049
495.52        70.42988
495.96         70.1399
496.41         69.6619
496.85        69.65993
497.29        69.47804
497.73        69.80601
498.17        69.59815
498.61        69.29034
499.05         68.8026
499.49        68.88358
499.93        69.41228
500.37        69.47173
500.82        69.07299
501.26        68.93282
501.70        69.06373
502.14        69.10419
502.58        68.96443
503.02        68.97207
503.46        69.10464
503.90        69.29957
504.34        69.49218
504.78        69.57919
505.22        69.53097
505.66        69.37616
506.10        69.17329
506.54        69.06342
506.98        69.08447
507.42        69.16683
507.86        69.00721
508.30        69.34483
508.74        68.83834
509.18        68.56222
509.62        68.26711
510.06        68.18407
510.50         68.3436
510.94        68.68952
511.38        69.08671
511.82         69.2776
512.26        69.20016
512.70        68.93173
513.14        68.59989
513.58        68.41221
514.02        68.42586
514.46        68.55786
514.90        68.71996
515.34        68.88545
515.78        68.83289
516.22        68.74834
516.66        68.63889
517.10        68.59731
517.54        68.63804
517.98        68.72801
518.42        68.80193
518.86        68.74143
519.30        68.52811
519.74        68.25585
520.18        68.00346
520.62        67.77665
521.06        67.66249
521.50        67.87868
521.93        68.31581
522.37        68.55011
522.81        68.52748
523.25        68.42562
523.69        68.35012
524.13        68.40311
524.57        68.60825
525.01        68.91936
525.45        69.20282
525.89        69.24701
526.32        69.00536
526.76        68.58361
527.20        68.12574
527.64        67.85499
528.08        67.82589
528.52        67.96342
528.96        68.18487
529.40        68.35807
529.83        68.42955
530.27         68.4492
530.71        68.41969
531.15        68.35011
531.59        68.25357
532.03        68.12168
532.46        67.97782
532.90        67.89456
533.34         67.8791
533.78        67.92122
534.22        67.99031
534.66        68.03316
535.09        68.02945
535.53         68.0072
535.97        67.97558
536.41        67.96597
536.85         67.9834
537.28        68.00817
537.72        68.02498
538.16        68.00697
538.60         67.9466
539.04        67.85709
539.47         67.7348
539.91        67.62793
540.35        67.53091
540.79         67.4518
541.22        67.38698
541.66        67.34224
542.10        67.31575
542.54        67.31213
542.97        67.33712
543.41         67.4178
543.85        67.54202
544.29        67.70889
544.72        67.84996
545.16        67.89778
545.60        67.83619
546.04        67.65804
546.47        67.45248
546.91         67.4698
547.35         67.6941
547.79        67.85736
548.22        67.87944
548.66        68.00029
549.10        68.21089
549.53        68.16492
549.97         67.7822
550.41        68.33577
550.84        67.79079
551.28        67.68983
551.72         67.4342
552.15        67.61536
552.59        67.38647
553.03         67.4565
553.46        67.56753
553.90        67.58058
554.34        67.44444
554.77        67.69099
555.21        67.54222
555.65        67.47353
556.08        67.30991
556.52        67.35573
556.96        67.57413
557.39        67.75125
557.83        67.83543
558.27        67.93063
558.70        67.92765
559.14        67.94992
559.57        67.85629
560.01        68.30949
560.45        67.94587
560.88        67.73923
561.32        67.67722
561.75        67.68217
562.19        67.80003
562.63        67.64893
563.06        67.30969
563.50        67.29259
563.93        67.53982
564.37        67.64066
564.80        67.55971
565.24        67.54709
565.68        67.58237
566.11        67.60944
566.55        67.63588
566.98        67.49039
567.42         67.3164
567.85        67.42537
568.29        67.72528
568.72        67.90569
569.16        68.11774
569.60        67.52232
570.03        68.01161
570.47        68.40557
570.90        68.08109
571.34        67.76016
571.77        68.07399
572.21        68.26504
572.64        68.50437
573.08        68.27208
573.51        67.67246
573.95        67.91303
574.38        68.44098
574.82        68.20778
575.25        68.43756
575.69        68.24908
576.12        67.93912
576.56        67.73811
576.99        67.39127
577.42        67.69426
577.86        67.63322
578.29         67.7096
578.73        68.54106
579.16        68.14978
579.60        68.18447
580.03        68.11332
580.47        68.22192
580.90        68.41526
581.33        68.21813
581.77        67.75627
582.20        68.13233
582.64        68.86289
583.07        67.95435
583.51        67.61874
583.94        67.46618
584.37        67.11467
584.81        66.85506
585.24        67.40809
585.68        68.01643
586.11        68.80542
586.54         68.1105
586.98        67.29214
587.41        68.13425
587.85        68.05806
588.28        68.47803
588.71        69.02245
589.15        67.76974
589.58        68.06168
590.01        67.26426
590.45        67.38235
590.88        67.77747
591.31        68.18999
591.75        68.27855
592.18        68.22557
592.61        68.41551
593.05        66.77515
593.48        67.84191
593.91        68.72414
594.35        67.30017
594.78        66.98429
595.21        66.71728
595.65        67.85387
596.08        67.11019
596.51        67.57997
596.94        67.95785
597.38        68.03389
597.81         67.8581
598.24        68.04819
598.68        67.85053
599.11        67.16469
599.54        68.23418
599.97        68.71695
600.41        66.86633
600.84        67.41615
601.27        67.32136
601.70        67.50749
602.14        67.80031
602.57        67.57381
603.00        67.11625
603.43        67.02434
603.87        67.16908
604.30         67.3792
604.73        67.29441
605.16         67.3338
605.60        67.36786
606.03         67.4822
606.46        67.57816
606.89        67.57128
607.32        67.45543
607.76         67.3653
608.19        67.35948
608.62        67.26225
609.05        67.10204
609.48        67.24438
609.92        67.16055
610.35         67.1061
610.78        67.66129
611.21        67.07476
611.64        67.15666
612.07        67.05484
612.50        67.24176
612.94        67.16797
613.37         67.6637
613.80        67.12041
614.23        67.74478
614.66        67.70912
615.09        67.61407
615.52        67.62363
615.96        67.70976
616.39        67.62057
616.82        67.08228
617.25        67.31557
617.68        66.99255
618.11        67.14671
618.54         67.3148
618.97        67.26374
619.40        67.02842
619.84        66.96188
620.27        67.13185
620.70        67.30097
621.13        67.36962
621.56        67.36294
621.99        67.10374
622.42         66.8269
622.85        67.16687
623.28        67.00594
623.71        67.33086
624.14        66.73325
624.57         67.1584
625.00        67.12173
625.43        67.16942
625.86        66.77988
626.29        66.79202
626.72        66.86139
627.15        66.82777
627.58        67.05646
628.01        67.30289
628.44        67.32306
628.87         66.8707
629.30        66.87437
629.73        67.17814
630.16         67.5173
630.59        67.11244
631.02         67.1281
631.45        67.06036
631.88        67.00431
632.31        66.87207
632.74        66.73137
633.17        66.61474
633.60           66.56
634.03        66.57893
634.46        66.63972
634.89        66.71867
635.32        66.79133
635.75        66.83936
636.18        66.85522
636.61        66.83829
637.04        66.80392
637.47        66.77409
637.89        66.70921
638.32        66.57505
638.75        66.51937
639.18        66.58252
639.61        66.08171
640.04        66.25554
640.47        66.21163
640.90        66.31539
641.33        66.52663
641.76        66.77107
642.18        66.90371
642.61        66.85529
643.04        66.67973
643.47        66.48654
643.90        66.43375
644.33        66.54929
644.76        66.86419
645.18        67.23418
645.61        67.23882
646.04         66.7779
646.47        66.69437
646.90        66.91866
647.33        66.89449
647.75         66.6094
648.18        66.39371
648.61        66.34369
649.04         66.3486
649.47        66.42941
649.89        66.65316
650.32        66.90487
650.75        66.99969
651.18        66.94497
651.61        66.82236
652.03        66.73615
652.46        66.89495
652.89        67.08705
653.32        67.01279
653.74        66.91067
654.17        66.29802
654.60        65.73732
655.03         68.0915
655.46        65.91501
655.88        66.47665
656.31        68.14542
656.74        69.93768
657.16         70.1713
657.59          68.368
658.02        66.56593
658.45         67.1432
658.87         67.3091
659.30        67.34243
659.73        67.21793
660.15        67.56636
660.58        67.07362
661.01        67.08321
661.44        67.12213
661.86        66.76086
662.29         66.1496
662.72        66.27863
663.14        67.00607
663.57        66.96186
664.00        66.26261
664.42        66.02108
664.85        66.26832
665.27        66.70766
665.70        66.58937
666.13        66.69036
666.55        66.79914
666.98        66.85345
667.41         66.8543
667.83        66.81741
668.26        66.74921
668.69        66.65761
669.11         66.5681
669.54        66.51662
669.96        66.51144
670.39        66.55348
670.82        66.61675
671.24        66.63795
671.67        66.60672
672.09         66.5966
672.52        66.62671
672.94        66.72731
673.37        66.38577
673.80        66.81303
674.22        66.52744
674.65        66.64074
675.07         66.7654
675.50        66.91456
675.92        67.05429
676.35        67.12045
676.77        67.11753
677.20        67.04565
677.62         66.9494
678.05        66.90257
678.47        66.91757
678.90        66.97382
679.32        67.03423
679.75        67.05162
680.17        67.00721
680.60        66.93075
681.02        66.83475
681.45        66.74326
681.87        66.67357
682.30        66.60278
682.72        66.56357
683.15         66.5686
683.57        66.64088
684.00        66.77504
684.42        66.92983
684.85         67.0644
685.27        67.16145
685.70        67.13808
686.12        67.05666
686.54        67.29228
686.97        67.72796
687.39        67.84486
687.82        67.60439
688.24        67.46224
688.66        67.43282
689.09        67.25411
689.51        66.97359
689.94        66.80614
690.36        66.77485
690.78          66.809
691.21        66.89099
691.63        67.03019
692.06        67.18776
692.48        67.29785
692.90        67.34261
693.33        67.36201
693.75        67.35439
694.17        67.26385
694.60        67.14848
695.02        67.11153
695.44        67.16074
695.87         67.3793
696.29        67.66103
696.71        67.52946
697.14        67.08878
697.56        66.99383
697.98        67.25115
698.41        67.34892
698.83        67.26991
699.25        67.33587
699.68         67.4931
700.10        67.54475
700.52        67.45332
700.94        67.28724
701.37        67.08903
701.79        66.94473
702.21        66.87273
702.64        66.85964
703.06        66.88404
703.48        66.92209
703.90        66.96953
704.33        67.05283
704.75        67.14487
705.17         67.2679
705.59        67.39324
706.01        67.50418
706.44        67.61424
706.86         67.7331
707.28        67.85005
707.70        68.02502
708.12        68.20576
708.55        68.15465
708.97        67.93305
709.39        67.89314
709.81        68.06178
710.23        68.19553
710.66        68.28069
711.08        68.49361
711.50        68.77245
711.92        68.96112
712.34        69.03385
712.76        69.03152
713.19        68.95224
713.61        68.84439
714.03        68.71392
714.45        68.56129
714.87         68.4242
715.29        68.35833
715.71        68.37099
716.13        68.44849
716.56        68.53911
716.98        68.63472
717.40        68.68783
717.82        68.70802
718.24        68.69865
718.66        68.66945
719.08        68.62745
719.50        68.56705
719.92         68.5031
720.34         68.4621
720.76        68.44864
721.19        68.44946
721.61        68.46038
722.03        68.44495
722.45        68.39449
722.87        68.31933
723.29        68.23234
723.71        68.15356
724.13        68.09356
724.55        68.05244
724.97        68.03096
725.39        68.02769
725.81         68.0445
726.23         68.0845
726.65        68.15086
727.07        68.25075
727.49        68.37594
727.91        68.50517
728.33        68.62798
728.75        68.72897
729.17         68.7991
729.59        68.85287
730.01        68.85506
730.43        68.74831
730.85        68.54572
731.27        68.28225
731.69         68.0689
732.10        68.07957
732.52        68.34144
732.94        68.78972
733.36        69.29952
733.78        69.65311
734.20        69.76849
734.62        69.64705
735.04        69.55803
735.46        69.32426
735.88        69.11386
736.30        69.23605
736.72        69.57101
737.13        69.61355
737.55         69.2841
737.97        68.87196
738.39        68.53281
738.81        68.39024
739.23        68.48782
739.65        68.79532
740.06        69.13849
740.48        69.30144
740.90         69.2197
741.32        68.96693
741.74        68.64741
742.16        68.46663
742.57        68.49874
742.99        68.58958
743.41         68.7103
743.83        68.98182
744.25        69.29372
744.67        69.26013
745.08        68.96519
745.50        68.89909
745.92        69.11088
746.34         69.3129
746.75        69.45017
747.17        69.55871
747.59        69.61614
748.01        69.62843
748.42        69.60683
748.84        69.51645
749.26         69.3919
749.68        69.29975
750.09        69.23667
750.51        69.17855
750.93        69.11781
751.35        69.08767
751.76        69.09587
752.18        69.12719
752.60        69.17435
753.01        69.24445
753.43        69.30151
753.85        69.31243
754.27        69.28802
754.68        69.28596
755.10        69.28659
755.52        69.28895
755.93        69.26321
756.35        69.17027
756.77        69.15321
757.18        69.30428
757.60        69.61585
758.02        70.46263
758.43        71.41663
758.85        70.88469
759.26        69.24263
759.68        68.72974
760.10        69.43607
760.51        69.82819
760.93        69.75724
761.34        69.89804
761.76        70.15051
762.18        70.07176
762.59         69.7225
763.01        69.37215
763.42        69.15929
763.84        69.04401
764.26        69.07482
764.67        69.28358
765.09         69.6143
765.50        69.91984
765.92        70.13612
766.33        70.19077
766.75        70.02575
767.16        69.91266
767.58        69.85001
768.00        69.59593
768.41        69.26155
768.83        69.39865
769.24        69.85244
769.66        69.86674
770.07        69.48013
770.49        69.28853
770.90        69.38544
771.32        69.71651
771.73        70.16539
772.15        70.29889
772.56        70.07362
772.97        69.97993
773.39           69.63
773.80        69.57277
774.22        69.67297
774.63        69.95318
775.05        70.25941
775.46        70.43378
775.88        70.40176
776.29        70.25134
776.70        70.05085
777.12        69.93346
777.53        69.94248
777.95        70.01093
778.36        70.13657
778.77        70.28609
779.19        70.43661
779.60        70.69693
780.02         70.9577
780.43        70.98039
780.84         70.8126
781.26        70.66974
781.67        70.66498
782.09        71.00482
782.50        71.54494
782.91        71.64816
783.33        71.29617
783.74        71.08763
784.15        71.04359
784.57        70.78825
784.98        70.41301
785.39        70.27188
785.81        70.41192
786.22        70.72661
786.63        71.13491
787.04        71.50793
787.46        71.79398
787.87        71.99915
788.28        72.14665
788.70        72.26557
789.11        72.35598
789.52         72.4245
789.93         72.4256
790.35         72.2858
790.76        72.01805
791.17        71.66113
791.58        71.34924
792.00        71.21725
792.41        71.30657
792.82        71.71281
793.23        72.27923
793.65        72.33577
794.06        72.00597
794.47        72.24259
794.88        72.88246
795.29        72.95341
795.71        72.39648
796.12        71.76819
796.53        71.27842
796.94         71.0799
797.35        71.27029
797.76        71.81512
798.18        72.47727
798.59        72.90246
799.00        72.96603
799.41        72.76907
799.82        72.44544
800.23        72.23424
800.64        72.21761
801.06        72.28883
801.47        72.44738
801.88        72.62344
802.29        72.77788
802.70        72.92423
803.11        73.04646
803.52        73.10692
803.93        73.11147
804.34        73.07461
804.75         72.9826
805.17        72.89993
805.58        72.88799
805.99        72.67781
806.40        72.39044
806.81        72.81149
807.22        73.68075
807.63        73.58593
808.04        72.65839
808.45        72.37531
808.86        72.84912
809.27        73.23851
809.68        73.38528
810.09        73.44033
810.50        73.36246
810.91        73.10877
811.32        72.82276
811.73        72.73657
812.14        72.89922
812.55        73.25642
812.96        73.65835
813.37        73.81768
813.78        73.66283
814.19        73.31012
814.60        72.90298
815.01        72.63711
815.42        72.56414
815.83        72.61397
816.24        72.76299
816.65        72.96339
817.05        73.17317
817.46        73.37289
817.87        73.52348
818.28        73.50681
818.69        73.32037
819.10        73.00012
819.51        72.66402
819.92        72.54227
820.33        72.69524
820.74        73.02854
821.14        73.45895
821.55        73.86531
821.96        74.18563
822.37        74.47005
822.78        74.61717
823.19         74.4539
823.60        73.97165
824.00        73.22089
824.41        72.45782
824.82        72.11634
825.23        72.28214
825.64        72.85879
826.04        73.57684
826.45        73.86129
826.86         73.5832
827.27        72.91181
827.68        72.13428
828.08        71.73267
828.49        71.79581
828.90        72.21107
829.31        72.81056
829.72        73.30772
830.12         73.6222
830.53        73.76237
830.94        73.84569
831.35        74.01467
831.75        74.32527
832.16        74.64286
832.57        74.88197
832.97        74.88005
833.38        74.61565
833.79        74.20482
834.20        73.76554
834.60        73.44011
835.01        73.30534
835.42        73.29566
835.82          73.453
836.23        73.77049
836.64        74.23699
837.04        74.87393
837.45        75.43428
837.86        75.67134
838.26        75.51847
838.67        75.04129
839.08         74.4423
839.48         74.0251
839.89        73.91608
840.29        74.03569
840.70        74.26665
841.11        74.42747
841.51        74.48746
841.92        74.46827
842.33        74.47321
842.73        74.65239
843.14        74.98029
843.54        75.42591
843.95        75.86167
844.35        76.15641
844.76        76.24332
845.17        76.14272
845.57        75.95268
845.98        75.80352
846.38        75.75306
846.79        75.76496
847.19        75.72595
847.60        75.39506
848.00          74.777
848.41        73.99549
848.81        73.30434
849.22        73.06499
849.62        73.38052
850.03        74.08339
850.43        75.02116
850.84        75.71093
851.24        76.04219
851.65         76.0321
852.05        75.78996
852.46        75.45679
852.86        75.10078
853.27        74.76352
853.67        74.38568
854.07        74.06929
854.48        73.77225
854.88         73.5174
855.29        73.28104
855.69        73.22042
856.10        73.26517
856.50         73.4847
856.90        73.69043
857.31        73.64194
857.71         73.3492
858.12         72.8375
858.52        72.34843
858.92        72.23554
859.33        72.55872
859.73        73.24921
860.13        74.05234
860.54        74.56033
860.94        74.69855
861.34        74.49335
861.75        74.05674
862.15        73.65665
862.55         73.3532
862.96        73.10267
863.36        72.79019
863.76         72.2523
864.17         71.5145
864.57        70.71373
864.97        70.02502
865.38        69.64849
865.78        69.65791
866.18        69.94016
866.58         70.4802
866.99        71.20245
867.39        72.05139
867.79        72.98066
868.19         73.6891
868.60        73.74977
869.00        73.13058
869.40        71.93385
869.80        70.68174
870.21        70.27805
870.61        70.97279
871.01        72.45789
871.41        74.07936
871.81        74.78809
872.22        74.31888
872.62          72.993
873.02         71.3448
873.42        70.26527
873.82        70.04298
874.22        70.44354
874.63        71.08678
875.03        71.39133
875.43         71.2127
875.83        70.73931
876.23        70.33834
876.63        70.59196
877.03        71.59243
877.44        73.04667
877.84        74.50174
878.24        75.14719
878.64        74.80408
879.04         73.7886
879.44         72.5196
879.84        71.60027
880.24        71.20403
880.64        71.13931
881.04        71.33847
881.44        71.68539
881.84        72.10036
882.24        72.65111
882.65        73.13239
883.05        73.30612
883.45        73.06938
883.85        72.50697
884.25        71.89737
884.65        71.69281
885.05         71.9754
885.45        72.57185
885.85        73.29549
886.25        73.81635
886.65        73.99865
887.05        73.96878
887.45        73.65892
887.85        72.97176
888.25        72.00592
888.65        70.85637
889.04        69.85034
889.44        69.49494
889.84        69.80185
890.24        70.66634
890.64        71.76974
891.04        72.42523
891.44        72.39018
891.84        71.88148
892.24        71.23118
892.64        70.90112
893.04        70.99542
893.44        71.35816
893.83        71.89568
894.23        72.37099
894.63        72.71669
895.03        73.00916
895.43         73.2491
895.83         73.4316
896.23        73.55632
896.63        73.57079
897.02        73.51441
897.42        73.53417
897.82        73.63163
898.22        73.81863
898.62        73.93546
899.01         73.7155
899.41           73.13
899.81        72.29691
900.21        71.53697
900.61         71.3394
901.00        71.77982
901.40        72.68526
901.80        73.68756
902.20        74.17834
902.59        73.98521
902.99        73.29489
903.39        72.38267
903.79        71.65969
904.18        71.26456
904.58         71.1233
904.98        71.12527
905.38        71.12056
905.77        71.03767
906.17        70.91194
906.57        70.85654
906.96        71.06523
907.36        71.51574
907.76        72.16338
908.15        72.70107
908.55        72.50861
908.95        71.57465
909.34         70.1235
909.74        68.77998
910.14        68.36751
910.53        69.08843
910.93        70.61749
911.33        72.56197
911.72        74.29288
912.12         75.4723
912.52        76.26946
912.91        76.69911
913.31        76.78932
913.70        76.60806
914.10        76.08983
914.49        75.37171
914.89        74.68185
915.29         74.1156
915.68        73.67952
916.08        73.40356
916.47        73.15899
916.87        72.97012
917.26        72.84753
917.66         72.8369
918.05        73.02865
918.45        73.37086
918.84         73.8544
919.24        74.29368
919.64        74.53667
920.03        74.53583
920.42        74.31038
920.82        73.99416
921.21        73.69852
921.61        73.49121
922.00        73.37494
922.40        73.32851
922.79        73.40321
923.19        73.56098
923.58        73.79399
923.98        74.07737
924.37        74.38312
924.77        74.66798
925.16        74.92353
925.55        75.05147
925.95        74.90424
926.34         74.4986
926.74        73.89574
927.13        73.24924
927.52        72.76865
927.92        72.53834
928.31        72.49471
928.70        72.61938
929.10          72.855
929.49        73.14913
929.89        73.46546
930.28        73.73581
930.67        73.76575
931.07        73.52062
931.46        73.09185
931.85        72.55691
932.24        72.04247
932.64        71.62829
933.03        71.31679
933.42        71.21709
933.82        71.48264
934.21        72.13126
934.60        73.03761
934.99        74.04504
935.39        74.87396
935.78        75.45777
936.17        75.81263
936.56         75.7641
936.96        75.11095
937.35        73.93504
937.74        72.40504
938.13        71.01189
938.53         70.3552
938.92        70.50062
939.31        71.35691
939.70        72.56155
940.09        73.38042
940.49        73.52324
940.88        73.14393
941.27        72.59729
941.66         72.4567
942.05        72.84875
942.44        73.64243
942.84        74.35967
943.23        74.25292
943.62        73.13831
944.01        71.32246
944.40        69.61271
944.79        69.16357
945.18        70.17552
945.57        72.30802
945.97        74.66997
946.36        75.92225
946.75        75.55253
947.14        74.00166
947.53        72.08356
947.92        71.03988
948.31         71.2066
948.70         72.2266
949.09        73.56833
949.48        74.28455
949.87         74.0636
950.26        73.23623
950.65        72.28324
951.04        71.83521
951.43        72.04506
951.82        72.73247
952.21        73.50542
952.60        73.69997
952.99        73.13494
953.38        72.02191
953.77        70.92924
954.16        70.59566
954.55        71.15566
954.94        72.50074
955.33        73.97215
955.72        74.18987
956.11        72.78111
956.50        70.25571
956.89           67.82
957.28        67.03638
957.66        68.20602
958.05        70.83632
958.44        73.94765
958.83        75.51349
959.22        74.86622
959.61        72.73427
960.00        70.22705
960.39        68.75373
960.78        68.59766
961.16        69.35046
961.55        70.51698
961.94        71.20403
962.33        71.06651
962.72        70.51641
963.11        69.85469
963.49        69.44559
963.88        69.39904
964.27        69.51744
964.66        69.84088
965.04        70.53719
965.43        71.47163
965.82        72.61585
966.21        73.62242
966.60        73.84607
966.98        73.20392
967.37        72.02168
967.76        70.67052
968.15        69.62971
968.53         69.0131
968.92        68.59857
969.31        68.60123
969.69        69.42059
970.08        70.99928
970.47         73.3521
970.86        75.53922
971.24        75.94501
971.63        74.26042
972.02         71.0547
972.40        67.77826
972.79        66.67274
973.17         68.1339
973.56        71.36716
973.95        75.22212
974.33        77.50878
974.72        77.41373
975.11        75.67779
975.49         73.2134
975.88        71.71807
976.26        71.65777
976.65        72.44508
977.04        73.66833
977.42        74.61872
977.81        74.84426
978.19        74.70728
978.58        74.34727
978.96        73.81779
979.35        73.26563
979.74        72.68603
980.12        72.21542
980.51         72.0834
980.89        72.40478
981.28         72.9287
981.66         73.8564
982.05        75.21556
982.43        77.02019
982.82        79.19126
983.20        80.93311
983.59        80.77885
983.97         78.5647
984.35        74.82361
984.74        71.15186
985.12        69.78014
985.51        71.04137
985.89         74.3774
986.28        78.26154
986.66         80.4687
987.04        80.15906
987.43         78.0319
987.81        75.10812
988.20         73.4864
988.58        73.73359
988.96        75.20808
989.35        76.83361
989.73        77.13412
990.12          75.668
990.50        73.16283
990.88        70.30053
991.27         68.1175
991.65        66.96896
992.03        66.57663
992.42        66.95258
992.80        68.45514
993.18        70.89934
993.56        74.20864
993.95         77.5674
994.33        79.53203
994.71        79.50428
995.10        77.91428
995.48        75.53486
995.86        73.64304
996.24        72.65439
996.63        72.18854
997.01        72.31102
997.39        72.90098
997.77        73.79008
998.15        75.03563
998.54        76.26819
998.92        76.88131
999.30        76.74094
999.68        75.98887
1000.06        74.91566
1000.45        74.11201
1000.83        73.89216
1001.21        74.07668
1001.59        74.72527
1001.97        75.89911
1002.35        77.45924
1002.73        79.31853
1003.12        80.96052
1003.50        81.48736
1003.88        80.78497
1004.26        79.15876
1004.64        77.11084
1005.02        75.56851
1005.40        74.88771
1005.78        74.81052
1006.16        75.22953
1006.54        75.98872
1006.92        76.97061
1007.30         78.2554
1007.69        79.51014
1008.07         80.1036
1008.45         79.7331
1008.83        78.53331
1009.21         76.8969
1009.59        75.59184
1009.97        74.88747
1010.35        74.54854
1010.73        74.62796
1011.11        75.15328
1011.49        76.00867
1011.86        77.28913
1012.24        78.27465
1012.62        78.04482
1013.00        76.40698
1013.38        73.43651
1013.76        70.05404
1014.14         68.3041
1014.52        68.91904
1014.90        71.41618
1015.28         74.3333
1015.66         75.3073
1016.04        73.76607
1016.41        70.47018
1016.79        66.59907
1017.17        64.60355
1017.55        65.18574
1017.93        67.20013
1018.31        69.66036
1018.69        71.93948
1019.06        74.18451
1019.44        76.71194
1019.82        79.75478
1020.20        82.60616
1020.58        84.14608
1020.95        83.98913
1021.33        82.49015
1021.71        80.02998
1022.09        76.57082
1022.46        71.65244
1022.84        65.84527
1023.22         61.2891
1023.60        59.88755
1023.97        61.22022
1024.35         63.9791
1024.73        66.82777
