SpectraSmart Spectrum 2.9.0.0
--------- Device Information -----------
Spectrum Name :  反射率_0
Saving Time :  2024/04/30 00:20:33
Spectro-Module Model Name : SE2030-DUVN
Spectro-Module Serial Number : OS361AC55029948
Wavelength Start : 200
Wavelength End : 1025
Wavelength Unit : Wavelength(nm)
Spectrum Unit : Reflectance(%)
-----------Spectrum Setting ------------
Integration Time : 20ms
Average : 10
Boxcar : 0
Background removal :  enabled
linearity correction :  enabled
SC :  disabled
Intensity correction :  disabled
DWT denoise :  enabled
savitzky-golay :  disabled
FFT :  disabled
Running average :  disabled
Kalman :  disabled
High pass :  disabled
---------------BEGIN--------------------
Wavelength(nm)             Reflectance(%)
200.29               0
200.75        88.53645
201.21        86.53563
201.67        85.78276
202.13        83.55706
202.58          78.991
203.04        71.63167
203.50        65.44455
203.96         69.6178
204.42        86.16629
204.88        110.9414
205.34        130.7935
205.80        128.3952
206.26        108.0211
206.72        82.72805
207.18        61.42037
207.64        48.50262
208.10        42.16595
208.55        39.04272
209.01        38.56699
209.47        40.81937
209.93         44.6484
210.39        49.70591
210.85         53.5425
211.31         53.9389
211.77        50.76426
212.23        43.25021
212.69         33.1415
213.14        30.47975
213.60         38.9656
214.06        52.53259
214.52         63.9199
214.98         68.9034
215.44        68.68073
215.90        65.18699
216.36        60.90358
216.81        60.47654
217.27         66.4036
217.73         78.8838
218.19        96.86172
218.65        110.8799
219.11        113.1899
219.57        106.3645
220.02        97.55154
220.48        92.53654
220.94         90.5788
221.40        90.06065
221.86         88.0346
222.32        79.62788
222.77        67.17097
223.23        56.69913
223.69        50.11221
224.15        47.09932
224.61        46.46447
225.06        47.43231
225.52        49.68314
225.98        51.86928
226.44        53.07311
226.90        53.48555
227.36        53.36623
227.81        52.96864
228.27        52.36505
228.73        51.33011
229.19        49.94082
229.65        48.62918
230.10        47.72538
230.56        47.34935
231.02        47.10833
231.48        46.56762
231.93        45.60854
232.39        44.38108
232.85        43.27053
233.31         43.0812
233.77         44.0305
234.22        46.02458
234.68         48.2187
235.14        49.08376
235.60        48.29437
236.05        46.33863
236.51        44.55991
236.97        44.76009
237.43        47.48161
237.88        52.90134
238.34        60.27084
238.80         66.5864
239.26        69.32168
239.71        68.81841
240.17        66.73953
240.63        66.23603
241.08        68.67556
241.54        74.21448
242.00         84.1757
242.46        96.62939
242.91        106.2366
243.37        110.1541
243.83        109.9632
244.28        110.3235
244.74        112.5521
245.20        114.6783
245.66        116.9656
246.11        120.1733
246.57        123.9268
247.03        130.0848
247.48        133.5684
247.94        124.3441
248.40        106.9735
248.85        89.34853
249.31        78.52468
249.77        76.87603
250.22        83.82732
250.68        100.5834
251.14        128.1438
251.59         148.058
252.05        143.2626
252.51        126.7531
252.96         112.061
253.42        104.7099
253.88        101.9578
254.33        100.9731
254.79        100.3587
255.25        97.87708
255.70        93.75942
256.16        90.27493
256.62        87.80763
257.07        86.21828
257.53        85.55929
257.99         85.1429
258.44        84.19046
258.90          82.679
259.35        80.35844
259.81        78.07673
260.27        76.00221
260.72        74.23671
261.18         72.9435
261.63        71.69601
262.09        70.43821
262.55        68.72246
263.00        66.59928
263.46        64.54639
263.91        62.68639
264.37        61.52873
264.83        60.91809
265.28        60.56817
265.74        60.38901
266.19        59.98402
266.65        59.34966
267.11        58.55782
267.56        57.60093
268.02        56.48047
268.47        55.17412
268.93        53.67834
269.38        52.12416
269.84        50.87703
270.30        50.02402
270.75        49.50113
271.21         49.0745
271.66        48.31965
272.12        47.16822
272.57        45.70763
273.03        44.22646
273.48        43.09866
273.94          42.464
274.39        42.11251
274.85         41.8499
275.31        41.31105
275.76        40.41082
276.22        39.33274
276.67        38.19918
277.13        37.29177
277.58        36.62206
278.04        36.16003
278.49        35.75656
278.95         35.3181
279.40        34.76832
279.86        34.21456
280.31        33.69299
280.77        33.38675
281.22        33.25222
281.68        33.24126
282.13        33.21674
282.59        33.06015
283.04        32.72389
283.50        32.28164
283.95        31.76374
284.41        31.24213
284.86        30.75044
285.32        30.32653
285.77        29.98428
286.22        29.82092
286.68        29.84771
287.13        29.98828
287.59        30.21207
288.04        30.40052
288.50        30.53182
288.95        30.59262
289.41        30.59198
289.86        30.49925
290.32        30.35914
290.77        30.19275
291.22        30.06167
291.68        30.05375
292.13        30.19404
292.59        30.50267
293.04        31.01517
293.50        31.81371
293.95        32.89391
294.40        34.24345
294.86        35.73871
295.31          37.194
295.77        38.55236
296.22        39.83424
296.68         41.1574
297.13        42.68919
297.58        44.46159
298.04        46.37469
298.49        48.28704
298.95        49.99916
299.40        51.46134
299.85        52.76377
300.31        54.02987
300.76        55.36219
301.21        56.84279
301.67        58.46213
302.12        60.17489
302.58        62.06202
303.03        64.06935
303.48        66.11446
303.94        68.16756
304.39        70.44596
304.84        72.39424
305.30        74.44315
305.75        76.34717
306.20        78.06274
306.66        79.59899
307.11        80.91608
307.57        82.15256
308.02        83.38397
308.47        84.68236
308.93        86.03645
309.38        87.34881
309.83        88.54379
310.29        89.60319
310.74        90.53928
311.19        91.38234
311.65         92.1639
312.10        92.88056
312.55        93.53989
313.00        94.19349
313.46        94.92479
313.91        95.72708
314.36         96.5836
314.82        97.41328
315.27        98.11265
315.72        98.62981
316.18        98.99593
316.63        99.24287
317.08        99.43836
317.53        99.62572
317.99         99.8242
318.44        100.0197
318.89         100.204
319.35        100.3815
319.80         100.556
320.25        100.8191
320.70        101.3133
321.16        102.0149
321.61        102.9115
322.06        103.7627
322.51        104.1926
322.97        104.1138
323.42         103.654
323.87        103.0684
324.32        102.7895
324.78        102.9179
325.23        103.3989
325.68        104.0421
326.13          104.52
326.59        104.7108
327.04        104.7505
327.49        104.7701
327.94        105.0306
328.39        105.5805
328.85        106.2582
329.30        106.9643
329.75        107.3408
330.20        107.2964
330.66        106.9505
331.11        106.4889
331.56        106.1258
332.01        105.9785
332.46        106.0105
332.92         106.218
333.37        106.7419
333.82        107.5166
334.27        108.4984
334.72        109.5719
335.17        110.5363
335.63        111.2788
336.08        111.8878
336.53        112.2803
336.98         112.412
337.43        112.3215
337.88        112.0399
338.34        111.7864
338.79        111.9318
339.24        112.5458
339.69         113.548
340.14        114.6851
340.59        115.5051
341.05        115.8815
341.50        115.9381
341.95        115.8604
342.40        115.9736
342.85        116.3602
343.30        116.8874
343.75        117.4453
344.20         117.866
344.66        118.1173
345.11        118.2984
345.56        118.4111
346.01        118.4358
346.46        118.4066
346.91        118.3128
347.36        118.3416
347.81        118.7881
348.26        119.6644
348.72        120.8455
349.17        122.0282
349.62        122.6284
350.07        122.5071
350.52        121.8673
350.97        121.0347
351.42        120.5087
351.87        120.4396
352.32        120.6835
352.77         121.132
353.22        121.6099
353.67        122.0139
354.13        122.3594
354.58        122.5988
355.03         122.643
355.48        122.4578
355.93        122.0442
356.38        121.3888
356.83        120.4925
357.28        119.4045
357.73        118.1771
358.18        116.9529
358.63        115.9399
359.08        115.1873
359.53        114.6429
359.98         114.207
360.43        113.7058
360.88        113.0825
361.33        112.3865
361.78        111.6357
362.23        110.8608
362.68        110.0828
363.13        109.2857
363.58        108.5047
364.03        107.8037
364.48        107.1897
364.93        106.6442
365.38        106.1253
365.83        105.5622
366.28        104.9374
366.73        104.2748
367.18        103.5854
367.63        102.8874
368.08        102.1832
368.53        101.4546
368.98        100.7289
369.43        100.0493
369.88        99.43409
370.33        98.90513
370.78        98.39169
371.23        97.77567
371.68        97.04055
372.13        96.19847
372.58        95.42212
373.03        94.98895
373.48        94.92207
373.93          95.118
374.38        95.27113
374.83        94.88753
375.28        93.88828
375.72        92.44553
376.17        90.96304
376.62        89.87157
377.07        89.26732
377.52        88.98479
377.97        88.88572
378.42        88.74946
378.87        88.48694
379.32        88.18092
379.77        87.79572
380.22        87.26017
380.67        86.57668
381.11        85.74776
381.56        84.90066
382.01        84.28176
382.46        83.95805
382.91        83.87772
383.36        83.88046
383.81         83.7086
384.26        83.29757
384.71        82.70956
385.15        82.07854
385.60        81.67589
386.05        81.52509
386.50        81.53547
386.95        81.52505
387.40        81.22491
387.85        80.60473
388.29        79.73942
388.74        78.92318
389.19        78.33778
389.64        78.02363
390.09        77.89375
390.54        77.84639
390.98        77.72211
391.43        77.50929
391.88        77.19727
392.33        76.82218
392.78        76.58571
393.23        76.45329
393.67        76.05759
394.12        75.48659
394.57        75.41887
395.02         74.8226
395.47        74.75728
395.91        74.85135
396.36        74.74333
396.81        74.40392
397.26        74.24673
397.71        73.94048
398.15        73.70498
398.60        73.52844
399.05        73.37457
399.50        73.20847
399.95        73.15985
400.39        72.96767
400.84        72.92744
401.29        72.85856
401.74        73.09957
402.18        72.80338
402.63        72.18304
403.08        71.28829
403.53        70.90817
403.97        71.09669
404.42        71.46848
404.87        71.80837
405.32        71.85625
405.76         71.5285
406.21        71.05305
406.66        70.53688
407.11        69.99773
407.55        69.64597
408.00        69.69145
408.45        70.08793
408.90        70.78236
409.34        71.42759
409.79        71.13426
410.24        70.17043
410.68        69.84592
411.13          70.253
411.58        70.63507
412.03        70.81645
412.47        70.86382
412.92         70.6977
413.37        70.35566
413.81        69.91745
414.26        69.57288
414.71        69.34007
415.15        69.19183
415.60        69.12068
416.05         69.1567
416.49        69.29691
416.94        69.53692
417.39        69.78973
417.83        69.89412
418.28        69.82226
418.73        69.60686
419.17        69.36782
419.62        69.31831
420.07        69.48267
420.51        69.77528
420.96        70.08833
421.41         70.1646
421.85        69.93929
422.30        69.70683
422.74        69.49436
423.19        69.12041
423.64        68.70774
424.08        68.93727
424.53        69.73628
424.98        69.89211
425.42        70.13647
425.87        70.35494
426.31        70.70184
426.76        70.33701
427.21        69.33593
427.65        69.27066
428.10        69.95227
428.54        69.92458
428.99        69.30602
429.44        69.10457
429.88        69.36108
430.33        69.77779
430.77        70.12918
431.22        70.35268
431.66        70.43766
432.11        70.19855
432.56         69.7791
433.00        69.98224
433.45        70.94453
433.89        70.83223
434.34         71.1264
434.78        72.32587
435.23         69.9939
435.67        69.39142
436.12        69.27726
436.57        69.54919
437.01        70.03387
437.46        70.39281
437.90        70.60576
438.35        70.89077
438.79        71.38142
439.24        71.51035
439.68        71.34968
440.13        71.30973
440.57        71.47435
441.02        71.53392
441.46        71.42331
441.91        72.08312
442.35        72.02885
442.80        72.13099
443.24         71.9711
443.69        71.70549
444.13        71.39917
444.58        71.15138
445.02        70.94892
445.47        70.86939
445.91        70.91876
446.36        70.91955
446.80        70.80432
447.24        71.34473
447.69        71.22786
448.13        71.40385
448.58        71.49711
449.02        71.52383
449.47        71.53068
449.91        71.61543
450.36        71.81433
450.80        72.00769
451.25        72.14436
451.69         72.3632
452.13        72.25557
452.58        72.21518
453.02        72.13407
453.47         72.0628
453.91        71.99386
454.36        72.00327
454.80        71.85349
455.24        72.16164
455.69        72.64787
456.13        73.06296
456.58        72.38545
457.02        72.03095
457.46        72.22679
457.91        72.12054
458.35        71.85567
458.79        71.70438
459.24        71.71729
459.68        71.82872
460.13        72.00237
460.57        71.91503
461.01        72.07921
461.46           71.84
461.90        71.40379
462.34        71.84962
462.79        71.95074
463.23        71.86083
463.68        71.30038
464.12        70.97698
464.56        70.93654
465.01        70.81092
465.45        70.59293
465.89        70.58217
466.34        70.76185
466.78        70.89079
467.22        71.16965
467.67        70.97036
468.11        70.97463
468.55        70.65374
468.99        70.29072
469.44        70.02855
469.88        69.90999
470.32        69.90572
470.77        69.94243
471.21        69.94039
471.65        69.85956
472.10        69.74524
472.54        69.64545
472.98        69.65305
473.42        69.76742
473.87        70.00764
474.31        70.25713
474.75        70.20774
475.20        69.91881
475.64        69.84813
476.08        69.98325
476.52        69.82607
476.97        69.40746
477.41        69.44233
477.85        68.79068
478.29        69.06426
478.74        69.69981
479.18        69.66228
479.62        69.02386
480.06        68.82496
480.50        69.10829
480.95        69.01188
481.39        69.63728
481.83        68.77052
482.27        69.62522
482.72        69.29501
483.16        69.59344
483.60        69.49973
484.04        69.90668
484.48        69.93144
484.93        69.59444
485.37        70.45454
485.81        69.21377
486.25        68.85928
486.69        70.23557
487.14        69.23254
487.58         68.9576
488.02        68.75037
488.46        69.77025
488.90        69.19743
489.34        68.96407
489.79        70.04157
490.23        69.15658
490.67        69.24957
491.11        69.17995
491.55        68.95583
491.99        68.61088
492.43        68.43197
492.88        68.47205
493.32        68.60868
493.76         68.8063
494.20        69.02388
494.64        69.20415
495.08        69.47013
495.52        69.77083
495.96        69.65816
496.41        69.11197
496.85        69.43645
497.29        68.90298
497.73        68.79623
498.17        69.00641
498.61        68.91843
499.05        68.53856
499.49        68.43684
499.93        68.54218
500.37        68.66963
500.82        68.82449
501.26        68.61661
501.70        68.55565
502.14        69.07036
502.58        68.69985
503.02          68.816
503.46        68.93772
503.90        69.08689
504.34        69.20393
504.78        69.23449
505.22        69.16601
505.66        69.02551
506.10        68.87899
506.54        68.75323
506.98        68.71407
507.42        69.01818
507.86        68.58913
508.30         68.9469
508.74        68.52201
509.18        68.33599
509.62        68.10402
510.06        68.04266
510.50        68.18161
510.94        68.46532
511.38        68.78709
511.82        68.93629
512.26        68.86589
512.70        68.63477
513.14         68.3418
513.58        68.20354
514.02        68.27599
514.46        68.37769
514.90        68.39803
515.34        68.80419
515.78        68.53838
516.22        68.46194
516.66        68.32684
517.10        68.23908
517.54        68.21564
517.98        68.24149
518.42        68.28429
518.86        68.26856
519.30        68.18318
519.74        68.05373
520.18        67.93456
520.62        67.90369
521.06        67.98026
521.50        68.14684
521.93        68.34393
522.37        68.45222
522.81        68.45143
523.25        68.36298
523.69        68.27081
524.13        68.30768
524.57        68.49112
525.01        68.77191
525.45         69.0318
525.89        69.08026
526.32        68.87177
526.76        68.50163
527.20        68.09214
527.64        67.83382
528.08        67.77638
528.52        67.85953
528.96        68.01736
529.40        68.14417
529.83        68.19607
530.27        68.21382
530.71        68.20184
531.15         68.1713
531.59        68.13013
532.03        68.06741
532.46        67.98512
532.90        67.92223
533.34        67.87992
533.78        67.85738
534.22        67.84884
534.66        67.84027
535.09        67.82204
535.53        67.81393
535.97        67.80795
536.41        67.80611
536.85        67.80746
537.28        67.80377
537.72        67.79889
538.16         67.7942
538.60        67.78705
539.04        67.77818
539.47        67.74176
539.91        67.69472
540.35        67.62061
540.79        67.53304
541.22        67.44535
541.66        67.38186
542.10        67.34749
542.54         67.3687
542.97        67.42491
543.41        67.44957
543.85         67.4499
544.29        67.55402
544.72        67.71447
545.16        67.77482
545.60        67.71633
546.04        67.64467
546.47        67.59736
546.91        67.57827
547.35        67.62201
547.79        67.79002
548.22        67.98574
548.66        68.17428
549.10        68.34203
549.53        68.29634
549.97        67.95692
550.41        68.53761
550.84        67.98873
551.28        67.84777
551.72        67.53266
552.15        67.69701
552.59        67.51555
553.03        67.63826
553.46        67.77651
553.90        67.89156
554.34        67.95359
554.77        67.96295
555.21        67.94913
555.65        67.99974
556.08        68.07841
556.52        68.02296
556.96        67.87769
557.39        67.91412
557.83        68.12503
558.27        68.27824
558.70        68.33522
559.14          68.326
559.57        68.24769
560.01        68.24085
560.45         68.3167
560.88        68.16061
561.32        68.12408
561.75        68.13852
562.19        68.24511
562.63        68.01501
563.06        67.55997
563.50        67.49109
563.93        67.75773
564.37        67.92894
564.80        67.92802
565.24        67.91134
565.68        67.88336
566.11        67.89151
566.55        67.94488
566.98        67.89024
567.42        67.82613
567.85        67.82848
568.29        67.90144
568.72        68.17602
569.16        68.76109
569.60         68.3134
570.03        68.81266
570.47        69.10975
570.90        68.89314
571.34        68.27918
571.77        68.77436
572.21        68.85706
572.64         68.9526
573.08        68.79736
573.51        68.47419
573.95        68.59439
574.38        68.83078
574.82        68.72929
575.25        68.86789
575.69        68.50086
576.12        67.97094
576.56        68.05129
576.99          68.325
577.42        68.31103
577.86        68.31229
578.29        68.23552
578.73        68.95654
579.16        68.61774
579.60        68.47377
580.03        68.63824
580.47        69.09811
580.90        68.98318
581.33        68.48016
581.77          68.279
582.20        68.74064
582.64        69.14854
583.07        68.50732
583.51        68.21622
583.94        68.22067
584.37        68.01228
584.81        67.83255
585.24        68.08075
585.68         68.7198
586.11        69.25184
586.54        68.17246
586.98        67.89181
587.41          68.861
587.85        69.42013
588.28        69.09739
588.71         69.3907
589.15        68.59064
589.58        68.46383
590.01        67.87771
590.45        67.91058
590.88        68.33673
591.31        68.69592
591.75        68.68983
592.18        68.69991
592.61        68.99176
593.05        67.45255
593.48        68.44743
593.91        69.20003
594.35        68.15768
594.78        67.87241
595.21        67.53533
595.65        68.52228
596.08        67.93602
596.51        68.04462
596.94        68.51265
597.38         68.5808
597.81        68.34944
598.24        68.48292
598.68        67.94546
599.11         68.1912
599.54        68.67278
599.97        69.01968
600.41         67.8962
600.84        68.28393
601.27        68.19042
601.70        68.61436
602.14        68.84166
602.57        68.46165
603.00        67.67522
603.43        67.55353
603.87         67.8403
604.30        68.57087
604.73        68.04997
605.16        68.01025
605.60        67.99998
606.03        68.25264
606.46        68.59641
606.89        68.64291
607.32        68.40318
607.76        68.31765
608.19        68.46227
608.62         68.3812
609.05        68.11398
609.48        68.44164
609.92        68.43311
610.35        68.42092
610.78        68.65211
611.21        67.92264
611.64         67.9419
612.07        68.35748
612.50        68.51285
612.94        68.38895
613.37        68.94112
613.80        68.55101
614.23        68.91613
614.66        68.85823
615.09        68.78253
615.52        68.74497
615.96        68.69576
616.39        68.52064
616.82        67.80682
617.25        68.03236
617.68        67.80309
618.11        68.09441
618.54        68.37068
618.97        68.34539
619.40        68.12723
619.84        67.94428
620.27        68.25013
620.70         68.6255
621.13        69.09707
621.56        68.53233
621.99        68.42236
622.42         68.1183
622.85        68.84141
623.28        68.32123
623.71        68.91857
624.14        67.81998
624.57        68.43996
625.00        68.14899
625.43        68.28756
625.86        68.13047
626.29        67.79089
626.72        68.19947
627.15        68.00206
627.58        68.10167
628.01        68.11428
628.44         68.4393
628.87        67.95877
629.30        68.12187
629.73        68.53336
630.16        68.68906
630.59        68.53774
631.02        68.54657
631.45        68.44669
631.88        68.36092
632.31        68.20559
632.74        68.14906
633.17        67.97377
633.60        67.87022
634.03        67.78156
634.46        67.70069
634.89        67.64429
635.32        67.65125
635.75        67.72128
636.18        67.82787
636.61        67.93284
637.04        67.98972
637.47        68.00072
637.89        67.93818
638.32        67.79172
638.75        67.75375
639.18        67.87448
639.61        67.44088
640.04        67.68666
640.47         67.6577
640.90        67.71835
641.33        67.84239
641.76        67.98788
642.18        68.06268
642.61        68.01003
643.04        67.86734
643.47        67.71316
643.90        67.65497
644.33        67.70971
644.76        67.93134
645.18         68.1987
645.61        68.12609
646.04        67.62903
646.47        67.54883
646.90        67.81158
647.33        67.85667
647.75        67.65907
648.18         67.5311
648.61        67.52136
649.04        67.60852
649.47        67.76444
649.89        67.90445
650.32        67.94344
650.75        67.90987
651.18         67.8625
651.61        67.75663
652.03        67.70193
652.46        68.10771
652.89        68.70185
653.32        68.69237
653.74        68.21355
654.17        67.72375
654.60        67.25098
655.03        68.93907
655.46        66.63559
655.88        68.39201
656.31        70.72658
656.74        71.86048
657.16         70.7963
657.59        68.56222
658.02        68.07944
658.45        68.67474
658.87        68.91977
659.30        68.36285
659.73        68.67654
660.15        69.20906
660.58        68.78092
661.01        68.64095
661.44        68.36472
661.86        67.95911
662.29        67.55602
662.72        67.87648
663.14        68.70289
663.57        68.55322
664.00        67.60097
664.42        67.30809
664.85        67.74477
665.27        68.04775
665.70        68.10934
666.13        68.20344
666.55        68.31052
666.98        68.33676
667.41        68.30468
667.83        68.25351
668.26        68.18571
668.69         68.1129
669.11        68.04742
669.54        67.98007
669.96        67.90977
670.39        67.94572
670.82        67.93343
671.24        67.89026
671.67        67.79254
672.09         67.8033
672.52         67.9248
672.94        68.09222
673.37        67.77473
673.80        68.25047
674.22        68.01282
674.65        68.19547
675.07        68.40139
675.50        68.59945
675.92        68.80547
676.35         68.8567
676.77        68.77721
677.20        68.57912
677.62         68.3506
678.05        68.23164
678.47        68.25185
678.90        68.37796
679.32        68.53381
679.75        68.60587
680.17        68.55768
680.60        68.43797
681.02        68.29838
681.45        68.21407
681.87        68.20862
682.30        68.27048
682.72        68.38818
683.15          68.406
683.57        68.37852
684.00        68.54919
684.42        68.84336
684.85        68.98953
685.27        68.97185
685.70        68.78609
686.12        68.57176
686.54        68.90326
686.97        69.62138
687.39        69.87357
687.82         69.5901
688.24        69.52244
688.66        69.57034
689.09        69.39776
689.51        69.02833
689.94        68.78732
690.36        68.71241
690.78        68.69072
691.21        68.71527
691.63        68.84849
692.06        69.03334
692.48        69.12008
692.90        69.10196
693.33        69.09445
693.75        69.09996
694.17        69.03791
694.60        68.94705
695.02        68.84824
695.44        68.88728
695.87        69.00165
696.29        69.18154
696.71        69.12411
697.14        68.90112
697.56        68.93912
697.98        69.21741
698.41        69.34087
698.83         69.2925
699.25        69.34516
699.68        69.44978
700.10        69.43055
700.52        69.26463
700.94        69.04317
701.37        68.81361
701.79        68.65502
702.21        68.58717
702.64        68.59499
703.06        68.67853
703.48        68.84576
703.90        69.08518
704.33        69.40533
704.75        69.70096
705.17         69.8672
705.59        69.84927
706.01        69.67565
706.44        69.45539
706.86        69.34711
707.28        69.38363
707.70        69.60281
708.12        69.90078
708.55        69.90556
708.97        69.67337
709.39        69.69971
709.81        69.98329
710.23        70.11994
710.66        70.08755
711.08        70.14549
711.50        70.28276
711.92        70.39602
712.34         70.4799
712.76        70.55975
713.19         70.6102
713.61        70.63527
714.03        70.61555
714.45        70.55778
714.87        70.48346
715.29         70.4262
715.71        70.39421
716.13         70.3789
716.56        70.35724
716.98        70.37816
717.40        70.41398
717.82        70.46529
718.24        70.51965
718.66         70.5566
719.08        70.57047
719.50        70.56085
719.92        70.54441
720.34        70.55027
720.76        70.58257
721.19        70.62407
721.61        70.66084
722.03        70.64337
722.45        70.56298
722.87        70.43495
723.29        70.29478
723.71        70.19899
724.13        70.16379
724.55        70.17645
724.97        70.21017
725.39        70.21728
725.81        70.18936
726.23         70.1488
726.65        70.11738
727.07        70.13056
727.49        70.19309
727.91        70.27658
728.33        70.37927
728.75        70.50016
729.17        70.62767
729.59         70.7686
730.01        70.86253
730.43        70.81136
730.85        70.61476
731.27        70.31487
731.69        70.03983
732.10        69.99071
732.52        70.20692
732.94        70.63297
733.36        71.14146
733.78        71.49674
734.20         71.6181
734.62        71.57026
735.04        71.45605
735.46        71.42104
735.88        71.51032
736.30        71.71523
736.72        71.94103
737.13        71.97466
737.55        71.74229
737.97        71.45943
738.39        71.21328
738.81        70.84863
739.23        70.52556
739.65        70.82357
740.06        71.50362
740.48        71.75818
740.90        71.50484
741.32        70.96762
741.74        70.68195
742.16        70.48978
742.57        70.57796
742.99        70.86467
743.41        71.23545
743.83        71.49421
744.25         71.5796
744.67         71.5484
745.08        71.45631
745.50        71.38488
745.92         71.3748
746.34        71.37692
746.75        71.40253
747.17        71.48093
747.59        71.60745
748.01        71.79064
748.42        71.97084
748.84        72.01192
749.26        71.91393
749.68         71.7095
750.09        71.48136
750.51        71.44539
750.93        71.58344
751.35        71.69884
751.76        71.75637
752.18        71.82748
752.60        71.89415
753.01        71.90062
753.43         71.8428
753.85        71.79304
754.27        71.77686
754.68        71.79467
755.10        71.84206
755.52        71.91476
755.93        71.98694
756.35        72.03796
756.77        72.12516
757.18        72.25639
757.60        72.42538
758.02        72.86565
758.43        73.34319
758.85        72.96426
759.26        71.94011
759.68        71.56451
760.10        71.92874
760.51        72.09312
760.93        72.01128
761.34        72.40092
761.76        73.02529
762.18        72.87772
762.59          72.063
763.01        71.52705
763.42        71.47066
763.84        71.42168
764.26        71.43173
764.67         71.7692
765.09        72.30901
765.50         72.7722
765.92        73.08067
766.33        73.03202
766.75        72.55386
767.16        72.74435
767.58        72.41521
768.00        72.20666
768.41         71.8654
768.83        72.11973
769.24        72.74555
769.66        72.71436
770.07        72.12048
770.49         71.8858
770.90        72.10098
771.32         72.4376
771.73        72.78212
772.15        72.89232
772.56        72.73296
772.97        72.69276
773.39        72.36488
773.80        72.39359
774.22        72.61188
774.63        72.94124
775.05        73.21067
775.46        73.32475
775.88        73.21396
776.29        72.92812
776.70        72.57476
777.12        72.37778
777.53        72.39224
777.95        72.51969
778.36        72.72964
778.77        72.91985
779.19        73.04879
779.60        73.31109
780.02         73.5783
780.43          73.462
780.84        73.08829
781.26        72.92422
781.67         73.0761
782.09        73.62736
782.50        74.33151
782.91        74.33791
783.33         73.6846
783.74        73.33219
784.15        73.33595
784.57        73.09687
784.98        72.69254
785.39        72.56655
785.81        72.76125
786.22         73.1405
786.63        73.61757
787.04        74.05596
787.46        74.39687
787.87        74.64613
788.28        74.81944
788.70        74.93423
789.11        74.99358
789.52        75.01318
789.93        74.96372
790.35        74.80273
790.76        74.55347
791.17        74.23038
791.58        73.96447
792.00        73.92935
792.41        74.14746
792.82         74.6004
793.23        75.12807
793.65         75.2196
794.06         74.9623
794.47        75.06886
794.88        75.45303
795.29        75.44575
795.71        75.00896
796.12        74.55373
796.53        74.25106
796.94        74.23283
797.35        74.56026
797.76        75.20169
798.18        75.90258
798.59        76.28731
799.00        76.23734
799.41        75.86102
799.82        75.35143
800.23        75.04803
800.64        75.05892
801.06        75.25505
801.47        75.57796
801.88        75.85196
802.29        76.00208
802.70        76.06339
803.11         76.0626
803.52        76.03512
803.93        76.01539
804.34         76.0076
804.75        75.95475
805.17        75.86101
805.58        75.78114
805.99        75.43542
806.40        75.03375
806.81        75.57309
807.22        76.77473
807.63        77.00802
808.04        76.31018
808.45         76.1558
808.86        76.61984
809.27        76.80946
809.68        76.64669
810.09        76.48065
810.50        76.32762
810.91        76.09024
811.32        75.87932
811.73        75.86983
812.14        76.08662
812.55        76.50545
812.96        76.95951
813.37        77.12164
813.78        76.91801
814.19        76.47073
814.60        75.97229
815.01         75.6963
815.42        75.70906
815.83        75.92281
816.24        76.26508
816.65        76.58722
817.05        76.80623
817.46        76.92192
817.87        76.94463
818.28        76.83111
818.69        76.59556
819.10        76.25197
819.51        75.88139
819.92        75.64988
820.33          75.616
820.74        75.73376
821.14         75.9688
821.55        76.26507
821.96        76.57743
822.37        76.92309
822.78         77.2093
823.19        77.27337
823.60        77.07632
824.00        76.64883
824.41        76.13912
824.82        75.82137
825.23        75.76102
825.64        75.91145
826.04         76.1422
826.45        76.12897
826.86        75.83195
827.27        75.35861
827.68        74.90742
828.08        74.80807
828.49        75.08959
828.90        75.67771
829.31        76.40958
829.72        77.00652
830.12         77.3924
830.53        77.54831
830.94        77.59696
831.35        77.70575
831.75        77.94234
832.16        78.17529
832.57        78.32862
832.97        78.24277
833.38        77.90591
833.79        77.44927
834.20        76.98792
834.60        76.65504
835.01        76.52288
835.42        76.51205
835.82        76.68292
836.23        77.06017
836.64          77.629
837.04        78.39954
837.45         79.0487
837.86        79.20863
838.26        78.79981
838.67        77.94376
839.08        76.96076
839.48         76.3299
839.89        76.22287
840.29        76.50967
840.70        77.00459
841.11         77.4121
841.51         77.6535
841.92        77.76875
842.33        77.86608
842.73        78.10606
843.14        78.46502
843.54        78.90286
843.95         79.2827
844.35        79.47141
844.76        79.41254
845.17        79.14133
845.57        78.80586
845.98        78.60638
846.38        78.61784
846.79        78.78883
847.19        78.94614
847.60        78.73979
848.00        78.14104
848.41        77.29276
848.81        76.51067
849.22        76.25636
849.62        76.65796
850.03        77.52246
850.43        78.62457
850.84        79.34208
851.24        79.53367
851.65         79.2541
852.05        78.73542
852.46        78.31482
852.86        78.09415
853.27        78.04265
853.67        77.95961
854.07        77.77575
854.48        77.41689
854.88        76.95804
855.29        76.45992
855.69        76.27191
856.10        76.38362
856.50        76.79877
856.90        77.22834
857.31        77.28604
857.71        76.93903
858.12        76.26069
858.52        75.53449
858.92        75.17686
859.33        75.28735
859.73        75.79309
860.13        76.44991
860.54        76.86957
860.94        76.98192
861.34         76.8073
861.75         76.4717
862.15        76.25293
862.55        76.19746
862.96         76.2579
863.36        76.22144
863.76        75.78545
864.17        74.95421
864.57        73.88104
864.97        72.90845
865.38         72.4971
865.78        72.77167
866.18         73.5742
866.58        74.64275
866.99        75.41138
867.39        75.70213
867.79        75.63468
868.19        75.30434
868.60         74.8569
869.00        74.38471
869.40        73.83041
869.80        73.41373
870.21        73.51475
870.61        74.22328
871.01        75.38535
871.41        76.58556
871.81        77.14983
872.22        76.91093
872.62        76.05646
873.02        74.93054
873.42        74.13162
873.82        73.86515
874.22        73.99548
874.63        74.30729
875.03        74.45904
875.43        74.36662
875.83        74.14761
876.23        74.01697
876.63         74.3101
877.03        75.06184
877.44        76.06423
877.84        77.05363
878.24        77.51561
878.64        77.34089
879.04         76.7468
879.44        75.95924
879.84        75.30608
880.24        74.89831
880.64        74.61639
881.04        74.55296
881.44        74.85429
881.84        75.50424
882.24        76.49494
882.65        77.42729
883.05        77.73109
883.45        77.23358
883.85        76.16105
884.25        75.02856
884.65        74.62932
885.05        75.11784
885.45        76.19263
885.85        77.52391
886.25        78.54202
886.65        78.99634
887.05        79.06576
887.45        78.66689
887.85        77.68526
888.25        76.27769
888.65        74.60059
889.04        73.07373
889.44        72.31567
889.84         72.3598
890.24        73.07893
890.64        74.21923
891.04        75.18517
891.44        75.69901
891.84        75.89373
892.24        75.89861
892.64        75.93513
893.04        76.07849
893.44        76.22878
893.83        76.42345
894.23        76.67066
894.63        76.98369
895.03        77.36795
895.43        77.74007
895.83        77.95793
896.23        77.98687
896.63        77.83944
897.02        77.58994
897.42        77.42983
897.82        77.38296
898.22        77.43255
898.62        77.44184
899.01         77.1906
899.41        76.64524
899.81        75.90964
900.21        75.22926
900.61        74.97192
901.00        75.19646
901.40        75.77423
901.80        76.42476
902.20        76.68948
902.59        76.44463
902.99        75.83514
903.39         75.0902
903.79          74.547
904.18        74.31213
904.58        74.32913
904.98        74.47794
905.38        74.59319
905.77        74.59908
906.17        74.52398
906.57        74.49246
906.96        74.72645
907.36        75.21124
907.76        75.89832
908.15        76.47296
908.55        76.29697
908.95        75.35381
909.34         73.8716
909.74        72.48953
910.14        72.04613
910.53        72.75438
910.93         74.3017
911.33        76.27019
911.72        77.99155
912.12        79.11949
912.52        79.81658
912.91        80.17875
913.31        80.36994
913.70        80.46407
914.10        80.33612
914.49        79.94405
914.89        79.24618
915.29        78.30717
915.68        77.25188
916.08        76.30563
916.47        75.63977
916.87         75.3671
917.26        75.40955
917.66        75.73325
918.05        76.29472
918.45        76.97006
918.84        77.78033
919.24        78.49585
919.64        78.89024
920.03        78.90487
920.42         78.5709
920.82        78.07189
921.21        77.61231
921.61        77.28897
922.00        77.07468
922.40        76.98109
922.79        77.10808
923.19        77.41008
923.58        77.87939
923.98        78.36639
924.37        78.63577
924.77        78.63038
925.16        78.42246
925.55        78.10168
925.95        77.83855
926.34        77.71152
926.74        77.63995
927.13        77.63358
927.52        77.66982
927.92        77.73431
928.31        77.83749
928.70        77.89528
929.10        77.74638
929.49        77.36909
929.89        76.76254
930.28        76.12582
930.67        75.73024
931.07        75.65453
931.46        75.85588
931.85        76.12498
932.24        76.13969
932.64        75.86448
933.03        75.43274
933.42         75.0818
933.82        75.19398
934.21        75.87213
934.60         76.8912
934.99        78.07243
935.39        79.11503
935.78        79.92793
936.17        80.55287
936.56        80.72903
936.96        80.09856
937.35        78.72215
937.74        76.81757
938.13        75.02411
938.53        74.14206
938.92        74.26462
939.31        75.25405
939.70        76.62941
940.09        77.42899
940.49        77.31747
940.88        76.55466
941.27         75.6382
941.66        75.33568
942.05        75.81526
942.44         76.8696
942.84        77.96445
943.23        78.25208
943.62        77.46195
944.01        75.90414
944.40        74.33405
944.79        73.83067
945.18        74.61171
945.57         76.3894
945.97        78.34565
946.36        79.29619
946.75        78.79018
947.14        77.20919
947.53          75.434
947.92        74.79992
948.31        75.62119
948.70         77.5285
949.09         79.6802
949.48        80.56958
949.87        79.77478
950.26        77.80994
950.65        75.64676
951.04        74.62061
951.43        75.01905
951.82        76.47243
952.21        78.22308
952.60        78.89586
952.99        78.09895
953.38        76.31986
953.77        74.45419
954.16        73.66424
954.55        74.19149
954.94        75.78461
955.33         77.7223
955.72        78.47218
956.11         77.5346
956.50         75.4524
956.89        73.36894
957.28        72.77908
957.66         73.9981
958.05        76.51312
958.44        79.42644
958.83        80.90191
959.22        80.32446
959.61        78.37169
960.00        76.03162
960.39        74.53979
960.78         74.1411
961.16        74.46669
961.55        75.10481
961.94        75.38142
962.33        75.04644
962.72        74.46545
963.11        73.81181
963.49        73.24966
963.88        72.85374
964.27        72.50097
964.66         72.3622
965.04        72.82856
965.43         73.8433
965.82         75.3194
966.21        76.80984
966.60        77.48449
966.98        77.16259
967.37        76.18351
967.76        74.97085
968.15        74.09975
968.53        73.70528
968.92        73.53621
969.31        73.71774
969.69        74.48807
970.08         75.7578
970.47        77.63093
970.86        79.33461
971.24        79.53757
971.63        77.99586
972.02        75.14695
972.40        72.33722
972.79        71.67713
973.17         73.4957
973.56        77.04761
973.95        81.03882
974.33        83.02794
974.72        82.19595
975.11        79.39379
975.49        75.87156
975.88        73.86393
976.26        73.97813
976.65        75.49702
977.04        77.76504
977.42        79.58013
977.81        80.26297
978.19        80.27637
978.58         79.8231
978.96        79.08691
979.35        78.28091
979.74        77.35424
980.12        76.48063
980.51        75.97597
980.89        76.00316
981.28        76.32909
981.66         77.1887
982.05        78.61795
982.43        80.61822
982.82         83.0884
983.20        85.14104
983.59        85.13966
983.97        82.86865
984.35        78.89592
984.74        74.89433
985.12        73.20578
985.51        74.20729
985.89        77.32177
986.28        81.01768
986.66        83.07043
987.04        82.62782
987.43        80.37373
987.81        77.36154
988.20        75.71766
988.58        76.03108
988.96        77.71432
989.35        79.54922
989.73        79.82364
990.12        78.08179
990.50        75.09658
990.88        71.95113
991.27        70.33848
991.65        70.66779
992.03        72.38416
992.42        74.86337
992.80        77.49551
993.18        79.86772
993.56         82.1636
993.95        84.02554
994.33        84.95328
994.71        84.72449
995.10        83.52305
995.48        81.84598
995.86         80.5638
996.24        79.93328
996.63        79.67264
997.01        79.89951
997.39        80.51686
997.77        81.37409
998.15        82.53895
998.54        83.48664
998.92        83.39202
999.30         82.1188
999.68        79.85044
1000.06        77.38976
1000.45        76.28674
1000.83        77.08282
1001.21        79.29574
1001.59        82.14139
1001.97        84.27789
1002.35        85.24319
1002.73        85.44778
1003.12        85.04214
1003.50        84.18621
1003.88        83.13211
1004.26        81.83958
1004.64        80.76603
1005.02        80.74682
1005.40        81.85427
1005.78        83.70726
1006.16         85.7747
1006.54        87.31464
1006.92        88.13071
1007.30        88.45174
1007.69        88.06631
1008.07        86.83286
1008.45        84.78355
1008.83        82.01195
1009.21        79.36521
1009.59        78.22462
1009.97        78.89217
1010.35        81.01389
1010.73        83.71349
1011.11        85.44467
1011.49        85.74019
1011.86        85.11192
1012.24        83.79987
1012.62          82.421
1013.00        81.20212
1013.38        79.85954
1013.76          78.653
1014.14        78.21706
1014.52        78.68496
1014.90        79.94515
1015.28        81.26978
1015.66        81.41507
1016.04        80.12366
1016.41        77.84612
1016.79        75.16142
1017.17         73.4547
1017.55        73.28088
1017.93        74.09464
1018.31        75.56057
1018.69        77.61169
1019.06        80.50298
1019.44        84.56115
1019.82        89.91165
1020.20        94.79277
1020.58        97.08964
1020.95        96.41731
1021.33        94.11823
1021.71        91.81771
1022.09        89.66676
1022.46        87.06873
1022.84         83.6053
1023.22        78.76909
1023.60        73.80724
1023.97        70.11805
1024.35        68.31817
1024.73          68.451
