SpectraSmart Spectrum 2.9.0.0
--------- Device Information -----------
Spectrum Name :  反射率_0
Saving Time :  2024/04/30 00:21:07
Spectro-Module Model Name : SE2030-DUVN
Spectro-Module Serial Number : OS361AC55029948
Wavelength Start : 200
Wavelength End : 1025
Wavelength Unit : Wavelength(nm)
Spectrum Unit : Reflectance(%)
-----------Spectrum Setting ------------
Integration Time : 20ms
Average : 10
Boxcar : 0
Background removal :  enabled
linearity correction :  enabled
SC :  disabled
Intensity correction :  disabled
DWT denoise :  enabled
savitzky-golay :  disabled
FFT :  disabled
Running average :  disabled
Kalman :  disabled
High pass :  disabled
---------------BEGIN--------------------
Wavelength(nm)             Reflectance(%)
200.29               0
200.75         101.974
201.21        76.51633
201.67        49.22135
202.13        32.00729
202.58        30.36767
203.04        43.13947
203.50        65.46149
203.96        84.82489
204.42        94.01485
204.88        94.32851
205.34        89.29032
205.80        85.78591
206.26        85.29892
206.72        85.38048
207.18        83.74196
207.64        78.23496
208.10        68.88834
208.55        56.28257
209.01        43.26521
209.47        37.94359
209.93        42.06217
210.39        51.39899
210.85        60.00913
211.31        62.92279
211.77         59.6465
212.23        50.17928
212.69         36.1861
213.14          29.134
213.60        34.98836
214.06        47.45953
214.52        58.40646
214.98        62.63358
215.44        61.11451
215.90        56.11251
216.36        50.42292
216.81        49.25756
217.27        55.45039
217.73        69.02287
218.19        88.88907
218.65        104.8527
219.11        108.2053
219.57        101.5719
220.02         92.3878
220.48        86.64371
220.94        83.67902
221.40        81.75714
221.86        78.27353
222.32        69.67969
222.77        58.64192
223.23        50.12749
223.69        45.35027
224.15        43.90495
224.61        44.76966
225.06        47.28417
225.52        50.96727
225.98        53.78944
226.44        54.71924
226.90        54.50404
227.36        53.68185
227.81        52.62907
228.27        51.43832
228.73        49.78455
229.19        48.17682
229.65        47.78975
230.10        48.70932
230.56        50.42953
231.02         51.8518
231.48        51.98911
231.93         50.8503
232.39        48.85615
232.85        46.76543
233.31         46.0927
233.77         47.2808
234.22        49.99052
234.68        53.15924
235.14        54.81073
235.60        54.42105
236.05        52.67632
236.51        50.83276
236.97        50.53229
237.43        52.26968
237.88        55.99164
238.34        61.31921
238.80        66.76103
239.26        70.59503
239.71        72.87241
240.17        73.64716
240.63        73.90109
241.08        74.27226
241.54        74.08817
242.00        74.15644
242.46        77.28104
242.91        85.40626
243.37        96.74442
243.83        106.8815
244.28        113.0114
244.74        115.5623
245.20        114.1437
245.66        111.2301
246.11        112.8556
246.57        121.4165
247.03        137.3426
247.48        152.4255
247.94        149.0069
248.40        129.8588
248.85        106.7932
249.31        91.12656
249.77        87.29042
250.22        94.29292
250.68        112.7735
251.14        141.8162
251.59          156.69
252.05        141.4432
252.51        116.2988
252.96        97.06319
253.42        88.32058
253.88        86.26771
254.33        87.42475
254.79         90.2905
255.25        91.67008
255.70         90.4305
256.16        88.69045
256.62        86.92117
257.07        85.13069
257.53        83.69632
257.99        82.20658
258.44         80.2118
258.90        78.17426
259.35        75.96516
259.81        74.13872
260.27        72.80335
260.72         72.0657
261.18        71.94627
261.63        71.89085
262.09         71.6152
262.55        70.36067
263.00        68.17751
263.46        65.75113
263.91        63.33056
264.37        61.55304
264.83        60.32696
265.28        59.36248
265.74        58.67558
266.19        58.04272
266.65         57.4785
267.11        56.99465
267.56         56.4591
268.02        55.68899
268.47        54.61543
268.93        53.27335
269.38        51.82189
269.84        50.68289
270.30        49.94922
270.75        49.50968
271.21         49.1235
271.66        48.36987
272.12        47.18302
272.57        45.67262
273.03          44.109
273.48        42.82917
273.94        41.99225
274.39          41.425
274.85        41.00863
275.31        40.47797
275.76        39.75315
276.22         38.9667
276.67        38.16108
277.13        37.50913
277.58         36.9798
278.04        36.54958
278.49        36.10763
278.95        35.61789
279.40        35.02077
279.86        34.43019
280.31        33.81929
280.77        33.27909
281.22        32.78787
281.68         32.3567
282.13        32.01097
282.59        31.85082
283.04        31.84111
283.50        31.95941
283.95        32.04549
284.41        31.87911
284.86        31.42527
285.32        30.81258
285.77        30.19229
286.22         29.8655
286.68        29.88839
287.13        30.11399
287.59        30.43373
288.04        30.61345
288.50        30.61091
288.95        30.47247
289.41         30.2649
289.86        30.03112
290.32        29.83427
290.77        29.66485
291.22        29.56289
291.68        29.58574
292.13        29.74262
292.59        30.06131
293.04        30.56775
293.50        31.32798
293.95        32.33651
294.40        33.58104
294.86        34.95376
295.31        36.29957
295.77        37.56762
296.22        38.76896
296.68        40.00841
297.13        41.43063
297.58        43.06479
298.04        44.82722
298.49        46.58257
298.95        48.13664
299.40        49.44834
299.85        50.60606
300.31        51.75179
300.76        53.02061
301.21        54.48864
301.67        56.12306
302.12         57.8437
302.58        59.67751
303.03        61.56366
303.48        63.44079
303.94         65.2892
304.39        67.37795
304.84        69.11541
305.30         70.9727
305.75        72.73538
306.20        74.42704
306.66        76.05989
307.11        77.57781
307.57        79.03685
308.02         80.3963
308.47        81.70345
308.93         82.9711
309.38        84.18678
309.83        85.40925
310.29        86.64083
310.74        87.84836
311.19        88.95453
311.65        89.82671
312.10        90.43687
312.55        90.85559
313.00        91.24955
313.46        91.88038
313.91        92.78297
314.36         93.8776
314.82        94.99663
315.27        95.89648
315.72        96.47799
316.18        96.81363
316.63        96.96928
317.08        97.06644
317.53        97.17277
317.99        97.29212
318.44         97.4126
318.89         97.5322
319.35        97.66012
319.80         97.8099
320.25        98.07905
320.70        98.61177
321.16        99.38223
321.61        100.3712
322.06         101.327
322.51        101.8553
322.97        101.8588
323.42        101.4648
323.87        100.9272
324.32        100.6797
324.78        100.8279
325.23        101.3179
325.68        101.9681
326.13        102.4674
326.59         102.695
327.04        102.7741
327.49        102.8328
327.94        103.1249
328.39        103.6948
328.85         104.392
329.30        105.0877
329.75        105.3762
330.20        105.1693
330.66        104.6084
331.11        103.9604
331.56        103.5698
332.01        103.5773
332.46        103.9046
332.92        104.4592
333.37        105.2177
333.82         106.059
334.27        106.9833
334.72         107.918
335.17        108.7435
335.63        109.3842
336.08        109.8979
336.53        110.2235
336.98        110.3587
337.43        110.3352
337.88        110.1677
338.34        110.0132
338.79        110.1337
339.24        110.5806
339.69        111.3237
340.14        112.1497
340.59        112.6779
341.05        112.8285
341.50        112.7142
341.95        112.5819
342.40        112.8476
342.85        113.5862
343.30        114.6193
343.75        115.7033
344.20        116.4541
344.66        116.7766
345.11        116.8173
345.56        116.6643
346.01        116.4523
346.46        116.2702
346.91        116.0719
347.36        116.0173
347.81        116.3549
348.26        117.0892
348.72        118.1314
349.17        119.2038
349.62        119.7543
350.07        119.6543
350.52        119.0894
350.97        118.3685
351.42        117.9721
351.87        118.0353
352.32        118.4053
352.77         118.963
353.22        119.5196
353.67        119.9648
354.13        120.3166
354.58        120.5177
355.03        120.4684
355.48        120.1436
355.93        119.5568
356.38        118.7377
356.83        117.7479
357.28        116.6486
357.73        115.4797
358.18        114.3406
358.63        113.3677
359.08        112.5967
359.53        112.0001
359.98        111.5179
360.43        111.0414
360.88        110.5247
361.33        109.9842
361.78        109.4075
362.23        108.7812
362.68         108.108
363.13        107.3862
363.58        106.6419
364.03        105.9241
364.48        105.2471
364.93        104.5995
365.38        103.9803
365.83        103.3875
366.28        102.8148
366.73        102.2617
367.18        101.7009
367.63        101.0848
368.08        100.4001
368.53        99.65881
368.98        98.89293
369.43        98.15251
369.88        97.47098
370.33        96.86469
370.78         96.3147
371.23        95.79153
371.68        95.27971
372.13        94.74807
372.58        94.27462
373.03        93.98436
373.48        93.86256
373.93         93.8595
374.38        93.72068
374.83         93.0452
375.28        91.80753
375.72        90.16637
376.17        88.56873
376.62        87.50463
377.07        87.06841
377.52        87.08346
377.97        87.32085
378.42        87.40063
378.87        87.18838
379.32        86.79607
379.77        86.28325
380.22        85.73149
380.67        85.17311
381.11        84.56517
381.56        83.93426
382.01        83.36288
382.46        82.88725
382.91        82.52087
383.36        82.22607
383.81        81.92345
384.26        81.58766
384.71        81.22443
385.15        80.86456
385.60        80.61847
386.05        80.46857
386.50        80.37421
386.95        80.23557
387.40        79.90818
387.85        79.38921
388.29        78.70763
388.74         78.0779
389.19        77.58252
389.64        77.23816
390.09        76.97959
390.54        76.78297
390.98        76.60149
391.43        76.44575
391.88        76.30898
392.33        76.10237
392.78        75.77747
393.23        75.33448
393.67        74.63648
394.12        73.88389
394.57        73.79152
395.02        73.37184
395.47        73.63407
395.91        74.08432
396.36        74.18978
396.81        73.87124
397.26        73.38503
397.71        72.89152
398.15        72.48679
398.60        72.29805
399.05        72.26241
399.50        72.28585
399.95        72.24241
400.39        71.88106
400.84        71.93583
401.29        72.22889
401.74        72.19966
402.18        71.80872
402.63        71.33243
403.08        70.95347
403.53        70.80108
403.97         70.9016
404.42        71.20703
404.87          71.522
405.32        71.50233
405.76         71.0736
406.21        70.46684
406.66        69.84402
407.11        69.28493
407.55         68.9807
408.00        69.22682
408.45        69.87511
408.90        70.34331
409.34        70.44907
409.79        70.25079
410.24         69.9157
410.68        69.81057
411.13        69.98968
411.58         70.2394
412.03        70.43699
412.47        70.47676
412.92        70.29218
413.37        69.96181
413.81        69.56762
414.26        69.30192
414.71        69.17712
415.15        69.15952
415.60         69.1963
416.05        69.24637
416.49          69.294
416.94        69.35286
417.39        69.40775
417.83        69.41895
418.28        69.38334
418.73        69.29353
419.17        69.20422
419.62        69.22347
420.07        69.35686
420.51        69.56194
420.96        69.76105
421.41        69.78474
421.85        69.59087
422.30        69.32267
422.74        69.03818
423.19        68.88039
423.64        68.86092
424.08        69.04607
424.53        69.37704
424.98        69.50153
425.42        69.76122
425.87        69.97717
426.31        70.21596
426.76        70.09029
427.21        69.60167
427.65        69.77253
428.10        70.38361
428.54        70.47114
428.99        70.03718
429.44        69.46571
429.88        68.99409
430.33        69.06059
430.77        69.50324
431.22        70.00801
431.66        70.41978
432.11        70.22916
432.56        69.57157
433.00        69.62636
433.45        70.59352
433.89        70.60417
434.34        70.79887
434.78        72.21315
435.23        70.65204
435.67        70.03769
436.12        69.37428
436.57        69.47229
437.01          70.206
437.46        70.64741
437.90        70.76236
438.35        71.19962
438.79        71.87202
439.24         72.1618
439.68        72.08602
440.13        72.08208
440.57        72.15567
441.02        72.12061
441.46        71.98032
441.91        71.80958
442.35        71.61526
442.80        71.82784
443.24        72.28849
443.69        72.30473
444.13        71.89666
444.58        71.76333
445.02        71.88027
445.47        71.88971
445.91        71.79173
446.36        71.79745
446.80        71.89468
447.24        72.05296
447.69        72.23539
448.13        72.33295
448.58        72.35909
449.02        72.37778
449.47        72.43398
449.91        72.50475
450.36         72.6085
450.80        72.74269
451.25        72.88297
451.69        72.94305
452.13        72.91958
452.58        72.86987
453.02        72.81092
453.47         72.7851
453.91         72.7945
454.36        72.91579
454.80        72.81934
455.24        73.08814
455.69          73.495
456.13        73.43173
456.58        73.00076
457.02        72.79136
457.46        72.84874
457.91        72.85177
458.35         72.7429
458.79        72.63659
459.24         72.5577
459.68        72.50895
460.13         72.5278
460.57        72.34961
461.01        72.50359
461.46        72.33297
461.90        72.17908
462.34        72.36979
462.79         72.7843
463.23        72.62247
463.68         71.9277
464.12        71.58618
464.56        71.66993
465.01         71.2219
465.45        71.10699
465.89        71.19232
466.34        71.53584
466.78        72.03393
467.22        71.46599
467.67        71.38634
468.11        71.47215
468.55         71.3511
468.99        71.05935
469.44        70.85477
469.88        70.77573
470.32        70.75794
470.77        70.76591
471.21        70.76274
471.65         70.7205
472.10        70.67657
472.54         70.6478
472.98        70.68084
473.42        70.76913
473.87        70.93712
474.31        71.10725
474.75        71.06333
475.20        70.85104
475.64        70.84285
476.08        71.05654
476.52        70.89883
476.97        70.28022
477.41          70.422
477.85        70.34098
478.29        69.38554
478.74         70.5013
479.18         70.7934
479.62        69.80892
480.06        69.66985
480.50        69.95286
480.95        69.89716
481.39        70.60435
481.83        69.73491
482.27        70.44043
482.72        70.71806
483.16        70.54595
483.60        70.66101
484.04        70.81641
484.48        71.04963
484.93        71.16669
485.37        70.82632
485.81        70.31771
486.25        69.29893
486.69        70.14825
487.14        70.11115
487.58        69.50582
488.02        70.13953
488.46        70.47391
488.90        70.70863
489.34        69.73466
489.79        70.47547
490.23        70.21848
490.67        70.45927
491.11        70.40121
491.55        70.10725
491.99        69.69101
492.43        69.51421
492.88        69.63051
493.32         69.8239
493.76        70.02692
494.20         70.2357
494.64        70.40712
495.08        70.59286
495.52        70.74628
495.96        70.65845
496.41         70.3974
496.85        70.42368
497.29         70.2949
497.73        70.51569
498.17         70.1478
498.61        69.98876
499.05        69.84319
499.49        69.82221
499.93        69.88049
500.37        69.79771
500.82        69.61821
501.26        69.60146
501.70        69.75454
502.14        69.92229
502.58        70.06119
503.02        70.16887
503.46        70.23012
503.90        70.24487
504.34        70.23077
504.78        70.22507
505.22        70.23838
505.66        70.24351
506.10        70.22827
506.54        70.25384
506.98        70.33174
507.42        70.31235
507.86        70.11581
508.30        70.40567
508.74        69.89468
509.18        69.64682
509.62        69.38161
510.06        69.29105
510.50        69.39566
510.94        69.65826
511.38         69.9734
511.82        70.12772
512.26        70.07139
512.70        69.86992
513.14        69.62112
513.58         69.4767
514.02        69.47868
514.46        69.57525
514.90        69.71664
515.34        69.82626
515.78        69.87349
516.22        69.88226
516.66        69.86654
517.10        69.84235
517.54        69.81752
517.98        69.78607
518.42        69.73843
518.86        69.66518
519.30        69.57035
519.74        69.46254
520.18        69.37706
520.62        69.36159
521.06         69.4272
521.50        69.56877
521.93        69.73929
522.37        69.83691
522.81        69.84651
523.25        69.78156
523.69        69.71628
524.13        69.77103
524.57        69.95881
525.01        70.23265
525.45        70.48061
525.89         70.5219
526.32        70.31358
526.76        69.95034
527.20        69.54446
527.64        69.27145
528.08        69.18026
528.52        69.21585
528.96         69.3318
529.40        69.45301
529.83        69.53972
530.27        69.62162
530.71        69.67693
531.15        69.67544
531.59        69.61634
532.03        69.50348
532.46        69.36087
532.90        69.26309
533.34        69.22131
533.78        69.22238
534.22        69.25088
534.66        69.27853
535.09        69.28928
535.53         69.3074
535.97        69.32074
536.41        69.32487
536.85        69.31716
537.28        69.28788
537.72        69.24916
538.16        69.21651
538.60        69.19273
539.04        69.18008
539.47        69.13708
539.91        69.07626
540.35        68.98341
540.79        68.84921
541.22        68.70164
541.66        68.73848
542.10        68.74174
542.54         68.8727
542.97        69.01516
543.41        69.11691
543.85        69.15104
544.29        69.15382
544.72        69.11805
545.16        69.06398
545.60        69.00201
546.04        68.89951
546.47        68.79868
546.91        68.91602
547.35        69.23264
547.79        69.41927
548.22        69.37005
548.66        69.79864
549.10        69.83766
549.53        69.83408
549.97        69.45557
550.41        70.03092
550.84        69.47181
551.28        69.36903
551.72        69.11131
552.15        69.28976
552.59        69.05246
553.03        69.09888
553.46        69.16033
553.90        69.21816
554.34        69.24592
554.77         69.2673
555.21        69.29277
555.65        69.29021
556.08        69.26358
556.52        69.26763
556.96        69.29427
557.39         69.3731
557.83        69.49496
558.27        69.52756
558.70         69.5136
559.14         69.6315
559.57         69.8207
560.01        69.99569
560.45        70.10036
560.88        69.82355
561.32         69.6024
561.75        69.52523
562.19         69.6931
562.63        69.61136
563.06        69.30133
563.50        69.34029
563.93        69.70046
564.37        69.43048
564.80        69.62881
565.24        69.49472
565.68        69.39375
566.11        69.37412
566.55        69.45699
566.98        69.47881
567.42        69.47584
567.85        69.51012
568.29        69.59283
568.72        69.73938
569.16        70.03244
569.60        69.84938
570.03        69.99414
570.47         70.1813
570.90        70.34028
571.34        69.68434
571.77        70.18388
572.21        70.14397
572.64        70.13078
573.08        70.15409
573.51        69.89273
573.95        70.11878
574.38        70.13646
574.82        70.04774
575.25        70.07935
575.69         70.0464
576.12        69.69276
576.56        69.62983
576.99        69.31376
577.42        69.64027
577.86        69.44538
578.29         69.6227
578.73        70.14618
579.16        69.49072
579.60        69.51443
580.03        69.59078
580.47        70.22294
580.90        70.07117
581.33        69.32483
581.77        69.63233
582.20        69.56605
582.64        70.01997
583.07        69.63132
583.51        69.40959
583.94        69.30781
584.37        69.08433
584.81        69.00546
585.24        69.39651
585.68        69.54749
586.11        70.48981
586.54        69.64713
586.98        68.99113
587.41        69.69293
587.85         70.0601
588.28        70.55827
588.71        70.61048
589.15        69.55592
589.58        69.98142
590.01        69.45126
590.45        69.60297
590.88        69.78214
591.31        70.12638
591.75        70.33133
592.18        70.41962
592.61        70.65924
593.05        69.15313
593.48        69.95757
593.91        70.66862
594.35        69.43881
594.78         69.2122
595.21        69.44109
595.65        69.86661
596.08        69.33141
596.51        69.32773
596.94        70.01135
597.38         70.1235
597.81        69.73328
598.24        69.80243
598.68        69.63501
599.11        69.28139
599.54        70.30907
599.97        70.71212
600.41        69.11464
600.84        69.73563
601.27        69.90576
601.70        69.70589
602.14        70.36494
602.57        69.93904
603.00        69.21547
603.43        69.07724
603.87        69.32935
604.30        69.80269
604.73        69.48063
605.16        69.42448
605.60        69.37744
606.03        69.68089
606.46        70.12669
606.89        70.13914
607.32        69.76173
607.76        69.64123
608.19        69.86965
608.62        69.87135
609.05        69.83659
609.48        70.05669
609.92        69.92245
610.35         70.0138
610.78        70.36051
611.21        69.78539
611.64        69.91968
612.07         70.1824
612.50        69.91333
612.94        70.02101
613.37        70.32299
613.80          69.911
614.23        70.34299
614.66        70.28584
615.09        70.22545
615.52        70.29406
615.96        70.43669
616.39        70.30598
616.82        69.94675
617.25        69.83717
617.68        69.78214
618.11        69.94159
618.54        70.13492
618.97        70.00265
619.40        69.62457
619.84        69.52908
620.27        69.80662
620.70        70.11343
621.13        70.26302
621.56        70.35535
621.99        70.02113
622.42         69.3765
622.85         70.3482
623.28        69.92051
623.71         70.6605
624.14        69.21471
624.57        70.01991
625.00        69.85037
625.43         69.8567
625.86        69.70029
626.29        69.60233
626.72        69.98103
627.15        69.74517
627.58        69.94642
628.01        70.17579
628.44        70.01938
628.87        69.59689
629.30        69.68456
629.73        70.22723
630.16        70.41478
630.59        70.19611
631.02         70.1834
631.45        70.10107
631.88        70.06669
632.31        69.99731
632.74        69.93829
633.17        69.87919
633.60         69.8129
634.03        69.74083
634.46        69.65327
634.89        69.56619
635.32        69.51661
635.75        69.50887
636.18        69.52373
636.61        69.54506
637.04        69.56153
637.47         69.5831
637.89        69.57085
638.32        69.49377
638.75         69.5132
639.18        69.66704
639.61        69.23104
640.04        69.47459
640.47        69.42465
640.90        69.46062
641.33        69.55462
641.76        69.67173
642.18        69.73186
642.61        69.68222
643.04        69.56002
643.47        69.44154
643.90        69.42918
644.33        69.53317
644.76        69.80318
645.18        70.11231
645.61        70.06139
646.04        69.56116
646.47        69.48042
646.90        69.72929
647.33        69.71033
647.75        69.40527
648.18        69.14635
648.61        69.02492
649.04        69.09551
649.47        69.32903
649.89        69.58352
650.32        69.74908
650.75        69.81383
651.18        69.81867
651.61        69.79869
652.03        69.85007
652.46        70.15967
652.89        70.51151
653.32        70.46726
653.74        70.19082
654.17        69.35394
654.60        69.49655
655.03        70.42909
655.46        68.55007
655.88        69.78851
656.31        71.91023
656.74        72.71638
657.16        71.42969
657.59        69.48409
658.02        69.17085
658.45        70.78082
658.87         70.8247
659.30        70.58649
659.73        70.57577
660.15        71.20116
660.58        70.91192
661.01        70.74232
661.44        70.26778
661.86        69.91521
662.29        69.74763
662.72        69.92712
663.14        70.30214
663.57        70.00761
664.00        69.24261
664.42        69.03292
664.85        69.44478
665.27        69.86519
665.70        70.14283
666.13        70.35262
666.55        70.45373
666.98        70.41296
667.41        70.29063
667.83        70.18793
668.26        70.12182
668.69        70.08132
669.11        70.08382
669.54        70.07863
669.96        70.04221
670.39        70.28619
670.82         70.3738
671.24        70.23135
671.67        69.83913
672.09        69.77601
672.52        70.02995
672.94        70.19446
673.37        69.71838
673.80        70.12619
674.22        69.87708
674.65        70.03275
675.07        70.18652
675.50        70.38615
675.92        70.56879
676.35        70.64557
676.77        70.61679
677.20        70.42563
677.62        70.18951
678.05        70.21678
678.47        70.45414
678.90        70.67007
679.32        70.52708
679.75        70.47843
680.17        70.42735
680.60        70.23242
681.02        69.97176
681.45        69.86803
681.87         69.9572
682.30        70.16222
682.72        70.42238
683.15         70.5497
683.57        70.55006
684.00        70.57389
684.42        70.61792
684.85        70.63545
685.27        70.64286
685.70        70.52795
686.12         70.3885
686.54        70.77332
686.97        71.50135
687.39         71.7175
687.82        71.37746
688.24           71.23
688.66        71.30772
689.09        71.07254
689.51        70.57318
689.94         70.5864
690.36        70.41969
690.78        70.53824
691.21        70.67635
691.63        70.84781
692.06        70.97936
692.48        70.94913
692.90        70.80737
693.33        70.75098
693.75        70.80531
694.17        70.84692
694.60        70.86558
695.02        70.89001
695.44         70.9085
695.87        70.98949
696.29        71.10822
696.71        71.01559
697.14        70.79498
697.56        70.83527
697.98        71.11528
698.41          71.271
698.83        71.27221
699.25        71.33899
699.68        71.42413
700.10        71.40351
700.52        71.25481
700.94        71.03522
701.37         70.7913
701.79        70.61633
702.21        70.53176
702.64        70.52358
703.06        70.58554
703.48        70.71622
703.90        70.90348
704.33        71.15607
704.75        71.39289
705.17        71.55112
705.59        71.58496
706.01        71.51263
706.44        71.39537
706.86        71.33285
707.28         71.3471
707.70        71.44524
708.12        71.59048
708.55        71.63144
708.97        71.57703
709.39        71.65189
709.81        71.75002
710.23        71.86697
710.66        71.95591
711.08        72.09542
711.50        72.24644
711.92        72.35137
712.34        72.40318
712.76        72.41833
713.19        72.39149
713.61        72.36285
714.03        72.32699
714.45        72.28561
714.87        72.25961
715.29        72.27979
715.71        72.34537
716.13        72.43948
716.56         72.5192
716.98        72.60169
717.40        72.64389
717.82        72.65343
718.24        72.61459
718.66        72.50445
719.08        72.33086
719.50        72.10873
719.92        71.89642
720.34        71.78183
720.76        71.78674
721.19        71.88739
721.61        72.03793
722.03        72.12292
722.45        72.11117
722.87        72.03398
723.29        71.93092
723.71        71.86578
724.13        71.85728
724.55        71.88783
724.97        71.94634
725.39        71.96637
725.81        71.93349
726.23        71.96329
726.65        72.09051
727.07        71.89843
727.49        72.13779
727.91        72.18076
728.33        72.26247
728.75        72.38545
729.17        72.54809
729.59        72.74506
730.01        72.88577
730.43        72.84429
730.85        72.61446
731.27        72.25163
731.69        71.91628
732.10        71.85839
732.52        72.12394
732.94        72.63683
733.36        73.23877
733.78        73.63217
734.20        73.71155
734.62        73.58755
735.04        73.37994
735.46        73.17617
735.88        73.07997
736.30        73.28018
736.72        73.63262
737.13         73.6985
737.55        73.43115
737.97        72.98282
738.39        72.56017
738.81         72.5022
739.23        72.80959
739.65        73.14307
740.06         73.3407
740.48        73.45982
740.90         73.4457
741.32         73.2216
741.74        72.88245
742.16        72.69851
742.57        72.74448
742.99        72.83638
743.41        72.95988
743.83        73.27049
744.25        73.65162
744.67          73.688
745.08        73.42809
745.50        73.32379
745.92        73.42181
746.34        73.44864
746.75        73.40736
747.17        73.43372
747.59        73.52628
748.01        73.64703
748.42         73.7734
748.84        73.83553
749.26        73.82829
749.68         73.7762
750.09        73.67979
750.51        73.57459
750.93        73.46492
751.35        73.35224
751.76        73.27421
752.18        73.28115
752.60        73.37961
753.01        73.56244
753.43        73.76353
753.85        73.90163
754.27        73.96452
754.68        74.00315
755.10        74.02546
755.52        74.04884
755.93        74.05701
756.35        74.00735
756.77         74.0053
757.18        74.11049
757.60        74.31867
758.02        74.95068
758.43        75.66931
758.85        75.18796
759.26        73.82569
759.68         73.4171
760.10        74.03127
760.51        74.42302
760.93        74.46562
761.34        74.63373
761.76         74.8308
762.18        74.86327
762.59        74.69633
763.01        74.10281
763.42        73.33128
763.84        72.97301
764.26        73.14383
764.67        73.51533
765.09        73.93897
765.50        74.37283
765.92        74.79165
766.33        74.56032
766.75        74.76919
767.16        74.72225
767.58         74.6773
768.00        74.37177
768.41        73.95356
768.83        74.29906
769.24        75.11472
769.66        75.03829
770.07        74.17948
770.49        73.76116
770.90        73.91817
771.32        74.26189
771.73        74.65807
772.15        74.78674
772.56        74.60232
772.97        74.58942
773.39         74.3194
773.80        74.35387
774.22        74.53417
774.63        74.88107
775.05         75.2366
775.46        75.44536
775.88        75.42771
776.29        75.27419
776.70         75.0356
777.12        74.81527
777.53        74.66975
777.95        74.56148
778.36        74.52857
778.77        74.61634
779.19        74.81388
779.60        75.13666
780.02        75.47791
780.43        75.71085
780.84        75.77736
781.26        75.69125
781.67        75.55765
782.09        75.53967
782.50        75.67605
782.91        75.91318
783.33        76.11208
783.74        76.07112
784.15        75.75227
784.57        75.26196
784.98        74.76669
785.39        74.51844
785.81        74.59196
786.22        74.90422
786.63        75.36974
787.04        75.85011
787.46        76.27882
787.87        76.65485
788.28        76.95877
788.70        77.14969
789.11        77.21268
789.52        77.18962
789.93        77.08543
790.35        76.86084
790.76        76.58238
791.17        76.38951
791.58         76.3393
792.00        76.35244
792.41        76.44403
792.82        76.74253
793.23         77.1644
793.65        77.30084
794.06        77.22198
794.47         77.4674
794.88        77.91684
795.29        77.98277
795.71        77.61526
796.12        77.15746
796.53        76.79375
796.94        76.73306
797.35        77.05376
797.76        77.69638
798.18        78.40885
798.59        78.82397
799.00        78.81831
799.41        78.50098
799.82        78.03832
800.23        77.72361
800.64        77.65206
801.06        77.70184
801.47        77.85135
801.88        77.98069
802.29        78.04181
802.70        78.08158
803.11        78.08144
803.52        77.99529
803.93        77.83445
804.34        77.60992
804.75        77.38856
805.17        77.32449
805.58        77.48322
805.99        77.68651
806.40        77.89316
806.81        78.32409
807.22        78.80939
807.63        78.70317
808.04        78.13558
808.45        77.93427
808.86         78.1919
809.27        78.47727
809.68        78.64924
810.09        78.67075
810.50        78.49996
810.91        78.15823
811.32        77.81512
811.73        77.73473
812.14        77.97309
812.55          78.458
812.96        79.00243
813.37        79.25867
813.78        79.13068
814.19        78.74281
814.60        78.27335
815.01        77.97401
815.42        77.90819
815.83         77.9901
816.24        78.16322
816.65        78.32112
817.05         78.4089
817.46        78.43165
817.87        78.39971
818.28         78.2568
818.69        78.01405
819.10        77.69331
819.51        77.38391
819.92        77.26092
820.33        77.37456
820.74        77.65838
821.14        78.05556
821.55        78.48663
821.96        78.89667
822.37        79.30408
822.78        79.61043
823.19         79.6458
823.60        79.38005
824.00        78.86008
824.41        78.25636
824.82        77.87545
825.23        77.79182
825.64        77.94608
826.04        78.22319
826.45        78.31413
826.86        78.17288
827.27        77.90615
827.68        77.63784
828.08        77.58105
828.49        77.74841
828.90        78.09451
829.31        78.58034
829.72         79.1452
830.12        79.76699
830.53        80.35994
830.94        80.89813
831.35         81.2942
831.75        81.53112
832.16        81.53133
832.57        81.32621
832.97         80.9474
833.38        80.45583
833.79        79.94277
834.20        79.45169
834.60        79.00467
835.01        78.65718
835.42        78.37637
835.82        78.32093
836.23        78.66646
836.64        79.43231
837.04        80.57995
837.45        81.65627
837.86        82.07313
838.26        81.68536
838.67        80.67223
839.08        79.47241
839.48        78.75755
839.89        78.74292
840.29        79.22459
840.70         79.9363
841.11        80.45554
841.51        80.66492
841.92        80.65675
842.33        80.56026
842.73        80.56716
843.14         80.6819
843.54        80.85699
843.95        81.01408
844.35        81.11397
844.76        81.11365
845.17        81.03174
845.57        80.92249
845.98        80.82542
846.38        80.77633
846.79        80.75941
847.19        80.70129
847.60         80.4254
848.00        79.94564
848.41        79.34652
848.81        78.83902
849.22        78.72955
849.62        79.10747
850.03        79.81884
850.43        80.72372
850.84        81.34641
851.24        81.59452
851.65        81.47514
852.05        81.12957
852.46        80.74684
852.86        80.39857
853.27        80.12096
853.67        79.80134
854.07        79.48144
854.48        79.10771
854.88        78.73183
855.29        78.36079
855.69        78.24563
856.10        78.33811
856.50        78.67214
856.90        79.03762
857.31        79.17106
857.71        79.06075
858.12         78.7356
858.52        78.37327
858.92        78.21227
859.33        78.29929
859.73        78.60796
860.13        79.00034
860.54        79.26785
860.94        79.39351
861.34        79.34809
861.75        79.16012
862.15        78.94255
862.55        78.70032
862.96        78.45456
863.36        78.09209
863.76        77.45658
864.17        76.59272
864.57        75.60715
864.97        74.77886
865.38        74.47368
865.78         74.7916
866.18        75.60455
866.58        76.69131
866.99        77.55544
867.39        78.03601
867.79        78.20841
868.19        78.11593
868.60        77.84261
869.00        77.46551
869.40        76.94528
869.80        76.51984
870.21        76.60201
870.61        77.29158
871.01        78.41486
871.41        79.55481
871.81        80.03657
872.22        79.68843
872.62        78.70944
873.02        77.42645
873.42        76.40141
873.82         75.8592
874.22        75.70926
874.63        75.78653
875.03        75.82392
875.43        75.74852
875.83        75.62663
876.23         75.6869
876.63        76.28265
877.03        77.41969
877.44        78.88479
877.84        80.23357
878.24        80.66514
878.64        80.04811
879.04        78.70431
879.44        77.17146
879.84        76.23871
880.24        76.09267
880.64        76.47185
881.04        77.17977
881.44         77.8746
881.84        78.40523
882.24        78.91194
882.65        79.21257
883.05        79.13255
883.45        78.63052
883.85        77.78809
884.25        76.99589
884.65        76.87971
885.05         77.5245
885.45        78.68142
885.85        80.01492
886.25          80.924
886.65        81.18162
887.05        81.00737
887.45        80.34792
887.85        79.15607
888.25        77.62711
888.65        75.88404
889.04        74.44361
889.44        74.06971
889.84        74.78896
890.24        76.44404
890.64        78.49281
891.04        79.75054
891.44         79.7809
891.84        78.93012
892.24        77.76831
892.64        77.09821
893.04        77.09905
893.44        77.50678
893.83        78.13705
894.23        78.59532
894.63        78.78115
895.03        78.86562
895.43        78.90629
895.83        78.96258
896.23         79.0557
896.63        79.08863
897.02        79.11909
897.42        79.33201
897.82        79.70901
898.22        80.23815
898.62        80.64155
899.01        80.45949
899.41        79.63284
899.81         78.3532
900.21        77.08606
900.61        76.54433
901.00        76.86765
901.40        77.82446
901.80        78.98992
902.20        79.64911
902.59        79.58472
902.99        79.01841
903.39        78.20953
903.79        77.54757
904.18        77.16315
904.58        76.95975
904.98        76.87103
905.38        76.82869
905.77        76.78014
906.17        76.76612
906.57        76.80657
906.96        76.93934
907.36        77.12804
907.76        77.37951
908.15        77.58013
908.55        77.43072
908.95        76.97118
909.34        76.29066
909.74        75.75978
910.14        75.81086
910.53        76.55232
910.93        77.78836
911.33        79.27029
911.72        80.61168
912.12        81.56373
912.52        82.21671
912.91        82.60696
913.31        82.79086
913.70        82.81679
914.10        82.62678
914.49        82.21985
914.89        81.59723
915.29        80.82726
915.68        79.99062
916.08        79.28485
916.47        78.85434
916.87        78.78177
917.26        78.97236
917.66        79.36208
918.05        79.86546
918.45        80.35083
918.84        80.86956
919.24        81.20264
919.64        81.15346
920.03        80.71279
920.42        79.94079
920.82        79.11478
921.21        78.55915
921.61         78.3812
922.00         78.5154
922.40        78.85853
922.79        79.30753
923.19        79.74701
923.58        80.20774
923.98        80.60479
924.37        80.82573
924.77        80.83699
925.16        80.64638
925.55        80.32497
925.95        80.01054
926.34        79.78782
926.74        79.65262
927.13        79.55756
927.52        79.37752
927.92         79.1029
928.31        78.74139
928.70        78.46996
929.10        78.55116
929.49        79.01096
929.89        79.72453
930.28        80.38396
930.67        80.38195
931.07        79.61429
931.46        78.34245
931.85        76.98055
932.24         76.1391
932.64        75.99414
933.03        76.39467
933.42        77.17815
933.82         78.0275
934.21         78.8009
934.60        79.48408
934.99        80.10622
935.39        80.69978
935.78        81.30643
936.17        81.85532
936.56        82.02554
936.96         81.3853
937.35        79.97585
937.74        78.07269
938.13        76.36191
938.53        75.69442
938.92         76.1582
939.31         77.5696
939.70        79.36944
940.09        80.44458
940.49        80.39688
940.88        79.53823
941.27        78.40343
941.66         77.8118
942.05        77.97231
942.44        78.67834
942.84        79.49426
943.23        79.75488
943.62         79.2252
944.01        78.14825
944.40        77.13821
944.79        77.06759
945.18        78.08865
945.57        79.94507
945.97        81.83248
946.36        82.62004
946.75        81.88107
947.14        79.98007
947.53        77.83391
947.92          76.821
948.31         77.2849
948.70        78.90737
949.09        80.83687
949.48        81.53477
949.87        80.59378
950.26        78.52355
950.65         76.4153
951.04        75.78687
951.43        76.92655
951.82        79.40314
952.21        82.16613
952.60        83.28719
952.99        82.22633
953.38        79.65259
953.77        76.85351
954.16        75.52331
954.55        76.01654
954.94        77.95827
955.33        80.41232
955.72        81.37608
956.11        80.17902
956.50         77.5485
956.89        74.88157
957.28        73.97502
957.66        75.21719
958.05        78.02183
958.44        81.35645
958.83        83.12558
959.22        82.61416
959.61          80.555
960.00        78.14032
960.39        76.89787
960.78        77.11071
961.16        78.33307
961.55        79.84399
961.94        80.35266
962.33        79.44386
962.72        77.74636
963.11        75.87448
963.49        74.58162
963.88        74.07531
964.27        74.05997
964.66        74.53544
965.04        75.58238
965.43        76.99002
965.82        78.74812
966.21        80.38007
966.60        81.00452
966.98        80.45739
967.37        79.09608
967.76        77.43044
968.15        76.15944
968.53        75.45855
968.92        75.07503
969.31        75.16622
969.69        76.01417
970.08        77.52789
970.47        79.78397
970.86        81.95525
971.24        82.60497
971.63        81.41827
972.02        78.83073
972.40        76.13125
972.79        75.37308
973.17        76.91232
973.56        80.04596
973.95         83.6207
974.33        85.45152
974.72        84.78521
975.11        82.37955
975.49        79.37474
975.88         77.8267
976.26        78.25175
976.65        79.94853
977.04        82.18292
977.42        83.62196
977.81        83.61546
978.19        82.75304
978.58        81.40305
978.96        80.00172
979.35        78.85336
979.74        77.82795
980.12        77.22868
980.51        77.55222
980.89        78.92358
981.28        81.04678
981.66        83.63702
982.05        85.85851
982.43        87.48549
982.82        88.53989
983.20        88.81287
983.59        87.92491
983.97        86.01677
984.35        83.30426
984.74        80.72019
985.12        79.49259
985.51         79.7982
985.89         81.4437
986.28        83.51376
986.66        84.79413
987.04        84.70664
987.43        83.58992
987.81        81.98066
988.20        81.10034
988.58        81.22588
988.96        82.04704
989.35        82.65871
989.73          81.873
990.12        79.44106
990.50        75.96069
990.88        72.48974
991.27         70.7028
991.65        70.95838
992.03         72.7457
992.42        75.31128
992.80        77.79056
993.18        79.73753
993.56        81.41882
993.95        82.62992
994.33        83.19803
994.71        83.02566
995.10         82.1604
995.48        81.08396
995.86        80.66171
996.24        81.09077
996.63        82.09575
997.01        83.47555
997.39        84.52753
997.77        84.96352
998.15        85.03265
998.54        84.71017
998.92        83.96767
999.30        82.88161
999.68        81.44991
1000.06        80.16457
1000.45        79.92366
1000.83        81.00529
1001.21        83.11095
1001.59        85.59454
1001.97        87.35506
1002.35        88.02368
1002.73        87.87454
1003.12        87.10004
1003.50          85.967
1003.88         84.7141
1004.26        83.30383
1004.64        82.05183
1005.02        81.51345
1005.40        81.80708
1005.78         82.7953
1006.16        84.12078
1006.54        85.26037
1006.92        86.08058
1007.30        86.67399
1007.69        87.07246
1008.07        87.53584
1008.45        88.03104
1008.83        88.42949
1009.21        88.57965
1009.59        88.31747
1009.97        87.61909
1010.35        86.54798
1010.73        85.38738
1011.11        84.55331
1011.49        84.18388
1011.86        84.32247
1012.24        84.45511
1012.62        83.98148
1013.00        82.74274
1013.38        80.75937
1013.76        78.72697
1014.14        78.12015
1014.52         79.3515
1014.90          81.977
1015.28         84.5581
1015.66        84.84232
1016.04        82.39568
1016.41        78.03957
1016.79        73.18975
1017.17        70.83212
1017.55        71.74457
1017.93        74.44331
1018.31         77.8307
1018.69        81.30162
1019.06        85.13589
1019.44        89.97536
1019.82        95.69816
1020.20         99.7694
1020.58         99.9806
1020.95        96.51573
1021.33        91.81697
1021.71        88.31236
1022.09        86.15067
1022.46        84.74218
1022.84        83.58868
1023.22        81.18403
1023.60        77.78762
1023.97        74.69386
1024.35        73.06054
1024.73        73.73125
