SpectraSmart Spectrum 2.9.0.0
--------- Device Information -----------
Spectrum Name :  反射率_0
Saving Time :  2024/04/30 00:26:08
Spectro-Module Model Name : SE2030-DUVN
Spectro-Module Serial Number : OS361AC55029948
Wavelength Start : 200
Wavelength End : 1025
Wavelength Unit : Wavelength(nm)
Spectrum Unit : Reflectance(%)
-----------Spectrum Setting ------------
Integration Time : 20ms
Average : 10
Boxcar : 0
Background removal :  enabled
linearity correction :  enabled
SC :  disabled
Intensity correction :  disabled
DWT denoise :  enabled
savitzky-golay :  disabled
FFT :  disabled
Running average :  disabled
Kalman :  disabled
High pass :  disabled
---------------BEGIN--------------------
Wavelength(nm)             Reflectance(%)
200.29               0
200.75        81.43349
201.21        68.53363
201.67        56.49288
202.13         51.3971
202.58        55.86175
203.04        68.59347
203.50        87.16178
203.96        105.6416
204.42        119.0152
204.88        126.3728
205.34        124.2485
205.80        111.2119
206.26        93.12812
206.72        75.44189
207.18        61.53215
207.64        52.26016
208.10        46.24418
208.55        42.05778
209.01        40.21188
209.47        42.60832
209.93         48.3294
210.39        55.45165
210.85        61.22677
211.31        63.75021
211.77        63.11161
212.23        59.11718
212.69        52.23309
213.14         47.7555
213.60        48.54576
214.06        52.61226
214.52        56.61996
214.98        58.08918
215.44         57.3801
215.90         55.7304
216.36        54.26589
216.81        55.02699
217.27        59.41024
217.73         67.5082
218.19        79.83643
218.65        92.95764
219.11        101.2422
219.57         103.262
220.02        101.4884
220.48        99.61296
220.94        97.63288
221.40        94.76157
221.86        89.16456
222.32        79.68846
222.77        69.72883
223.23        62.76963
223.69        58.93172
224.15        57.20999
224.61        56.66162
225.06        56.92889
225.52        57.85118
225.98        58.61419
226.44        58.84984
226.90        58.79722
227.36        58.39788
227.81        57.54412
228.27        56.29486
228.73        54.45362
229.19        52.65614
229.65        52.29757
230.10        53.44952
230.56        55.43877
231.02        57.00293
231.48        57.03716
231.93        55.53004
232.39        52.91593
232.85        50.02061
233.31        48.52073
233.77        48.92223
234.22         50.8614
234.68        53.16221
235.14        53.67215
235.60         51.9475
236.05        48.92352
236.51        46.04147
236.97        45.06852
237.43        46.50351
237.88        50.20572
238.34        56.01184
238.80        62.74615
239.26        68.58822
239.71        73.26163
240.17        76.18951
240.63        77.89017
241.08        79.11338
241.54        79.20611
242.00        79.08565
242.46        82.41392
242.91        91.68303
243.37        104.2681
243.83        115.5638
244.28        122.8783
244.74        126.7401
245.20        127.3232
245.66        125.2967
246.11         122.589
246.57        120.4338
247.03        119.8706
247.48        119.4392
247.94        115.9101
248.40        110.6493
248.85        105.2334
249.31        103.3211
249.77        106.5066
250.22        115.3723
250.68        132.0884
251.14        155.1512
251.59        162.8967
252.05        144.5636
252.51        118.9393
252.96        100.5048
253.42        93.14114
253.88        92.75613
254.33        96.26492
254.79        100.9736
255.25        101.2848
255.70        96.72145
256.16        91.36744
256.62        86.96243
257.07        84.22177
257.53        83.13499
257.99         82.6505
258.44        81.94571
258.90        80.93806
259.35        79.22984
259.81        77.57961
260.27        76.05853
260.72        74.70042
261.18        73.67516
261.63        72.56206
262.09        71.31288
262.55         69.4869
263.00        67.15985
263.46        64.85186
263.91        62.69553
264.37        61.19672
264.83        60.21954
265.28        59.50234
265.74        59.01248
266.19        58.44824
266.65        57.81377
267.11        57.13286
267.56         56.3475
268.02        55.38482
268.47        54.19976
268.93        52.81262
269.38        51.32006
269.84        50.03783
270.30        49.04952
270.75        48.29131
271.21        47.63172
271.66        46.79848
272.12        45.73781
272.57        44.50493
273.03        43.23989
273.48        42.07661
273.94        41.13844
274.39        40.33279
274.85        39.66317
275.31        39.03957
275.76        38.40763
276.22        37.82009
276.67        37.24986
277.13        36.76765
277.58         36.3196
278.04        35.93049
278.49        35.49222
278.95          34.968
279.40        34.31055
279.86        33.62143
280.31        32.93999
280.77         32.4563
281.22        32.15081
281.68        31.99986
282.13        31.90906
282.59        31.80779
283.04        31.64378
283.50         31.4516
283.95        31.21279
284.41        30.92332
284.86        30.58547
285.32        30.25098
285.77        29.92599
286.22        29.70239
286.68        29.60449
287.13        29.56413
287.59         29.6011
288.04        29.67542
288.50        29.78437
288.95         29.9023
289.41        29.99157
289.86        29.94682
290.32        29.79863
290.77        29.59085
291.22        29.42828
291.68        29.46875
292.13        29.74286
292.59        30.23021
293.04         30.9169
293.50        31.81633
293.95         32.9101
294.40        34.21625
294.86        35.62768
295.31        36.98517
295.77        38.24865
296.22        39.42871
296.68        40.67562
297.13        42.20878
297.58        44.06012
298.04        46.11202
298.49        48.15725
298.95        49.89017
299.40        51.24626
299.85        52.35968
300.31        53.42035
300.76        54.63314
301.21        56.11005
301.67        57.81023
302.12        59.66769
302.58        61.73043
303.03        63.92679
303.48        66.18198
303.94        68.45147
304.39        70.92313
304.84         73.0445
305.30        75.24197
305.75        77.28811
306.20         79.1681
306.66        80.89547
307.11        82.41673
307.57        83.86095
308.02        85.28902
308.47        86.77171
308.93        88.30645
309.38        89.79366
309.83        91.15398
310.29        92.36987
310.74        93.45249
311.19        94.44685
311.65        95.40567
312.10        96.33102
312.55        97.23161
313.00        98.13456
313.46        99.08695
313.91        100.0704
314.36        101.0632
314.82        102.0274
315.27        102.9319
315.72        103.7285
316.18        104.4272
316.63        104.9585
317.08        105.2305
317.53        105.2706
317.99        105.1632
318.44        105.0422
318.89        105.1335
319.35        105.4943
319.80        106.0518
320.25        106.7778
320.70        107.6181
321.16        108.4809
321.61        109.4106
322.06        110.2044
322.51        110.5571
322.97        110.4127
323.42        109.8709
323.87        109.1984
324.32        108.8539
324.78        108.9413
325.23        109.4176
325.68        110.0698
326.13        110.5202
326.59        110.6372
327.04        110.5739
327.49        110.4957
327.94        110.7225
328.39        111.3184
328.85        112.1036
329.30        112.9497
329.75        113.4342
330.20         113.445
330.66        113.1145
331.11        112.6611
331.56        112.3514
332.01         112.314
332.46        112.4902
332.92        112.8437
333.37        113.4681
333.82        114.2835
334.27        115.2768
334.72        116.3435
335.17        117.3023
335.63        118.0474
336.08         118.645
336.53        119.0579
336.98        119.3247
337.43        119.4776
337.88        119.5159
338.34        119.5072
338.79        119.5833
339.24        119.7776
339.69        120.0917
340.14        120.4698
340.59        120.7938
341.05        121.0403
341.50        121.2508
341.95         121.463
342.40        121.7598
342.85        122.1476
343.30        122.5549
343.75        122.9591
344.20        123.3307
344.66        123.6656
345.11        124.0017
345.56        124.2397
346.01        124.2121
346.46        123.9355
346.91        123.4733
347.36          123.13
347.81        123.3674
348.26        124.2325
348.72        125.5369
349.17        126.9153
349.62        127.6717
350.07        127.6236
350.52        127.0176
350.97        126.1614
351.42        125.5284
351.87        125.2771
352.32        125.2538
352.77        125.4484
353.22        125.8532
353.67        126.3875
354.13        127.0213
354.58         127.543
355.03        127.5924
355.48        127.0902
355.93        126.1394
356.38        124.9134
356.83         123.696
357.28        122.5994
357.73        121.5768
358.18        120.6481
358.63        119.8311
359.08        119.1142
359.53        118.5074
359.98         117.949
360.43        117.3222
360.88        116.5965
361.33        115.7957
361.78        114.9492
362.23        114.1151
362.68         113.318
363.13        112.5448
363.58        111.8095
364.03        111.1329
364.48        110.5141
364.93        109.9476
365.38        109.4099
365.83        108.8635
366.28        108.2939
366.73        107.7001
367.18        107.0851
367.63        106.4567
368.08        105.8107
368.53        105.1429
368.98         104.445
369.43        103.7016
369.88        102.9315
370.33        102.1732
370.78         101.452
371.23        100.8087
371.68        100.2514
372.13        99.73582
372.58        99.30334
373.03        99.01869
373.48        98.85072
373.93        98.76205
374.38        98.54647
374.83           97.88
375.28        96.74778
375.72        95.27898
376.17        93.84385
376.62        92.81656
377.07        92.27546
377.52        92.07923
377.97        92.09499
378.42        92.10197
378.87        91.99863
379.32        91.83994
379.77        91.57775
380.22        91.13606
380.67         90.5116
381.11        89.70964
381.56        88.83694
382.01        88.10862
382.46        87.60141
382.91        87.29089
383.36        87.07346
383.81        86.77205
384.26        86.33912
384.71         85.8122
385.15        85.28941
385.60        84.98309
386.05         84.8938
386.50        84.94723
386.95        84.95849
387.40        84.65414
387.85        84.01176
388.29         83.1078
388.74        82.26221
389.19        81.68857
389.64        81.42789
390.09        81.37617
390.54        81.41617
390.98        81.34666
391.43        81.13726
391.88        80.82217
392.33        80.41915
392.78        80.01401
393.23        79.62135
393.67        79.10546
394.12        78.54733
394.57        78.38265
395.02        77.60486
395.47        77.66044
395.91        78.10559
396.36        78.22002
396.81        77.93686
397.26        77.65078
397.71        77.42233
398.15        77.10994
398.60        76.82011
399.05        76.58093
399.50        76.37285
399.95        76.14895
400.39        75.68675
400.84        75.77321
401.29        76.17527
401.74        76.19711
402.18        75.75525
402.63          75.138
403.08        74.58642
403.53        74.35082
403.97        74.47442
404.42        74.84174
404.87        75.21823
405.32        75.22988
405.76        74.79476
406.21        74.13644
406.66        73.42873
407.11        72.87242
407.55         72.6526
408.00        72.77643
408.45        73.15071
408.90        73.76934
409.34        74.30395
409.79        73.90955
410.24        72.88961
410.68        72.54201
411.13         72.9706
411.58        73.46677
412.03         73.8019
412.47        73.91232
412.92        73.69172
413.37        73.21522
413.81        72.63818
414.26        72.26401
414.71        72.12469
415.15        72.15105
415.60        72.24437
416.05        72.28683
416.49        72.23984
416.94        72.15125
417.39        72.02919
417.83        71.86095
418.28        71.67213
418.73        71.46427
419.17        71.29987
419.62        71.32505
420.07        71.53728
420.51        71.78558
420.96         72.0196
421.41        72.24477
421.85        72.30522
422.30        72.07916
422.74        71.61351
423.19        71.03704
423.64        70.47591
424.08        70.52296
424.53        71.17205
424.98        71.00424
425.42        71.24775
425.87        71.72746
426.31        71.91721
426.76         71.6528
427.21        70.74809
427.65        70.82706
428.10        71.59896
428.54        71.40349
428.99        70.40188
429.44        69.80414
429.88        69.76849
430.33        70.05859
430.77        70.46573
431.22        70.91947
431.66        71.28362
432.11        71.12497
432.56        70.54956
433.00        70.35908
433.45        70.82733
433.89        70.57594
434.34        71.45028
434.78        72.25284
435.23        70.31886
435.67        69.60291
436.12        69.50162
436.57         69.6155
437.01        69.66695
437.46        70.84335
437.90        70.91943
438.35        70.25427
438.79        71.47656
439.24        71.48436
439.68        71.28882
440.13         71.2103
440.57        71.35283
441.02        71.43661
441.46         71.3922
441.91        71.57964
442.35         71.8633
442.80        71.55764
443.24        71.74046
443.69        71.44258
444.13        71.07941
444.58        70.85716
445.02        70.76925
445.47        70.74638
445.91        70.74824
446.36        70.78922
446.80        70.83276
447.24         70.8996
447.69        70.96361
448.13        70.95519
448.58        70.88836
449.02        70.76211
449.47        70.65577
449.91        70.65955
450.36        70.80379
450.80        71.03616
451.25        71.30225
451.69        71.48192
452.13        71.54684
452.58        71.55303
453.02        71.52193
453.47        71.47548
453.91        71.40534
454.36        71.47449
454.80        71.36755
455.24        71.33952
455.69        71.36281
456.13         71.3164
456.58        71.29659
457.02        70.67251
457.46        70.70396
457.91        70.54079
458.35        70.49727
458.79        70.45483
459.24        70.45063
459.68        70.52544
460.13        70.64925
460.57        70.58015
461.01        70.84321
461.46        70.31318
461.90        70.24206
462.34        70.30196
462.79        70.43079
463.23        70.29532
463.68        69.84637
464.12        69.60848
464.56        69.61372
465.01        69.47652
465.45        69.22598
465.89        69.44206
466.34        69.93198
466.78        70.10874
467.22        69.47449
467.67        69.25764
468.11        69.37963
468.55        69.34245
468.99        69.13424
469.44        68.95817
469.88        68.82764
470.32        68.70358
470.77        68.59849
471.21        68.55329
471.65        68.55644
472.10        68.61459
472.54        68.69736
472.98        68.77499
473.42        68.82135
473.87        68.89915
474.31         68.9624
474.75        68.80603
475.20        68.50062
475.64        68.49859
476.08         68.7907
476.52        68.61784
476.97        67.88811
477.41        68.10846
477.85        67.83916
478.29        66.93666
478.74        68.40506
479.18        68.33181
479.62        67.86732
480.06        67.73019
480.50        67.94084
480.95        68.25239
481.39        68.48052
481.83        68.08174
482.27        68.35744
482.72        68.59924
483.16        68.37655
483.60        68.50507
484.04        68.77551
484.48        68.98993
484.93        68.87069
485.37        69.39758
485.81        67.86159
486.25        67.45802
486.69        68.75046
487.14        68.54834
487.58        67.99427
488.02        67.74584
488.46        68.59384
488.90        68.92633
489.34        68.21896
489.79        68.74561
490.23        68.38247
490.67        68.24562
491.11        67.85346
491.55        67.72155
491.99        67.84155
492.43        67.89192
492.88         67.8616
493.32        67.93583
493.76        68.13608
494.20        68.36239
494.64        68.57964
495.08        68.97767
495.52        69.40424
495.96        69.16613
496.41        68.48106
496.85        68.46195
497.29        68.95586
497.73        69.17038
498.17        68.60741
498.61        68.09606
499.05        67.65546
499.49        67.87111
499.93         68.3433
500.37        68.41236
500.82        68.02657
501.26        67.97363
501.70        68.25755
502.14        68.40685
502.58        68.37589
503.02        68.40515
503.46        68.48357
503.90        68.60312
504.34        68.73251
504.78        68.68452
505.22         68.4948
505.66        68.53241
506.10        68.77065
506.54        68.78362
506.98        68.54564
507.42        68.82604
507.86        68.21172
508.30        68.56152
508.74         68.2686
509.18        67.68332
509.62        67.76183
510.06         67.6967
510.50        67.88245
510.94        68.23734
511.38        68.64231
511.82        68.83862
512.26        68.75619
512.70        68.47521
513.14        68.13535
513.58        67.96415
514.02        68.01968
514.46        68.21152
514.90        68.47069
515.34        68.58508
515.78        68.51702
516.22        68.32151
516.66        68.09705
517.10         67.9901
517.54        68.03429
517.98        68.18288
518.42        68.33575
518.86        68.33633
519.30        68.15467
519.74        67.85108
520.18        67.54442
520.62        67.40649
521.06        67.48144
521.50        67.72993
521.93        68.04395
522.37        68.21229
522.81        68.19107
523.25        68.04073
523.69        67.86729
524.13        67.83088
524.57        67.96495
525.01        68.20172
525.45        68.43859
525.89        68.51186
526.32        68.37476
526.76        68.11536
527.20        67.81001
527.64        67.58136
528.08         67.4698
528.52        67.42304
528.96         67.4306
529.40        67.51035
529.83        67.62244
530.27        67.70324
530.71        67.72974
531.15        67.73412
531.59        67.71001
532.03        67.62231
532.46        67.48198
532.90        67.35905
533.34         67.2662
533.78         67.1992
534.22        67.15863
534.66        67.14059
535.09        67.13842
535.53        67.16917
535.97         67.2282
536.41        67.32065
536.85        67.43502
537.28        67.55112
537.72        67.64639
538.16        67.67733
538.60        67.63504
539.04        67.55397
539.47        67.41011
539.91        67.24327
540.35        67.09251
540.79        66.94759
541.22         66.7736
541.66        67.11897
542.10        66.86726
542.54        66.97543
542.97         67.0985
543.41        67.22513
543.85        67.32951
544.29        67.43872
544.72        67.52409
545.16        67.55338
545.60        67.52248
546.04        67.40974
546.47        67.27583
546.91        67.32619
547.35        67.53539
547.79        67.65347
548.22        67.62532
548.66        67.72617
549.10        67.95695
549.53        67.96052
549.97        67.64501
550.41         68.2607
550.84        67.75665
551.28        67.69753
551.72         67.4966
552.15         67.6881
552.59        67.41403
553.03        67.71091
553.46        67.62529
553.90          67.711
554.34        67.74747
554.77        67.73417
555.21        67.69604
555.65        67.73184
556.08        67.81254
556.52        67.77222
556.96        67.65536
557.39        67.72396
557.83        67.95734
558.27         68.1456
558.70        68.25114
559.14        68.22704
559.57        68.04591
560.01        68.20151
560.45        68.05259
560.88        67.91038
561.32        67.92626
561.75        67.94039
562.19        68.01282
562.63        67.87192
563.06        67.59195
563.50        67.59322
563.93         67.8222
564.37        67.93478
564.80        67.89516
565.24        67.92401
565.68         67.9992
566.11        68.04707
566.55        68.06442
566.98        67.94673
567.42        67.81941
567.85        67.80073
568.29        67.87892
568.72        68.11287
569.16        68.59083
569.60        67.98885
570.03        68.37407
570.47        68.54299
570.90        68.61537
571.34        68.16063
571.77        68.61666
572.21         68.7201
572.64        68.79206
573.08        68.90281
573.51         68.2547
573.95        68.40792
574.38        68.80702
574.82        68.78736
575.25        68.78633
575.69        68.70457
576.12         68.2092
576.56        68.12067
576.99        68.20647
577.42        68.31646
577.86        68.26518
578.29        68.13742
578.73        68.84525
579.16        68.24316
579.60        68.26631
580.03        68.35645
580.47        68.62038
580.90        68.52001
581.33        68.17405
581.77        68.06272
582.20        68.20032
582.64        68.89484
583.07        68.19849
583.51        67.92528
583.94        67.79878
584.37        67.59547
584.81        67.53337
585.24        67.89424
585.68        68.86423
586.11        68.90231
586.54        68.05003
586.98        67.84545
587.41        68.69323
587.85        68.72022
588.28        68.52632
588.71        68.66997
589.15        67.84095
589.58         68.1164
590.01        67.60059
590.45         67.7334
590.88        68.07282
591.31        68.39301
591.75        68.45056
592.18        68.53799
592.61        68.91953
593.05        67.36562
593.48        68.54287
593.91        68.73775
594.35        67.78633
594.78        67.49814
595.21        67.44277
595.65        67.81949
596.08        67.84168
596.51        67.72719
596.94        68.34138
597.38        68.35771
597.81        68.01775
598.24        68.35265
598.68        67.90125
599.11        67.75072
599.54        68.56995
599.97        69.04375
600.41         67.7328
600.84        68.19006
601.27        68.20001
601.70        68.33686
602.14        68.63132
602.57        68.30465
603.00        67.80566
603.43        67.77244
603.87         68.0061
604.30        68.49718
604.73        68.22944
605.16        68.04338
605.60        68.02034
606.03        68.17061
606.46        68.43507
606.89        68.60966
607.32        68.32932
607.76        68.29128
608.19        68.43301
608.62        68.38449
609.05        68.31441
609.48         68.4757
609.92        68.30556
610.35        68.65414
610.78        68.76215
611.21        68.16791
611.64        68.21429
612.07        68.72862
612.50        68.55935
612.94        68.49773
613.37        68.90782
613.80        68.42371
614.23        68.73309
614.66          68.686
615.09        68.72611
615.52        68.87487
615.96        69.05153
616.39        68.97998
616.82        68.47552
617.25         68.5995
617.68        68.09895
618.11        68.28934
618.54        68.66534
618.97        68.69667
619.40        68.40919
619.84        68.32321
620.27        68.48772
620.70        68.78198
621.13        68.72723
621.56        68.66379
621.99         68.3836
622.42        68.26778
622.85        68.44422
623.28        68.48197
623.71        68.93634
624.14        68.05605
624.57        68.77785
625.00        68.72943
625.43         68.7544
625.86        68.52831
626.29        68.39832
626.72        68.61603
627.15        68.40473
627.58        68.60309
628.01        68.84183
628.44        68.61987
628.87        68.10017
629.30        67.98531
629.73        68.69062
630.16        68.87103
630.59        68.60999
631.02        68.59838
631.45        68.56247
631.88        68.54712
632.31         68.4614
632.74         68.3761
633.17        68.28652
633.60        68.19569
634.03        68.11092
634.46        68.01558
634.89        67.93316
635.32        67.91538
635.75        67.96247
636.18        68.04475
636.61        68.12214
637.04        68.14458
637.47        68.11446
637.89        68.01067
638.32         67.8185
638.75        67.72218
639.18        67.77409
639.61        67.26585
640.04        67.45148
640.47        67.41434
640.90        67.52283
641.33        67.74118
641.76        67.99238
642.18        68.12522
642.61        68.06721
643.04        67.86948
643.47        67.64835
643.90        67.57389
644.33         67.6765
644.76        67.99003
645.18        68.35612
645.61        68.32601
646.04        67.80216
646.47        67.65511
646.90        67.84154
647.33         67.8504
647.75        67.67256
648.18        67.59694
648.61        67.66183
649.04        67.83194
649.47        68.05203
649.89         68.2486
650.32        68.33315
650.75        68.22209
651.18        68.03047
651.61        68.02735
652.03        68.24615
652.46        68.58469
652.89        68.76884
653.32         68.5564
653.74        68.23471
654.17        67.51872
654.60        67.23189
655.03        69.39669
655.46        67.26375
655.88        68.39758
656.31        70.75182
656.74        71.49467
657.16        70.61201
657.59        68.52952
658.02         67.9882
658.45        68.98651
658.87        69.02054
659.30        68.36033
659.73        68.96623
660.15        68.95409
660.58        68.95799
661.01        68.74168
661.44        68.39152
661.86        68.03025
662.29        67.76401
662.72        68.01633
663.14        68.61913
663.57         68.5551
664.00         67.9319
664.42        67.74811
664.85         68.0564
665.27        68.24027
665.70         68.2413
666.13        68.30455
666.55        68.42578
666.98          68.512
667.41        68.56522
667.83        68.59125
668.26        68.58202
668.69        68.55485
669.11        68.50661
669.54        68.43216
669.96        68.33886
670.39         68.2375
670.82        68.15759
671.24        68.13825
671.67        68.18303
672.09        68.31296
672.52        68.49466
672.94        68.69962
673.37        68.37701
673.80        68.78029
674.22        68.41685
674.65        68.49422
675.07        68.63117
675.50        68.82274
675.92        69.00344
676.35        69.06165
676.77        68.99224
677.20        68.81234
677.62        68.60996
678.05        68.52161
678.47        68.57545
678.90        68.74003
679.32        68.92393
679.75        68.98621
680.17          68.878
680.60        68.68332
681.02        68.50382
681.45        68.38408
681.87        68.33585
682.30        68.77084
682.72        68.88744
683.15         68.9544
683.57        68.80164
684.00        68.81305
684.42         68.9801
684.85        69.04282
685.27         69.0078
685.70        68.96714
686.12        68.97015
686.54        69.22141
686.97        69.62301
687.39        69.84794
687.82        69.81406
688.24        69.75857
688.66        69.67796
689.09        69.41351
689.51        69.04906
689.94        68.83367
690.36        68.80837
690.78        68.85115
691.21        68.93542
691.63        69.14989
692.06        69.39996
692.48        69.42168
692.90        69.24308
693.33        69.14261
693.75        69.13641
694.17        69.13225
694.60         68.9961
695.02        69.00287
695.44        69.09507
695.87        69.39009
696.29        69.76727
696.71        69.62815
697.14        69.12108
697.56        69.12644
697.98        69.59905
698.41        69.76048
698.83        69.57937
699.25        69.51775
699.68        69.57655
700.10        69.59116
700.52        69.54446
700.94        69.49799
701.37        69.43867
701.79        69.36082
702.21        69.26123
702.64        69.15202
703.06        69.06465
703.48        69.06226
703.90        69.15649
704.33        69.33857
704.75        69.53246
705.17        69.68189
705.59        69.73795
706.01        69.72147
706.44         69.6721
706.86        69.64401
707.28        69.65035
707.70        69.72245
708.12        69.83793
708.55        69.84206
708.97        69.77588
709.39        69.89057
709.81        70.16512
710.23        70.35013
710.66        70.41359
711.08        70.51111
711.50        70.62175
711.92        70.68207
712.34        70.69403
712.76        70.67513
713.19        70.63013
713.61        70.61646
714.03        70.62717
714.45        70.65385
714.87        70.69418
715.29        70.74251
715.71        70.79173
716.13        70.84062
716.56          70.857
716.98        70.87712
717.40        70.87194
717.82        70.84268
718.24        70.79748
718.66        70.75122
719.08        70.70952
719.50        70.66965
719.92        70.63459
720.34         70.6065
720.76        70.58541
721.19        70.56548
721.61        70.55131
722.03        70.52242
722.45        70.47517
722.87         70.4109
723.29        70.34719
723.71        70.31261
724.13        70.31406
724.55        70.34808
724.97        70.38927
725.39        70.39346
725.81         70.3568
726.23        70.29836
726.65        70.25654
727.07         70.2942
727.49        70.41897
727.91        70.59529
728.33        70.79086
728.75        70.95232
729.17        71.05475
729.59        71.11877
730.01        71.11653
730.43        71.00488
730.85        70.79897
731.27         70.5247
731.69        70.28322
732.10        70.23715
732.52        70.41369
732.94        70.76065
733.36        71.17553
733.78        71.47865
734.20        71.60628
734.62        71.58615
735.04        71.48055
735.46        71.46088
735.88        71.56986
736.30        71.58976
736.72        71.49616
737.13        71.70599
737.55        72.02656
737.97        71.53013
738.39        70.50027
738.81        70.35068
739.23         71.0688
739.65        71.51771
740.06        71.51441
740.48        71.56853
740.90        71.62922
741.32        71.41315
741.74        71.01805
742.16        70.80127
742.57        70.84177
742.99        70.94072
743.41        71.07654
743.83        71.37955
744.25        71.73447
744.67        71.75661
745.08        71.49041
745.50        71.36768
745.92         71.4313
746.34        71.40673
746.75        71.33349
747.17        71.38486
747.59        71.56337
748.01        71.87222
748.42        72.19777
748.84         72.2195
749.26        71.96382
749.68        71.71363
750.09        71.55386
750.51        71.50648
750.93         71.5589
751.35         71.6451
751.76        71.72449
752.18        71.79337
752.60        71.82908
753.01        71.79964
753.43        71.72309
753.85        71.69776
754.27        71.75894
754.68        71.90857
755.10        72.09358
755.52        72.23492
755.93        72.28384
756.35        72.22411
756.77        72.20654
757.18        72.34316
757.60        72.63495
758.02        73.41767
758.43        74.26871
758.85         73.7169
759.26        72.13328
759.68        71.55444
760.10        72.01606
760.51        72.64272
760.93        72.12298
761.34         72.3448
761.76        72.79753
762.18        72.88856
762.59         72.5738
763.01        71.96997
763.42        71.35114
763.84        71.08205
764.26        71.25919
764.67        71.71165
765.09        72.27451
765.50        72.68112
765.92        72.87263
766.33        72.91904
766.75        72.77518
767.16        72.79018
767.58        72.66877
768.00        72.46722
768.41        72.17377
768.83        72.36584
769.24        72.84526
769.66        72.61365
770.07        71.83515
770.49        71.65002
770.90        72.09595
771.32        72.50527
771.73        72.74749
772.15        72.84082
772.56        72.74921
772.97        72.69766
773.39        72.29836
773.80        72.28972
774.22        72.53616
774.63         73.0052
775.05        73.47807
775.46        73.69693
775.88        73.56461
776.29        73.21417
776.70        72.77728
777.12        72.48643
777.53        72.42078
777.95        72.48728
778.36         72.6683
778.77        72.90271
779.19        73.15388
779.60         73.5373
780.02        73.91629
780.43        74.04129
780.84        73.94991
781.26        73.75714
781.67        73.61973
782.09        74.02988
782.50        74.76729
782.91        74.73047
783.33        73.96243
783.74        73.55864
784.15        73.57827
784.57        73.38497
784.98        73.02071
785.39        72.87472
785.81        72.98108
786.22        73.22585
786.63        73.57578
787.04        73.97656
787.46         74.3854
787.87        74.78014
788.28        75.12473
788.70        75.34504
789.11        75.41306
789.52         75.3968
789.93        75.29931
790.35        75.03765
790.76        74.69733
791.17        74.50186
791.58        74.48453
792.00        74.47178
792.41        74.47454
792.82        74.63991
793.23        74.94019
793.65        75.11047
794.06         75.1954
794.47        75.54735
794.88        76.00198
795.29        76.03638
795.71          75.591
796.12        74.94997
796.53        74.33646
796.94        74.08507
797.35        74.31734
797.76        74.94246
798.18        75.70038
798.59        76.20535
799.00        76.31481
799.41        76.13939
799.82        75.81374
800.23        75.57358
800.64        75.50362
801.06        75.50142
801.47        75.56413
801.88        75.61579
802.29        75.62518
802.70        75.61618
803.11        75.60867
803.52        75.61922
803.93        75.66528
804.34        75.74738
804.75        75.80876
805.17        75.83578
805.58        75.86687
805.99        75.65636
806.40        75.35208
806.81        75.77522
807.22        76.68253
807.63        76.66596
808.04        75.83993
808.45        75.62739
808.86        76.12783
809.27        76.53436
809.68        76.67113
810.09        76.64827
810.50        76.42847
810.91        75.98286
811.32         75.5232
811.73        75.38986
812.14        75.65302
812.55        76.23119
812.96        76.89246
813.37         77.1935
813.78        77.01705
814.19         76.5302
814.60        75.95151
815.01        75.58774
815.42        75.51905
815.83        75.63629
816.24        75.89381
816.65        76.20068
817.05        76.48557
817.46        76.74048
817.87        76.90753
818.28        76.83553
818.69        76.52044
819.10        76.00291
819.51        75.44222
819.92        75.15179
820.33        75.22692
820.74         75.5656
821.14        76.04881
821.55        76.49187
821.96        76.81428
822.37        77.07789
822.78         77.2196
823.19        77.13268
823.60        76.81645
824.00        76.29017
824.41         75.7343
824.82        75.47453
825.23        75.57644
825.64        75.97649
826.04        76.48824
826.45        76.67835
826.86        76.46575
827.27        75.98241
827.68        75.44597
828.08        75.22543
828.49        75.37509
828.90        75.81429
829.31        76.41835
829.72        76.97435
830.12         77.4207
830.53        77.72651
830.94        77.96619
831.35        78.21584
831.75        78.51054
832.16        78.73526
832.57        78.83128
832.97        78.67764
833.38        78.28091
833.79        77.76131
834.20        77.24379
834.60        76.87579
835.01        76.73418
835.42        76.74856
835.82        76.96687
836.23        77.38574
836.64        77.98569
837.04        78.78011
837.45        79.47143
837.86        79.73947
838.26         79.5008
838.67        78.83961
839.08        78.02422
839.48        77.46025
839.89         77.3029
840.29        77.45442
840.70        77.74637
841.11        77.91005
841.51        77.89563
841.92        77.74943
842.33        77.63561
842.73        77.80548
843.14        78.24986
843.54        78.89532
843.95        79.53487
844.35         79.9181
844.76        79.94481
845.17          79.673
845.57        79.25636
845.98        78.91293
846.38        78.73776
846.79        78.67849
847.19        78.60748
847.60        78.25562
848.00          77.618
848.41        76.82464
848.81        76.15065
849.22        75.98693
849.62        76.43743
850.03         77.3205
850.43        78.42242
850.84        79.14577
851.24        79.35666
851.65        79.10028
852.05        78.59122
852.46        78.14368
852.86        77.86459
853.27        77.74255
853.67        77.61368
854.07         77.4539
854.48        77.19798
854.88         76.9114
855.29        76.62797
855.69        76.62972
856.10        76.86831
856.50        77.35427
856.90        77.82018
857.31        77.92186
857.71        77.64422
858.12        77.05428
858.52        76.41518
858.92        76.11134
859.33        76.23317
859.73        76.70871
860.13        77.34207
860.54        77.82443
860.94        78.09136
861.34        78.13218
861.75        77.96049
862.15        77.66881
862.55        77.27007
862.96        76.79363
863.36        76.17112
863.76        75.32025
864.17        74.31218
864.57        73.24906
864.97        72.39334
865.38        72.07941
865.78         72.3903
866.18        73.19653
866.58        74.28286
866.99        75.16348
867.39        75.67096
867.79        75.87853
868.19        75.78517
868.60        75.41362
869.00        74.83915
869.40        74.04286
869.80        73.35712
870.21        73.35231
870.61        74.16728
871.01         75.5919
871.41        77.09272
871.81        77.80701
872.22        77.51812
872.62        76.47103
873.02        75.10326
873.42        74.16338
873.82        73.90617
874.22         74.1565
874.63        74.62214
875.03        74.85064
875.43        74.72259
875.83        74.36752
876.23        74.09275
876.63        74.38158
877.03        75.29693
877.44        76.60127
877.84        77.84097
878.24        78.19814
878.64        77.53276
879.04        76.17958
879.44        74.67516
879.84        73.79699
880.24        73.72438
880.64        74.19231
881.04        74.97931
881.44        75.70938
881.84        76.22495
882.24        76.66784
882.65        76.89881
883.05        76.82239
883.45        76.40511
883.85         75.6884
884.25        75.00478
884.65        74.88774
885.05        75.41492
885.45        76.40224
885.85         77.5293
886.25        78.22272
886.65        78.28655
887.05        77.91263
887.45        77.18574
887.85         76.2757
888.25        75.35733
888.65        74.44126
889.04        73.73412
889.44        73.59985
889.84        74.00907
890.24        74.88918
890.64        75.98049
891.04        76.69563
891.44        76.81019
891.84         76.5022
892.24        75.98282
892.64        75.55972
893.04         75.3266
893.44        75.17299
893.83        75.18987
894.23        75.45977
894.63        75.99042
895.03        76.75721
895.43        77.51898
895.83        77.89371
896.23         77.8072
896.63        77.33852
897.02        76.73847
897.42         76.4994
897.82        76.72294
898.22        77.29746
898.62        77.93233
899.01        78.15352
899.41        77.83016
899.81        77.11552
900.21        76.34126
900.61        76.00998
901.00        76.22228
901.40         76.8247
901.80        77.44154
902.20        77.46699
902.59        76.77748
902.99        75.59541
903.39        74.35921
903.79         73.7095
904.18        73.79045
904.58        74.42976
904.98        75.26337
905.38        75.73493
905.77        75.67163
906.17        75.22636
906.57        74.69571
906.96        74.58295
907.36        74.96066
907.76        75.68453
908.15        76.38773
908.55        76.34605
908.95        75.49643
909.34        74.10976
909.74        72.78257
910.14        72.27159
910.53        72.79131
910.93        74.05154
911.33        75.72448
911.72        77.30151
912.12        78.47208
912.52        79.34459
912.91        79.95079
913.31         80.3339
913.70        80.52054
914.10        80.43415
914.49        80.01726
914.89        79.20152
915.29        78.07989
915.68        76.79539
916.08        75.68248
916.47        75.09399
916.87        75.15738
917.26        75.70841
917.66        76.59385
918.05        77.56645
918.45        78.42847
918.84        79.26971
919.24        79.82824
919.64        79.84698
920.03        79.31244
920.42        78.27277
920.82        77.14146
921.21         76.4642
921.61        76.38817
922.00        76.81219
922.40        77.44458
922.79        77.84838
923.19        77.85143
923.58        77.60931
923.98        77.31001
924.37        77.25394
924.77        77.50381
925.16        77.94667
925.55        78.40482
925.95         78.6134
926.34        78.52176
926.74        78.20144
927.13        77.81176
927.52        77.56295
927.92         77.5256
928.31        77.62361
928.70        77.75017
929.10        77.72175
929.49        77.48936
929.89        77.07121
930.28        76.61318
930.67        76.27536
931.07        76.11833
931.46        76.13659
931.85        76.18032
932.24         76.0266
932.64        75.66428
933.03        75.18417
933.42        74.83601
933.82        75.01974
934.21        75.82573
934.60         77.0378
934.99        78.36733
935.39        79.32806
935.78        79.80223
936.17        79.88159
936.56        79.50752
936.96        78.67236
937.35        77.51023
937.74        76.11102
938.13        74.88426
938.53        74.32513
938.92        74.46341
939.31          75.243
939.70        76.30832
940.09        76.93771
940.49        76.87905
940.88        76.31525
941.27        75.62161
941.66        75.39542
942.05        75.77328
942.44        76.60994
942.84        77.48426
943.23        77.74417
943.62        77.16811
944.01        75.97939
944.40        74.80215
944.79        74.53657
945.18        75.34843
945.57        76.99403
945.97        78.70901
946.36        79.40916
946.75        78.69542
947.14        76.94137
947.53        75.00416
947.92        74.17673
948.31        74.76692
948.70        76.42139
949.09        78.38128
949.48        79.27511
949.87        78.69759
950.26        77.10654
950.65        75.31476
951.04        74.43637
951.43        74.72553
951.82        75.87866
952.21        77.28321
952.60        77.84037
952.99        77.23598
953.38        75.84515
953.77        74.43082
954.16        73.99776
954.55        74.73714
954.94         76.4258
955.33         78.3382
955.72        78.93736
956.11        77.74828
956.50        75.35492
956.89        72.90469
957.28        71.86459
957.66         72.5638
958.05        74.51803
958.44        77.00417
958.83         78.5152
959.22        78.48238
959.61         77.4016
960.00        75.99071
960.39        75.16961
960.78        75.13026
961.16        75.60378
961.55        76.18925
961.94        76.26525
962.33        75.64546
962.72         74.6757
963.11        73.70333
963.49        73.13697
963.88        73.07685
964.27        73.37061
964.66        73.93567
965.04        74.68763
965.43        75.43787
965.82        76.21571
966.21        76.89719
966.60         77.2483
966.98        77.23238
967.37        76.95518
967.76        76.51199
968.15        76.04475
968.53        75.59261
968.92        75.04121
969.31        74.64563
969.69        74.88935
970.08        75.79961
970.47        77.41322
970.86        78.94085
971.24        79.02147
971.63        77.40287
972.02        74.57578
972.40        71.86246
972.79        71.31473
973.17        73.24825
973.56        76.90273
973.95        81.02147
974.33        83.24113
974.72        82.73244
975.11        80.29335
975.49        77.06889
975.88         75.1361
976.26        75.06818
976.65        76.20065
977.04        77.96906
977.42        79.34105
977.81        79.73906
978.19        79.62684
978.58        79.20953
978.96         78.6603
979.35        78.16176
979.74         77.6291
980.12        77.23872
980.51        77.29355
980.89        77.92503
981.28        78.91146
981.66        80.29148
982.05        81.78627
982.43        83.35858
982.82        84.96337
983.20          86.164
983.59         86.1171
983.97        84.75146
984.35        82.33633
984.74        79.92546
985.12         78.9596
985.51        79.64701
985.89        81.70908
986.28        84.03062
986.66         85.0832
987.04        84.26395
987.43        82.07181
987.81        79.37978
988.20         77.9966
988.58         78.3635
988.96        79.96268
989.35        81.66549
989.73        81.87851
990.12        80.16721
990.50        77.27314
990.88        74.04329
991.27         71.8247
991.65        71.02702
992.03        71.24972
992.42        72.36275
992.80        74.50392
993.18        77.40937
993.56        81.07099
993.95        84.60408
994.33        86.46421
994.71        86.06622
995.10        83.89423
995.48        80.93748
995.86        78.80559
996.24        77.96219
996.63         77.9083
997.01         78.5684
997.39         79.5121
997.77        80.45103
998.15        81.57888
998.54        82.47776
998.92        82.45447
999.30        81.41659
999.68        79.50119
1000.06        77.39188
1000.45        76.44038
1000.83        77.13986
1001.21        79.07241
1001.59        81.67503
1001.97        83.95937
1002.35        85.52363
1002.73        86.63428
1003.12        87.16442
1003.50        86.85938
1003.88        85.84052
1004.26        84.16428
1004.64        82.45578
1005.02         81.8363
1005.40         82.5336
1005.78         84.1834
1006.16        86.11729
1006.54        87.38314
1006.92        87.73579
1007.30        87.38619
1007.69        86.52293
1008.07        85.76089
1008.45        85.33566
1008.83         85.1814
1009.21        85.08969
1009.59         84.7374
1009.97        84.03542
1010.35        83.00506
1010.73        82.22049
1011.11        82.55073
1011.49        84.04821
1011.86         86.4982
1012.24         88.5421
1012.62        88.29148
1013.00        85.36196
1013.38        80.12221
1013.76        74.22985
1014.14        71.25866
1014.52        72.55424
1014.90        77.20977
1015.28        82.95316
1015.66        86.17841
1016.04        85.89238
1016.41        83.17854
1016.79        79.19219
1017.17        76.48673
1017.55        76.05398
1017.93        76.85652
1018.31        78.25874
1018.69        79.89108
1019.06         81.8838
1019.44        84.57896
1019.82        88.11171
1020.20        91.29408
1020.58        92.69761
1020.95        91.95065
1021.33        89.98182
1021.71        87.82339
1022.09        85.52062
1022.46         82.6856
1022.84        79.04445
1023.22        74.41378
1023.60        70.07269
1023.97        66.96202
1024.35        65.82549
1024.73        67.07884
