SpectraSmart Spectrum 2.9.0.0
--------- Device Information -----------
Spectrum Name :  反射率_0
Saving Time :  2024/04/30 00:02:40
Spectro-Module Model Name : SE2030-DUVN
Spectro-Module Serial Number : OS361AC55029948
Wavelength Start : 200
Wavelength End : 1025
Wavelength Unit : Wavelength(nm)
Spectrum Unit : Reflectance(%)
-----------Spectrum Setting ------------
Integration Time : 20ms
Average : 10
Boxcar : 0
Background removal :  enabled
linearity correction :  enabled
SC :  disabled
Intensity correction :  disabled
DWT denoise :  enabled
savitzky-golay :  disabled
FFT :  disabled
Running average :  disabled
Kalman :  disabled
High pass :  disabled
---------------BEGIN--------------------
Wavelength(nm)             Reflectance(%)
200.29               0
200.75        79.90061
201.21        61.28991
201.67         41.7944
202.13        27.24253
202.58        20.61212
203.04        21.02979
203.50        28.33233
203.96        41.10846
204.42        56.62093
204.88         73.2714
205.34        84.99588
205.80        84.49851
206.26        74.51241
206.72        61.36023
207.18        48.98545
207.64        38.99952
208.10        30.53562
208.55        21.83723
209.01        14.71227
209.47         14.3898
209.93        20.94607
210.39        31.41294
210.85        40.18968
211.31        42.56311
211.77        38.23769
212.23        26.58138
212.69        10.31513
213.14        4.853402
213.60        16.81949
214.06        36.74503
214.52        53.12183
214.98        58.95929
215.44        55.86325
215.90         46.7184
216.36        35.68277
216.81        30.68467
217.27        35.74869
217.73        50.61786
218.19        73.04966
218.65        88.60392
219.11        87.58813
219.57        76.12374
220.02        63.97037
220.48        57.87617
220.94        57.07737
221.40        59.19738
221.86         62.5022
222.32        62.36894
222.77        57.68119
223.23        52.69433
223.69        48.57652
224.15        45.12551
224.61        41.77457
225.06        37.73995
225.52        34.02453
225.98        33.06807
226.44         35.0967
226.90        38.57717
227.36        41.37359
227.81        41.93822
228.27        40.47103
228.73        37.36596
229.19        33.98332
229.65        33.21483
230.10        35.36546
230.56        38.76139
231.02        41.49295
231.48        41.90961
231.93        40.05611
232.39        36.71762
232.85        32.82776
233.31        30.21458
233.77        29.58003
234.22         30.4831
234.68        32.25824
235.14        33.61157
235.60        34.09079
236.05        34.14471
236.51        34.27279
236.97        35.12328
237.43        36.97078
237.88        39.83693
238.34        43.52943
238.80        47.37908
239.26        50.33841
239.71        52.28093
240.17        53.10848
240.63        53.41833
241.08        53.61025
241.54        53.37194
242.00        53.12328
242.46        54.53891
242.91        58.91217
243.37        65.03613
243.83        70.64111
244.28         74.3235
244.74        76.13489
245.20        76.04955
245.66         74.4399
246.11        72.40994
246.57        70.86803
247.03        70.43045
247.48        69.95399
247.94        66.99567
248.40        62.80388
248.85        58.80144
249.31        57.48432
249.77        60.10453
250.22        67.17464
250.68        80.59931
251.14        100.1312
251.59        110.2668
252.05        100.7687
252.51        84.06743
252.96        71.44109
253.42        66.65421
253.88         67.1481
254.33        70.71188
254.79          75.246
255.25        76.07703
255.70        72.79904
256.16        68.68313
256.62        65.58654
257.07         64.5121
257.53        65.32642
257.99        66.98805
258.44        68.14577
258.90        67.78306
259.35        65.72185
259.81        63.29036
260.27        61.16149
260.72        59.88075
261.18        59.46807
261.63         59.2575
262.09        58.99204
262.55        58.05411
263.00        56.42989
263.46        54.65562
263.91         52.8293
264.37        51.32929
264.83        50.08591
265.28        48.91694
265.74        47.93302
266.19        47.09563
266.65        46.45795
267.11        45.98446
267.56        45.52551
268.02        44.85403
268.47        43.89468
268.93        42.70133
269.38        41.41173
269.84        40.40001
270.30        39.74418
270.75        39.34076
271.21        38.97797
271.66        38.30322
272.12        37.25791
272.57        35.94708
273.03        34.60201
273.48        33.50499
273.94        32.79719
274.39        32.33774
274.85         32.0384
275.31         31.7041
275.76        31.25977
276.22        30.78461
276.67        30.28932
277.13        29.87642
277.58        29.51279
278.04        29.19696
278.49        28.83061
278.95        28.37205
279.40        27.78526
279.86        27.17791
280.31        26.58649
280.77        26.17367
281.22        25.93009
281.68        25.83177
282.13        25.82097
282.59        25.86616
283.04        25.91513
283.50         25.9597
283.95        25.94518
284.41        25.80096
284.86        25.51684
285.32        25.17196
285.77        24.77638
286.22        24.41337
286.68        24.13034
287.13        23.88207
287.59        23.75866
288.04        23.83693
288.50        24.11783
288.95        24.52462
289.41        24.93395
289.86        25.12511
290.32        25.08776
290.77        24.89823
291.22        24.66478
291.68        24.55681
292.13        24.63071
292.59        24.86898
293.04        25.30647
293.50        26.02219
293.95        27.00697
294.40        28.24887
294.86        29.60905
295.31        30.87296
295.77        31.97811
296.22        32.95744
296.68         33.9391
297.13        35.10996
297.58        36.51718
298.04        38.06673
298.49        39.63515
298.95        41.03983
299.40         42.2357
299.85        43.29923
300.31        44.33913
300.76        45.44651
301.21        46.68403
301.67         48.0278
302.12        49.41428
302.58        50.89652
303.03           52.43
303.48        53.91955
303.94        55.34536
304.39        57.09737
304.84        58.40337
305.30        59.88149
305.75        61.24876
306.20        62.49966
306.66        63.64539
307.11        64.65974
307.57        65.63346
308.02        66.59139
308.47        67.57887
308.93        68.58509
309.38        69.56096
309.83        70.49687
310.29        71.38229
310.74        72.21679
311.19        72.95601
311.65        73.51974
312.10        73.89823
312.55        74.13529
313.00        74.38221
313.46        74.87711
313.91        75.64439
314.36        76.61246
314.82        77.59949
315.27        78.33425
315.72        78.72162
316.18        78.84483
316.63        78.80844
317.08        78.79696
317.53         78.8874
317.99        79.05532
318.44        79.25362
318.89        79.42175
319.35        79.54453
319.80         79.6447
320.25        79.81597
320.70        80.19798
321.16        80.77779
321.61        81.53694
322.06        82.25045
322.51        82.56909
322.97        82.41405
323.42        81.90099
323.87        81.29074
324.32        81.01686
324.78        81.17683
325.23        81.70472
325.68        82.37373
326.13        82.79332
326.59        82.83403
327.04        82.64062
327.49        82.40963
327.94        82.49814
328.39        82.98596
328.85        83.70988
329.30        84.50111
329.75        84.91763
330.20        84.84241
330.66        84.41841
331.11        83.88969
331.56        83.58161
332.01        83.62296
332.46        83.92902
332.92        84.41035
333.37        85.02753
333.82        85.67984
334.27        86.38274
334.72        87.09525
335.17        87.74344
335.63        88.27866
336.08        88.74514
336.53        89.08761
336.98        89.29048
337.43        89.37438
337.88          89.353
338.34        89.35662
338.79        89.61076
339.24        90.15078
339.69        90.93382
340.14        91.77343
340.59        92.33979
341.05        92.56037
341.50        92.54129
341.95        92.46663
342.40        92.65043
342.85        93.16254
343.30        93.86879
343.75        94.64567
344.20        95.30004
344.66        95.77177
345.11        96.13858
345.56          96.367
346.01        96.39146
346.46        96.25062
346.91        95.97418
347.36        95.78249
347.81        96.01696
348.26        96.72039
348.72        97.76919
349.17        98.91883
349.62        99.68532
350.07        99.92925
350.52        99.80881
350.97        99.51215
351.42        99.33656
351.87        99.38659
352.32        99.56275
352.77        99.86713
353.22        100.3127
353.67        100.8492
354.13        101.4465
354.58         101.965
355.03         102.165
355.48        101.9877
355.93        101.5011
356.38        100.7986
356.83        100.0362
357.28        99.29041
357.73        98.54756
358.18         97.8607
358.63        97.30175
359.08        96.87927
359.53        96.58515
359.98        96.34981
360.43        96.04838
360.88        95.64323
361.33        95.15685
361.78        94.62463
362.23        94.11196
362.68         93.6382
363.13        93.18253
363.58        92.72655
364.03        92.24274
364.48        91.72723
364.93        91.19702
365.38         90.6785
365.83        90.21239
366.28        89.80762
366.73        89.44643
367.18         89.1018
367.63        88.72987
368.08        88.31265
368.53        87.86093
368.98         87.3815
369.43        86.88415
369.88        86.38632
370.33         85.9018
370.78        85.43939
371.23        85.01704
371.68        84.63548
372.13        84.26797
372.58        83.94285
373.03        83.70384
373.48        83.53094
373.93        83.39878
374.38        83.17218
374.83        82.64039
375.28        81.79752
375.72        80.72645
376.17        79.68909
376.62        78.92539
377.07        78.48816
377.52        78.28751
377.97        78.23988
378.42        78.20676
378.87        78.12239
379.32        78.01684
379.77        77.85583
380.22        77.58738
380.67        77.20219
381.11        76.69759
381.56        76.12886
382.01        75.61604
382.46        75.20821
382.91        74.90301
383.36         74.6421
383.81        74.32339
384.26        73.92454
384.71        73.46786
385.15        73.03434
385.60        72.80206
386.05        72.76618
386.50        72.86526
386.95        72.93636
387.40        72.73396
387.85        72.23453
388.29        71.50328
388.74        70.81116
389.19        70.33897
389.64        70.12197
390.09        70.06711
390.54        70.09321
390.98        70.05609
391.43        69.93639
391.88        69.76925
392.33        69.53188
392.78        69.22814
393.23        68.88111
393.67        68.39079
394.12        67.88606
394.57        67.78053
395.02        67.46959
395.47        67.41262
395.91        67.39714
396.36        67.34278
396.81        67.23614
397.26        67.10917
397.71        66.95313
398.15        66.70765
398.60        66.45407
399.05        66.16482
399.50        65.88547
399.95        65.75076
400.39        65.53986
400.84         65.7209
401.29        66.06546
401.74        66.09093
402.18        65.73313
402.63         65.1906
403.08        64.70792
403.53        64.56217
403.97        64.80437
404.42        65.33836
404.87        65.88853
405.32        66.01411
405.76        65.61568
406.21        64.87114
406.66        64.04139
407.11        63.54345
407.55        63.50244
408.00        63.75696
408.45        64.15392
408.90        64.45452
409.34        64.53288
409.79        64.36475
410.24        64.09353
410.68        64.02335
411.13        64.20004
411.58        64.47615
412.03        64.72838
412.47        64.80135
412.92        64.62657
413.37        64.29993
413.81        63.91085
414.26        63.65567
414.71        63.55087
415.15        63.55573
415.60        63.62207
416.05        63.71289
416.49        63.80994
416.94        63.93143
417.39        64.04342
417.83        64.07151
418.28        64.01744
418.73        63.89815
419.17        63.80099
419.62        63.88291
420.07         64.1466
420.51        64.51344
420.96        64.89922
421.41        65.07481
421.85        64.96911
422.30        64.88625
422.74        64.79209
423.19        64.35599
423.64        63.76571
424.08        63.88703
424.53        64.60863
424.98        64.99045
425.42        64.94366
425.87        65.05397
426.31        65.30838
426.76        65.28525
427.21         64.9225
427.65        64.94587
428.10        65.24869
428.54        65.28748
428.99        65.08544
429.44        64.90317
429.88        64.82043
430.33         64.9012
430.77        65.10806
431.22        65.59417
431.66        66.23662
432.11        66.44315
432.56        66.18862
433.00        66.08091
433.45        66.42734
433.89        66.26443
434.34        67.23645
434.78        68.28335
435.23        66.46957
435.67        65.87609
436.12        65.76463
436.57         66.0202
437.01        66.44278
437.46         67.1216
437.90        67.07457
438.35        67.19312
438.79        67.76209
439.24        67.93298
439.68        67.91123
440.13        68.06074
440.57        68.41297
441.02        68.59834
441.46        68.54292
441.91        68.69224
442.35        69.03246
442.80        68.48379
443.24        69.17036
443.69         68.9884
444.13        68.63074
444.58        68.43285
445.02        68.36965
445.47        68.31928
445.91        68.29678
446.36        68.27151
446.80        68.18029
447.24        68.89105
447.69        68.80399
448.13        69.02491
448.58        69.09138
449.02        69.05733
449.47        69.00243
449.91        69.04454
450.36        69.23621
450.80        69.50764
451.25        69.80193
451.69        69.99506
452.13        70.05911
452.58        70.05413
453.02        70.02312
453.47        70.01433
453.91        70.02337
454.36        70.21991
454.80        70.23291
455.24        70.26679
455.69        70.21703
456.13        70.16827
456.58        70.13612
457.02        69.91422
457.46        69.61069
457.91        69.60929
458.35        69.82318
458.79        69.87511
459.24        69.77211
459.68        69.74997
460.13        69.84526
460.57        69.71671
461.01        69.87874
461.46        69.75746
461.90        69.53638
462.34         69.8326
462.79        70.16812
463.23        69.98663
463.68        69.30148
464.12        69.01695
464.56        69.17553
465.01        69.20604
465.45        69.06477
465.89         69.1862
466.34        69.47736
466.78        69.61282
467.22         69.3607
467.67        69.19839
468.11        69.10869
468.55        68.87091
468.99         68.5601
469.44        68.37891
469.88        68.35491
470.32        68.45078
470.77        68.57669
471.21        68.60428
471.65        68.48811
472.10        68.28883
472.54        68.08808
472.98        68.02902
473.42        68.12684
473.87        68.39679
474.31        68.70461
474.75        68.69592
475.20         68.4319
475.64        68.40139
476.08        68.58679
476.52        68.47416
476.97        68.03782
477.41        67.95072
477.85        67.51633
478.29        67.44215
478.74        68.07758
479.18        68.14733
479.62        67.60406
480.06        67.49691
480.50          67.772
480.95        67.64793
481.39         68.2256
481.83        67.47935
482.27        68.53519
482.72        68.18562
483.16         68.2654
483.60        68.24841
484.04        68.47955
484.48        68.69487
484.93        68.62501
485.37        68.65529
485.81        68.08556
486.25        66.84784
486.69        68.11698
487.14        68.37302
487.58         67.9817
488.02        67.27415
488.46        68.51239
488.90        68.17578
489.34        67.87347
489.79        68.62641
490.23        67.69471
490.67        67.70655
491.11        67.73431
491.55        67.68607
491.99        67.54211
492.43        67.49702
492.88        67.57231
493.32        67.68327
493.76        67.81126
494.20         67.9531
494.64         68.0856
495.08        68.24711
495.52        68.38081
495.96        68.28068
496.41        68.00857
496.85        67.90682
497.29         67.9081
497.73        67.91097
498.17        67.21928
498.61        67.20721
499.05        67.59011
499.49        67.65553
499.93        67.34937
500.37        67.20756
500.82        67.30655
501.26        67.09061
501.70        66.93184
502.14        67.36224
502.58        67.10889
503.02        67.26396
503.46        67.41032
503.90        67.57388
504.34         67.7149
504.78        67.81589
505.22        67.87617
505.66        67.86568
506.10        67.79706
506.54        67.77254
506.98        67.81882
507.42        67.78168
507.86        67.58225
508.30        67.85799
508.74        67.36782
509.18        67.14097
509.62        66.91207
510.06        66.87123
510.50        67.03416
510.94        67.35658
511.38        67.71861
511.82        67.88627
512.26        67.80524
512.70        67.55003
513.14         67.2287
513.58        67.00896
514.02        66.94197
514.46        66.97507
514.90        67.07022
515.34        67.16793
515.78        67.23885
516.22        67.30145
516.66        67.34903
517.10        67.36413
517.54        67.34496
517.98        67.29164
518.42        67.20779
518.86        67.10831
519.30        67.00384
519.74        66.89507
520.18        66.80798
520.62        66.77592
521.06        66.80735
521.50        66.90481
521.93        67.03012
522.37        67.09517
522.81         67.0898
523.25        67.02453
523.69        66.96937
524.13        67.03789
524.57        67.24065
525.01        67.53198
525.45         67.8011
525.89        67.86946
526.32        67.69228
526.76        67.35812
527.20        66.97582
527.64        66.71642
528.08         66.6288
528.52        66.66327
528.96        66.77087
529.40        66.87219
529.83        66.93037
530.27        66.97613
530.71        67.00668
531.15        67.02144
531.59        67.02084
532.03        66.99622
532.46        66.94043
532.90        66.87714
533.34        66.80893
533.78        66.74293
534.22        66.68924
534.66        66.65979
535.09        66.65032
535.53        66.66919
535.97        66.70531
536.41        66.75435
536.85        66.80991
537.28        66.86626
537.72        66.90489
538.16        66.89919
538.60        66.84113
539.04        66.72573
539.47        66.57939
539.91        66.51032
540.35        66.51589
540.79        66.57932
541.22        66.64567
541.66        66.64095
542.10        66.54778
542.54         66.3997
542.97        66.25491
543.41        66.22192
543.85        66.31124
544.29        66.49799
544.72        66.68607
545.16        66.76265
545.60        66.69772
546.04        66.50155
546.47         66.2728
546.91        66.27319
547.35        66.49252
547.79        66.65837
548.22        66.69119
548.66        66.82812
549.10        67.06004
549.53        67.05013
549.97        66.71823
550.41        67.29617
550.84        66.77438
551.28        66.69859
551.72        66.49946
552.15        66.61098
552.59        66.56242
553.03        66.61127
553.46         66.6166
553.90         66.6328
554.34        66.63784
554.77        66.65399
555.21        66.67862
555.65        66.56999
556.08        66.38839
556.52          66.465
556.96        66.74932
557.39        66.90325
557.83        66.91409
558.27         66.9886
558.70        67.14311
559.14         67.1207
559.57        67.13608
560.01         67.1709
560.45        67.26606
560.88        66.98612
561.32         66.7583
561.75        66.74607
562.19        66.99471
562.63        66.96327
563.06        66.67876
563.50        66.63463
563.93        66.79128
564.37        66.84724
564.80         66.7748
565.24         66.7453
565.68        66.75286
566.11        66.77984
566.55        66.83028
566.98        66.77983
567.42        66.72244
567.85        66.75272
568.29        66.88096
568.72        67.04601
569.16        67.57579
569.60        67.03368
570.03        67.40211
570.47        67.33545
570.90        67.43742
571.34        67.00108
571.77        67.35561
572.21         67.4781
572.64        67.65792
573.08         67.6183
573.51        67.29666
573.95        67.27178
574.38        67.73906
574.82        67.26207
575.25        67.59547
575.69        67.53109
576.12        67.25563
576.56        66.87147
576.99        67.13043
577.42        67.19408
577.86        67.20167
578.29        66.92278
578.73        67.97185
579.16        67.20929
579.60        67.42528
580.03        67.21809
580.47        67.49329
580.90         67.5693
581.33        67.03236
581.77        67.04821
582.20        67.31276
582.64        67.84946
583.07        67.13825
583.51        66.87578
583.94        66.88944
584.37        66.67906
584.81        66.46558
585.24        66.84847
585.68        67.19765
586.11        67.96861
586.54        66.99359
586.98        66.74171
587.41        67.44324
587.85        67.77254
588.28        67.42715
588.71        67.77744
589.15         67.0307
589.58        66.91705
590.01        66.48568
590.45        66.61873
590.88        67.13528
591.31        67.45125
591.75        67.31472
592.18        67.32464
592.61        67.80756
593.05        66.21262
593.48        67.28175
593.91        67.95987
594.35        66.84376
594.78         66.5451
595.21        66.23929
595.65        67.04362
596.08        66.59814
596.51        66.88311
596.94         67.1311
597.38         67.2161
597.81        67.05055
598.24         66.9798
598.68        66.99058
599.11        66.40718
599.54        67.27052
599.97        67.61556
600.41        66.44853
600.84        66.72787
601.27         66.7263
601.70        67.11736
602.14        67.30608
602.57        67.05323
603.00        66.49595
603.43        66.44232
603.87        66.67313
604.30        67.22268
604.73         66.8796
605.16        66.86719
605.60        66.87898
606.03        67.06388
606.46        67.22544
606.89        67.54935
607.32        67.04028
607.76        66.97139
608.19         67.1114
608.62        67.13013
609.05        67.03213
609.48        67.13734
609.92        67.30891
610.35        67.17736
610.78          67.328
611.21        67.07253
611.64        67.00739
612.07        66.98826
612.50        67.10892
612.94        67.20714
613.37        67.31586
613.80        67.20665
614.23        67.44809
614.66        67.44825
615.09        67.40288
615.52        67.33548
615.96        67.20512
616.39        67.44881
616.82        66.92022
617.25        67.09225
617.68        66.77895
618.11        66.94291
618.54         67.2191
618.97        67.19646
619.40         66.9464
619.84        66.88523
620.27        67.07674
620.70        67.37875
621.13          67.667
621.56         67.2823
621.99        67.10769
622.42        66.46181
622.85        67.30486
623.28        66.86596
623.71        67.48777
624.14        66.32514
624.57        67.05358
625.00         66.9844
625.43        67.03891
625.86        66.93969
626.29        66.72189
626.72        67.13339
627.15        66.84772
627.58        66.99516
628.01        67.10985
628.44        66.96307
628.87        66.65881
629.30        66.49359
629.73        66.94971
630.16        67.06595
630.59        66.95345
631.02        67.06956
631.45        67.11438
631.88        67.17499
632.31        67.14774
632.74        67.08951
633.17        66.99422
633.60        66.86442
634.03        66.71433
634.46        66.53542
634.89        66.37496
635.32        66.31969
635.75        66.37991
636.18        66.51949
636.61        66.67979
637.04         66.7778
637.47         66.8009
637.89        66.72958
638.32        66.55321
638.75        66.46146
639.18        66.50759
639.61        65.99473
640.04        66.14059
640.47        66.02721
640.90        66.01925
641.33        66.09492
641.76        66.21674
642.18        66.29592
642.61        66.27715
643.04        66.19432
643.47        66.12039
643.90        66.15748
644.33        66.31178
644.76        66.62136
645.18        66.95843
645.61        66.93343
646.04        66.46202
646.47        66.38151
646.90        66.60195
647.33         66.5631
647.75        66.25315
648.18        65.93942
648.61        65.74451
649.04        65.88283
649.47        66.28849
649.89        66.57092
650.32        66.60959
650.75        66.64018
651.18        66.70238
651.61        66.53495
652.03        66.27496
652.46        66.64304
652.89        67.39658
653.32        67.32011
653.74        66.51721
654.17        66.35427
654.60        65.85915
655.03        67.05157
655.46        65.90121
655.88        66.84945
656.31        67.75151
656.74        69.62278
657.16        69.96854
657.59        68.17835
658.02        66.58703
658.45        67.17271
658.87        67.23871
659.30        66.53996
659.73        67.61651
660.15         67.5224
660.58         67.6543
661.01        67.32484
661.44        66.85394
661.86        66.42787
662.29        66.14935
662.72        66.36485
663.14        66.89787
663.57        66.73791
664.00        66.10252
664.42        65.93006
664.85        66.29678
665.27        66.56476
665.70        66.65065
666.13        66.76984
666.55        66.90684
666.98        66.97388
667.41         66.9882
667.83        66.98717
668.26        66.97294
668.69        66.95064
669.11        66.91721
669.54         66.8704
669.96         66.8139
670.39        66.75152
670.82        66.69514
671.24        66.67269
671.67        66.67522
672.09        66.69173
672.52        66.72697
672.94        66.84634
673.37        66.52742
673.80        66.95216
674.22        66.64213
674.65         66.7391
675.07        66.86003
675.50        67.01309
675.92        67.15182
676.35        67.19405
676.77        67.14322
677.20        67.00544
677.62        66.85869
678.05         66.8263
678.47        66.92808
678.90        67.13029
679.32        67.34109
679.75        67.42447
680.17        67.34187
680.60        67.14808
681.02        66.92283
681.45        66.78526
681.87        66.77245
682.30        66.86737
682.72         67.0295
683.15        67.05769
683.57        66.98637
684.00        67.05797
684.42        67.24742
684.85        67.33768
685.27        67.31804
685.70        67.26585
686.12          67.243
686.54        67.44671
686.97        67.81245
687.39        68.12149
687.82        68.25321
688.24        68.26594
688.66         68.1371
689.09         67.8036
689.51        67.37109
689.94        67.08657
690.36        67.00702
690.78        67.00659
691.21         67.0679
691.63        67.31814
692.06        67.65109
692.48        67.73248
692.90        67.58836
693.33        67.56036
693.75        67.66865
694.17        67.69382
694.60        67.63494
695.02        67.59911
695.44        67.58926
695.87        67.62556
696.29        67.69283
696.71        67.63066
697.14        67.48801
697.56        67.49417
697.98        67.65331
698.41        67.77324
698.83        67.83366
699.25        67.96001
699.68        68.08733
700.10        68.10426
700.52        67.98024
700.94        67.75987
701.37        67.50769
701.79        67.34771
702.21        67.30368
702.64        67.35374
703.06        67.45215
703.48         67.5321
703.90        67.57701
704.33        67.62551
704.75        67.65852
705.17        67.71373
705.59        67.77188
706.01         67.8141
706.44        67.86192
706.86        67.93707
707.28        68.03186
707.70        68.20649
708.12        68.39986
708.55        68.35743
708.97        68.13459
709.39        68.08554
709.81         68.2416
710.23        68.36413
710.66        68.44257
711.08        68.65894
711.50        68.93555
711.92        69.08997
712.34        69.09649
712.76        69.00395
713.19         68.8551
713.61        68.77209
714.03        68.76908
714.45        68.81493
714.87        68.87981
715.29        68.91835
715.71        68.91534
716.13        68.88752
716.56        68.82806
716.98        68.81133
717.40        68.82011
717.82        68.83917
718.24        68.85893
718.66        68.86674
719.08        68.85855
719.50        68.84254
719.92        68.81813
720.34        68.78238
720.76        68.73784
721.19        68.67619
721.61        68.62605
722.03        68.60886
722.45        68.62614
722.87        68.66696
723.29        68.70584
723.71        68.70078
724.13          68.643
724.55        68.55046
724.97        68.44458
725.39        68.35741
725.81        68.30856
726.23        68.29931
726.65        68.33175
727.07        68.41044
727.49        68.52711
727.91        68.66077
728.33        68.81456
728.75        68.99302
729.17        69.18076
729.59        69.37489
730.01        69.49464
730.43        69.41389
730.85          69.133
731.27         68.7127
731.69        68.31015
732.10        68.16784
732.52        68.33574
732.94        68.74389
733.36        69.26241
733.78        69.64727
734.20        69.80603
734.62        69.81027
735.04        69.73441
735.46        69.66646
735.88        69.66658
736.30        69.76808
736.72        69.89316
737.13         69.9162
737.55        69.74264
737.97        69.33118
738.39        68.84663
738.81          68.597
739.23        68.66551
739.65        69.05975
740.06         69.5402
740.48        69.70383
740.90        69.47051
741.32        69.01881
741.74        68.53111
742.16        68.29704
742.57        68.41834
742.99        68.70866
743.41        69.06972
743.83        69.51497
744.25        69.89999
744.67        69.86514
745.08        69.51326
745.50        69.37234
745.92        69.51297
746.34        69.63692
746.75         69.7095
747.17        69.80504
747.59        69.90614
748.01        70.00038
748.42        70.07659
748.84        70.08184
749.26        70.02189
749.68        69.91483
750.09        69.77505
750.51        69.66044
750.93        69.57456
751.35        69.50852
751.76        69.47454
752.18          69.481
752.60        69.52345
753.01        69.60799
753.43        69.68259
753.85        69.69054
754.27        69.63361
754.68         69.5593
755.10        69.49436
755.52        69.48174
755.93        69.51518
756.35        69.55357
756.77        69.66522
757.18        69.87438
757.60        70.16209
758.02        70.76743
758.43        71.41293
758.85        71.08324
759.26         70.0175
759.68         69.6409
760.10        70.01854
760.51        70.18272
760.93          70.118
761.34        70.15678
761.76        70.71831
762.18        70.76214
762.59        70.44364
763.01         69.9754
763.42        69.55848
763.84        69.34583
764.26        69.40616
764.67        69.65498
765.09        70.00701
765.50        70.33691
765.92         70.5664
766.33        70.59989
766.75        70.40766
767.16        70.30486
767.58        70.29278
768.00        70.17384
768.41        70.00042
768.83        70.07703
769.24        70.30935
769.66        70.32718
770.07        70.14305
770.49        69.98864
770.90         69.9572
771.32         70.2466
771.73        70.73872
772.15        70.85647
772.56        70.55473
772.97        70.37819
773.39        69.97734
773.80        69.95733
774.22        70.18945
774.63         70.6704
775.05        71.17525
775.46        71.43552
775.88        71.34463
776.29        71.01744
776.70        70.58551
777.12        70.29069
777.53        70.21548
777.95        70.27127
778.36        70.41683
778.77        70.57421
779.19        70.71568
779.60        70.90833
780.02        71.09003
780.43        71.28374
780.84        71.48641
781.26        71.40701
781.67        71.18034
782.09        71.66161
782.50        72.65224
782.91        72.44521
783.33        71.83582
783.74        71.36201
784.15        71.31969
784.57        71.04217
784.98        70.61287
785.39        70.47133
785.81        70.64909
786.22        71.01964
786.63        71.50375
787.04        71.97105
787.46        72.36057
787.87        72.67953
788.28        72.90718
788.70        73.00248
789.11        72.96435
789.52         72.8294
789.93        72.63197
790.35        72.42815
790.76        72.25682
791.17        72.11043
791.58         72.0532
792.00        72.10029
792.41         72.2541
792.82        72.66176
793.23        73.17347
793.65        73.09895
794.06        72.60374
794.47        72.72047
794.88        73.31224
795.29        73.37599
795.71        72.85601
796.12        72.35257
796.53        72.03097
796.94        71.92583
797.35        72.10223
797.76        72.55216
798.18        73.09835
798.59        73.48933
799.00        73.62569
799.41        73.57463
799.82        73.41047
800.23        73.27683
800.64        73.22668
801.06        73.17931
801.47        73.18363
801.88        73.24986
802.29        73.36345
802.70        73.51873
803.11        73.65488
803.52        73.65625
803.93        73.51339
804.34        73.28017
804.75        73.00555
805.17        72.82593
805.58        72.82241
805.99        72.77155
806.40        72.74756
806.81        73.27199
807.22         74.1442
807.63        74.40252
808.04        74.06187
808.45        73.99432
808.86        74.24724
809.27        74.28507
809.68        74.08203
810.09        73.89192
810.50        73.74397
810.91        73.57612
811.32        73.45901
811.73        73.49709
812.14        73.69736
812.55        74.04179
812.96        74.40288
813.37         74.5337
813.78        74.37602
814.19        74.01894
814.60        73.60045
815.01        73.31673
815.42        73.21951
815.83         73.2496
816.24        73.37791
816.65        73.54388
817.05        73.70581
817.46        73.84276
817.87        73.94736
818.28        73.94888
818.69        73.84843
819.10        73.67191
819.51        73.47374
819.92         73.3679
820.33        73.39185
820.74        73.49358
821.14        73.68237
821.55        73.98045
821.96        74.35896
822.37        74.82169
822.78        75.20547
823.19        75.21973
823.60        74.80258
824.00        74.03548
824.41        73.18549
824.82        72.70243
825.23        72.69337
825.64        73.06676
826.04        73.59003
826.45        73.75799
826.86        73.46835
827.27        72.87656
827.68        72.26481
828.08        72.09874
828.49        72.44511
828.90        73.18333
829.31         74.0808
829.72        74.74658
830.12        75.06701
830.53        75.05671
830.94        74.90383
831.35        74.88404
831.75        75.09671
832.16        75.38802
832.57        75.61145
832.97        75.48838
833.38        74.98994
833.79        74.30233
834.20        73.63201
834.60        73.24339
835.01         73.2293
835.42        73.45641
835.82        73.91882
836.23        74.53508
836.64        75.24565
837.04        76.08776
837.45        76.74007
837.86         76.8374
838.26        76.31886
838.67        75.30981
839.08        74.17722
839.48        73.47794
839.89        73.39462
840.29        73.77022
840.70        74.38818
841.11         74.8928
841.51        75.18305
841.92        75.32659
842.33        75.39888
842.73        75.51086
843.14        75.64365
843.54        75.76112
843.95        75.84398
844.35        75.94714
844.76         76.0455
845.17        76.12652
845.57        76.16178
845.98        76.06023
846.38        75.83089
846.79          75.507
847.19        75.11208
847.60        74.63821
848.00        74.14794
848.41        73.67802
848.81        73.35957
849.22        73.37415
849.62        73.77317
850.03        74.44084
850.43        75.27593
850.84        75.88953
851.24        76.20535
851.65        76.19843
852.05        75.96644
852.46        75.63399
852.86        75.26885
853.27        74.94855
853.67        74.58745
854.07        74.24319
854.48        73.87259
854.88        73.49088
855.29        73.16548
855.69        73.23338
856.10        73.64993
856.50        74.41209
856.90        75.12155
857.31        75.22638
857.71        74.68073
858.12        73.60761
858.52        72.44471
858.92        71.88879
859.33        72.11594
859.73         72.9624
860.13         74.0671
860.54        74.83842
860.94        75.12283
861.34        74.99643
861.75        74.57269
862.15        74.11626
862.55        73.70252
862.96         73.2883
863.36        72.77657
863.76        72.04876
864.17        71.15042
864.57         70.2087
864.97        69.44507
865.38        69.12286
865.78        69.31771
866.18        69.91272
866.58        70.77026
866.99        71.56792
867.39        72.18621
867.79        72.65466
868.19         72.8767
868.60        72.73397
869.00        72.25993
869.40        71.46402
869.80        70.71637
870.21        70.65505
870.61        71.43886
871.01        72.83648
871.41        74.27998
871.81        74.85573
872.22         74.3453
872.62        73.02443
873.02        71.39095
873.42        70.28739
873.82        69.98803
874.22        70.28098
874.63        70.82508
875.03        71.08779
875.43         70.9322
875.83         70.5333
876.23        70.19518
876.63        70.39877
877.03        71.21855
877.44        72.39442
877.84        73.57573
878.24        74.11648
878.64        73.87503
879.04        73.11652
879.44        72.14445
879.84          71.397
880.24        71.00594
880.64        70.81222
881.04        70.84964
881.44        71.16724
881.84        71.72862
882.24        72.57178
882.65        73.34158
883.05        73.54078
883.45        73.02184
883.85        71.96268
884.25        70.89314
884.65        70.63211
885.05        71.32227
885.45        72.67167
885.85        74.22469
886.25        75.19334
886.65        75.30183
887.05        74.80215
887.45        73.85647
887.85        72.76215
888.25        71.74372
888.65        70.78302
889.04        70.03636
889.44        69.78515
889.84        69.99603
890.24        70.63251
890.64        71.52634
891.04        72.25785
891.44        72.63855
891.84        72.76061
892.24        72.71044
892.64        72.65028
893.04         72.6423
893.44        72.61243
893.83          72.672
894.23        72.94246
894.63        73.45168
895.03        74.16502
895.43        74.85275
895.83        75.15708
896.23        75.00416
896.63        74.46071
897.02        73.78168
897.42        73.46037
897.82        73.59221
898.22        74.07792
898.62        74.57326
899.01        74.51352
899.41        73.78203
899.81        72.59103
900.21        71.40354
900.61        70.91763
901.00        71.26643
901.40        72.21874
901.80        73.30061
902.20        73.73537
902.59        73.32156
902.99         72.3167
903.39        71.13107
903.79        70.37509
904.18        70.21029
904.58        70.46702
904.98        70.89725
905.38        71.13596
905.77        71.05605
906.17        70.77999
906.57        70.47662
906.96        70.42638
907.36        70.65977
907.76        71.10499
908.15        71.54038
908.55        71.49242
908.95         70.9484
909.34        70.06888
909.74        69.30508
910.14        69.20409
910.53        69.91066
910.93        71.19267
911.33        72.75938
911.72        74.16154
912.12        75.12875
912.52        75.75966
912.91        76.11683
913.31        76.30967
913.70        76.38413
914.10        76.25425
914.49        75.85918
914.89        75.10635
915.29        74.06698
915.68        72.88616
916.08         71.8306
916.47        71.15274
916.87        70.97196
917.26        71.15585
917.66         71.6628
918.05        72.43082
918.45        73.31571
918.84        74.35855
919.24        75.20788
919.64        75.43207
920.03        74.96352
920.42        73.90738
920.82        72.72991
921.21        72.06506
921.61        72.08263
922.00        72.63209
922.40        73.41442
922.79        73.98175
923.19         74.1433
923.58         74.0612
923.98        73.86352
924.37        73.75832
924.77        73.79768
925.16        73.89002
925.55        73.96665
925.95         73.9445
926.34         73.8194
926.74        73.62874
927.13         73.4057
927.52        73.14976
927.92        72.89008
928.31        72.61843
928.70        72.38397
929.10        72.25185
929.49        72.22985
929.89        72.26346
930.28        72.33215
930.67        72.31827
931.07         72.1942
931.46        72.02979
931.85        71.82072
932.24        71.56548
932.64        71.30367
933.03        71.05302
933.42        70.94331
933.82        71.17625
934.21        71.78736
934.60        72.63808
934.99        73.56652
935.39        74.28497
935.78        74.73839
936.17        74.97274
936.56        74.84754
936.96        74.20602
937.35        73.13253
937.74        71.75575
938.13         70.5453
938.53        70.08749
938.92        70.42733
939.31        71.46425
939.70        72.77229
940.09        73.49953
940.49        73.35364
940.88        72.57569
941.27        71.61258
941.66        71.15137
942.05         71.3598
942.44        72.07435
942.84        72.89187
943.23        73.17662
943.62        72.70789
944.01        71.70052
944.40        70.72952
944.79        70.62486
945.18        71.52782
945.57        73.19034
945.97        74.86953
946.36        75.52265
946.75        74.76826
947.14        72.98163
947.53        70.98013
947.92        69.98975
948.31        70.31842
948.70        71.64211
949.09        73.31355
949.48         74.1554
949.87         73.7999
950.26        72.62441
950.65        71.28748
951.04        70.69231
951.43        71.04266
951.82        72.08722
952.21        73.27641
952.60        73.64315
952.99        72.92828
953.38        71.46616
953.77        69.99793
954.16        69.49225
954.55        70.12931
954.94        71.71808
955.33        73.53534
955.72        74.04284
956.11        72.78391
956.50        70.34072
956.89        67.89622
957.28        66.97692
957.66        67.90197
958.05         70.1564
958.44        72.94184
958.83        74.59117
959.22        74.48632
959.61        73.20248
960.00        71.50067
960.39        70.34455
960.78        69.94431
961.16        69.98868
961.55        70.21292
961.94        70.25224
962.33        69.96629
962.72        69.60864
963.11        69.23692
963.49        68.84583
963.88        68.47396
964.27        68.09803
964.66         67.8754
965.04        68.16496
965.43        68.92625
965.82        70.02319
966.21        71.20605
966.60        71.99838
966.98        72.23886
967.37        72.12711
967.76        71.66092
968.15        70.82152
968.53        69.66891
968.92        68.12386
969.31        66.73543
969.69         66.5707
970.08         67.8527
970.47        70.45671
970.86        73.24836
971.24        74.21439
971.63        72.86979
972.02        69.88712
972.40         66.7449
972.79        65.72103
973.17        67.23458
973.56        70.44962
973.95        74.20266
974.33        76.32359
974.72          76.016
975.11        74.02788
975.49        71.34644
975.88        69.76865
976.26        69.77909
976.65        70.79453
977.04        72.27191
977.42        73.25237
977.81        73.23606
978.19        72.66312
978.58        71.88911
978.96        71.31597
979.35        71.15491
979.74        71.26697
980.12        71.58788
980.51        71.99812
980.89        72.48718
981.28         72.9132
981.66        73.52823
982.05        74.46173
982.43        75.79268
982.82        77.39207
983.20        78.63151
983.59        78.33685
983.97        76.40381
984.35        73.32763
984.74        70.37043
985.12        69.26315
985.51        70.25141
985.89        72.87154
986.28        75.99001
986.66        78.06104
987.04        78.37836
987.43        77.43372
987.81        75.69302
988.20        74.27126
988.58        73.49437
988.96        73.08293
989.35        72.57446
989.73        71.51064
990.12        69.77021
990.50        67.72608
990.88        65.84199
991.27        64.77719
991.65        64.64938
992.03        65.29933
992.42        66.41558
992.80        67.82899
993.18        69.31972
993.56        70.92685
993.95        72.45369
994.33        73.68334
994.71        74.41356
995.10        74.70632
995.48        74.69906
995.86        74.74169
996.24        74.95583
996.63        75.14764
997.01        75.50653
997.39        76.12395
997.77        76.94002
998.15        77.97134
998.54        78.74423
998.92        78.52215
999.30        77.18453
999.68        74.92052
1000.06        72.52163
1000.45        71.46227
1000.83        72.25681
1001.21        74.48732
1001.59        77.27484
1001.97        79.14124
1002.35        79.60196
1002.73        79.03345
1003.12        77.89183
1003.50        76.82915
1003.88        76.14861
1004.26        75.69714
1004.64        75.35186
1005.02        74.96146
1005.40        74.52237
1005.78        74.13752
1006.16        74.08035
1006.54        74.69662
1006.92        76.02863
1007.30        78.02387
1007.69        80.11748
1008.07        81.24398
1008.45        80.89693
1008.83        79.25213
1009.21        77.13428
1009.59         76.0304
1009.97        76.32542
1010.35         77.5586
1010.73          78.965
1011.11        79.27119
1011.49        78.17245
1011.86        76.26863
1012.24        73.87431
1012.62        71.62099
1013.00        69.71673
1013.38        67.88406
1013.76         66.3614
1014.14        65.71241
1014.52        66.07914
1014.90        67.42838
1015.28        68.95068
1015.66        69.29724
1016.04        68.18449
1016.41        65.96212
1016.79         63.5166
1017.17        62.69383
1017.55        63.85817
1017.93        66.08553
1018.31         68.5121
1018.69        70.58626
1019.06        72.50738
1019.44        74.55665
1019.82        77.00898
1020.20        79.51554
1020.58        81.20619
1020.95        81.52785
1021.33         80.7511
1021.71        79.27688
1022.09        77.11057
1022.46        73.94817
1022.84        69.80786
1023.22        65.21109
1023.60        61.57479
1023.97        59.36768
1024.35        58.73957
1024.73        59.50983
