SpectraSmart Spectrum 2.9.0.0
--------- Device Information -----------
Spectrum Name :  反射率_0
Saving Time :  2024/04/30 00:18:39
Spectro-Module Model Name : SE2030-DUVN
Spectro-Module Serial Number : OS361AC55029948
Wavelength Start : 200
Wavelength End : 1025
Wavelength Unit : Wavelength(nm)
Spectrum Unit : Reflectance(%)
-----------Spectrum Setting ------------
Integration Time : 20ms
Average : 10
Boxcar : 0
Background removal :  enabled
linearity correction :  enabled
SC :  disabled
Intensity correction :  disabled
DWT denoise :  enabled
savitzky-golay :  disabled
FFT :  disabled
Running average :  disabled
Kalman :  disabled
High pass :  disabled
---------------BEGIN--------------------
Wavelength(nm)             Reflectance(%)
200.29               0
200.75        62.43964
201.21        56.34006
201.67        52.04139
202.13         49.8522
202.58        50.04095
203.04        52.71231
203.50        59.30838
203.96        72.29227
204.42        90.54745
204.88        110.9202
205.34        123.7887
205.80        118.2444
206.26        99.17678
206.72        76.48344
207.18        57.68566
207.64        46.42634
208.10        41.00314
208.55        38.91081
209.01        38.96297
209.47        39.83875
209.93        40.85793
210.39        42.68412
210.85        44.45669
211.31        45.49179
211.77        45.93586
212.23        45.40886
212.69        45.46852
213.14        50.58385
213.60        59.52269
214.06        68.91245
214.52        74.94077
214.98        75.69534
215.44        72.30419
215.90        65.66196
216.36        58.57455
216.81        56.66615
217.27        62.81168
217.73        77.60744
218.19        99.08301
218.65        113.7798
219.11        112.5057
219.57        100.2983
220.02        86.99654
220.48        79.51778
220.94        76.66753
221.40        76.07736
221.86        74.81936
222.32        67.81238
222.77        56.64177
223.23        47.09682
223.69        40.80976
224.15        37.29318
224.61        35.45023
225.06        34.50482
225.52          34.611
225.98        35.74796
226.44        37.42574
226.90        39.20404
227.36        40.52734
227.81        41.15228
228.27        41.21706
228.73        40.71564
229.19        40.07961
229.65        40.15813
230.10        40.98674
230.56        42.19194
231.02        43.00994
231.48         42.7477
231.93        41.41135
232.39        39.32822
232.85        37.16855
233.31        36.26011
233.77        37.03191
234.22        39.27134
234.68        42.02408
235.14        43.47953
235.60        43.16575
236.05        41.63655
236.51        40.21119
236.97        40.70157
237.43        43.66497
237.88         49.2017
238.34        56.58568
238.80        62.85991
239.26        65.54285
239.71         65.0871
240.17         62.9972
240.63        62.11459
241.08        63.65499
241.54        67.48036
242.00        75.20763
242.46        87.42787
242.91         101.007
243.37        112.0656
243.83        118.1826
244.28        120.5928
244.74        120.5746
245.20        116.7178
245.66         110.386
246.11        105.9209
246.57        105.5362
247.03        110.0529
247.48        115.8459
247.94        113.9497
248.40        105.3596
248.85         95.3988
249.31        89.17188
249.77        88.37129
250.22        92.77531
250.68        102.7443
251.14        118.2173
251.59        127.3498
252.05        121.2062
252.51        109.1346
252.96        98.99164
253.42        93.53856
253.88        90.70239
254.33        88.73676
254.79         87.2672
255.25        85.66004
255.70         83.8149
256.16         82.5769
256.62        81.68768
257.07        80.74819
257.53        80.07249
257.99        79.43032
258.44        78.28493
258.90        76.85369
259.35        74.94737
259.81        73.17433
260.27        71.77367
260.72        70.97958
261.18        70.82714
261.63        70.75097
262.09        70.42241
262.55         69.0396
263.00        66.67151
263.46        64.02967
263.91        61.43879
264.37        59.60392
264.83        58.43024
265.28         57.6018
265.74        57.04026
266.19        56.39126
266.65        55.65077
267.11        54.87334
267.56        54.04996
268.02        53.16353
268.47        52.17149
268.93         51.0671
269.38        49.86563
269.84         48.7449
270.30        47.75475
270.75         46.8762
271.21        46.06889
271.66        45.19883
272.12        44.23698
272.57        43.18919
273.03        42.13369
273.48         41.1079
273.94        40.20565
274.39        39.37353
274.85         38.6384
275.31        37.94165
275.76        37.24523
276.22        36.59161
276.67        35.96608
277.13        35.45674
277.58        35.01049
278.04        34.64345
278.49        34.23546
278.95        33.72495
279.40        33.06268
279.86        32.36116
280.31        31.66195
280.77        31.15525
281.22        30.82923
281.68        30.65818
282.13        30.56905
282.59        30.51967
283.04        30.45555
283.50        30.39158
283.95        30.27712
284.41        30.05597
284.86        29.72055
285.32        29.34341
285.77        28.94909
286.22        28.65333
286.68        28.49343
287.13        28.39775
287.59        28.39869
288.04        28.47932
288.50        28.63129
288.95        28.81286
289.41        28.96318
289.86        28.94333
290.32        28.77431
290.77        28.51675
291.22        28.26863
291.68        28.17839
292.13        28.29306
292.59        28.60481
293.04        29.15108
293.50        30.01926
293.95         31.1937
294.40        32.65357
294.86        34.23831
295.31        35.70029
295.77        36.97303
296.22        38.10328
296.68        39.24001
297.13         40.6035
297.58        42.24821
298.04        44.06095
298.49        45.91779
298.95        47.64055
299.40        49.17399
299.85        50.59913
300.31        51.98376
300.76        53.34763
301.21        54.75694
301.67        56.22336
302.12        57.76486
302.58        59.55867
303.03        61.57693
303.48        63.71088
303.94        65.87248
304.39        68.21578
304.84        70.13213
305.30        72.11395
305.75        73.98375
306.20        75.81408
306.66        77.62687
307.11         79.3384
307.57        80.98481
308.02        82.49958
308.47        83.93022
308.93        85.30978
309.38        86.63692
309.83        87.98555
310.29        89.36369
310.74        90.72794
311.19        92.01339
311.65        93.10583
312.10        93.97505
312.55        94.68945
313.00        95.37365
313.46        96.22535
313.91        97.26667
314.36        98.42825
314.82        99.60799
315.27        100.6698
315.72        101.5347
316.18        102.2483
316.63        102.7784
317.08        103.0892
317.53        103.2221
317.99        103.2332
318.44        103.2373
318.89        103.4338
319.35        103.8727
319.80        104.4979
320.25        105.2774
320.70        106.1499
321.16        107.0252
321.61        107.9391
322.06        108.7254
322.51        109.1385
322.97        109.1321
323.42        108.7977
323.87        108.3233
324.32        108.0424
324.78        108.0412
325.23        108.3108
325.68        108.7577
326.13        109.2124
326.59        109.5853
327.04        109.9534
327.49        110.3368
327.94        110.8199
328.39        111.4011
328.85        111.9755
329.30        112.4999
329.75        112.7074
330.20        112.5591
330.66        112.1476
331.11        111.7007
331.56        111.5007
332.01         111.659
332.46        112.1119
332.92         112.757
333.37        113.5608
333.82        114.3995
334.27        115.2818
334.72        116.1378
335.17        116.8585
335.63        117.3821
336.08        117.7753
336.53        118.0353
336.98        118.2513
337.43        118.4658
337.88        118.6652
338.34        118.8955
338.79        119.2444
339.24        119.7203
339.69        120.3289
340.14        120.9633
340.59        121.4281
341.05        121.6885
341.50        121.7984
341.95         121.892
342.40        122.2104
342.85        122.7914
343.30        123.5216
343.75        124.2638
344.20        124.7998
344.66        125.0811
345.11        125.2027
345.56        125.1774
346.01        125.0183
346.46        124.7834
346.91        124.4727
347.36        124.2962
347.81        124.5726
348.26         125.322
348.72          126.42
349.17        127.5676
349.62        128.1773
350.07        128.1035
350.52        127.5458
350.97        126.8044
351.42        126.3449
351.87        126.3059
352.32        126.5378
352.77        126.9554
353.22        127.4267
353.67        127.8537
354.13        128.2397
354.58        128.4878
355.03        128.4314
355.48        128.0283
355.93        127.3112
356.38        126.3457
356.83        125.2476
357.28        124.0912
357.73        122.8997
358.18        121.7402
358.63        120.7008
359.08        119.8054
359.53        119.0374
359.98        118.3769
360.43         117.776
360.88        117.2012
361.33        116.6545
361.78        116.0658
362.23        115.3305
362.68        114.4392
363.13        113.4244
363.58         112.396
364.03        111.5335
364.48        110.8789
364.93        110.3794
365.38        109.9476
365.83        109.4424
366.28        108.8178
366.73        108.1071
367.18        107.3506
367.63          106.61
368.08        105.8947
368.53        105.1767
368.98        104.4232
369.43         103.582
369.88        102.6686
370.33        101.7496
370.78        100.8733
371.23         100.112
371.68        99.49015
372.13        98.95485
372.58        98.55885
373.03        98.38649
373.48          98.394
373.93        98.52008
374.38        98.50806
374.83        97.95311
375.28        96.81643
375.72        95.25308
376.17        93.65563
376.62        92.43246
377.07        91.68423
377.52        91.26939
377.97        91.09591
378.42        91.00881
378.87        90.91984
379.32        90.86713
379.77         90.7466
380.22        90.39549
380.67        89.78462
381.11        88.93034
381.56        87.97204
382.01        87.18539
382.46        86.65965
382.91        86.34972
383.36        86.10997
383.81        85.69923
384.26        85.06911
384.71        84.29782
385.15        83.54292
385.60         83.1039
386.05        83.00262
386.50        83.12837
386.95        83.27307
387.40        83.12355
387.85         82.6312
388.29        81.87968
388.74        81.14774
389.19        80.60064
389.64        80.27782
390.09        80.07842
390.54         79.9598
390.98        79.85818
391.43          79.771
391.88        79.67136
392.33        79.46888
392.78        79.17246
393.23        78.76591
393.67        77.97264
394.12        77.02453
394.57        76.88354
395.02        76.48111
395.47        76.56722
395.91        76.72337
396.36        76.80588
396.81        76.75147
397.26        76.61218
397.71        76.42355
398.15        76.11249
398.60        75.77322
399.05        75.53881
399.50        75.37642
399.95        74.94286
400.39        74.15086
400.84        74.42509
401.29        75.43134
401.74        75.65598
402.18        74.95572
402.63        74.13715
403.08        73.48636
403.53        73.09906
403.97        73.04918
404.42        73.20942
404.87        73.43066
405.32        73.60568
405.76        73.57231
406.21         73.1914
406.66        72.56129
407.11        71.96642
407.55        71.61934
408.00         71.6282
408.45        71.94345
408.90        72.43752
409.34        72.85237
409.79         72.6347
410.24        71.98228
410.68        71.78716
411.13        72.11137
411.58        72.42677
412.03        72.59048
412.47         72.6231
412.92        72.45635
413.37        72.13054
413.81        71.72395
414.26        71.43081
414.71        71.26276
415.15        71.18885
415.60          71.172
416.05        71.19439
416.49        71.24553
416.94        71.33752
417.39         71.4251
417.83        71.41516
418.28        71.30015
418.73        71.09666
419.17        70.90189
419.62        70.89133
420.07        71.07687
420.51        71.38077
420.96        71.69983
421.41        71.79948
421.85        71.61678
422.30         71.3882
422.74        71.12886
423.19        70.78989
423.64        70.46133
424.08        70.51896
424.53        70.90804
424.98        71.19522
425.42        71.30795
425.87        71.63145
426.31        72.06284
426.76        71.85412
427.21        71.05293
427.65        71.19453
428.10        72.00246
428.54        71.93204
428.99        71.07368
429.44        70.37423
429.88        70.10023
430.33        70.36196
430.77        70.94418
431.22        71.71318
431.66        72.42506
432.11        72.15745
432.56        71.09579
433.00        70.95863
433.45        71.97862
433.89        71.80935
434.34        71.85352
434.78        73.10506
435.23        71.44657
435.67         70.9517
436.12         70.6064
436.57        70.56743
437.01        70.60419
437.46         71.8418
437.90        71.33286
438.35        71.49828
438.79        72.17532
439.24        72.39973
439.68        72.32452
440.13        72.23911
440.57        72.32204
441.02        72.31711
441.46         72.1366
441.91        73.30071
442.35        73.11301
442.80        73.18913
443.24        72.81921
443.69        72.43314
444.13        72.14826
444.58         71.9452
445.02         71.8243
445.47        71.96082
445.91        72.29987
446.36        72.42036
446.80        72.20782
447.24        72.74675
447.69        72.54752
448.13        72.34558
448.58        72.55908
449.02        72.55514
449.47        72.60288
449.91        72.68288
450.36        72.82373
450.80        72.99644
451.25        73.15494
451.69        73.19688
452.13        73.11517
452.58        72.97618
453.02        72.82508
453.47          72.742
453.91        72.73109
454.36        72.87679
454.80         72.8312
455.24        73.05412
455.69        73.33166
456.13        73.30355
456.58        73.01539
457.02        72.63885
457.46        72.32619
457.91        72.32067
458.35        72.49637
458.79        72.50561
459.24        72.36558
459.68        72.21826
460.13        72.08183
460.57        72.23524
461.01        72.36425
461.46        72.31609
461.90        71.86388
462.34        72.82857
462.79        72.23064
463.23        71.98759
463.68        71.37592
464.12        71.02051
464.56        70.96893
465.01        70.93732
465.45        70.92729
465.89        71.12267
466.34        71.40894
466.78        71.83833
467.22        71.67262
467.67        71.46848
468.11        71.12457
468.55        70.82107
468.99        70.60382
469.44        70.33741
469.88        70.05288
470.32        69.90839
470.77        69.88685
471.21         69.8802
471.65        69.85693
472.10        69.86828
472.54        69.89542
472.98        69.93298
473.42        69.96593
473.87        70.02483
474.31        70.07254
474.75        69.97366
475.20        69.78498
475.64        69.82256
476.08        70.04117
476.52        69.92458
476.97        69.40871
477.41        69.45236
477.85        68.88284
478.29        68.74954
478.74        69.29239
479.18        69.61968
479.62         69.0203
480.06        69.00728
480.50        69.36594
480.95        69.12102
481.39        69.32645
481.83        69.18109
482.27        69.56748
482.72        69.27614
483.16        69.48679
483.60        69.55494
484.04        69.78083
484.48        70.10059
484.93        70.33462
485.37        70.17333
485.81        69.47251
486.25        68.40839
486.69        70.04823
487.14        69.27599
487.58        68.86935
488.02        68.68175
488.46        69.44096
488.90         69.1211
489.34        69.17917
489.79         69.8344
490.23        68.89913
490.67        68.71882
491.11        68.56058
491.55        68.35696
491.99        68.12096
492.43          68.011
492.88        68.05816
493.32        68.25467
493.76        68.54384
494.20        68.81303
494.64        68.99991
495.08         69.1845
495.52        69.37177
495.96        69.33429
496.41        69.05976
496.85        69.46623
497.29        69.18263
497.73        69.11391
498.17         68.6038
498.61        68.47483
499.05          68.336
499.49        68.44759
499.93        68.57323
500.37        68.56346
500.82        68.51045
501.26        68.00298
501.70        68.31809
502.14        68.62688
502.58        68.38044
503.02        68.48879
503.46        68.71753
503.90        68.52548
504.34        68.77003
504.78         68.7484
505.22         68.7188
505.66        68.64757
506.10        68.56716
506.54        68.52636
506.98        68.49307
507.42        68.65865
507.86        68.17953
508.30        68.44757
508.74        67.98769
509.18        67.77931
509.62        67.55276
510.06        67.54596
510.50        67.78049
510.94         68.1931
511.38        68.63431
511.82        68.81981
512.26        68.68601
512.70        68.32284
513.14        67.88673
513.58        67.62067
514.02        67.59158
514.46        67.72642
514.90        67.93752
515.34        68.08154
515.78        68.10975
516.22        68.06965
516.66        68.00281
517.10        67.96697
517.54         67.9783
517.98        68.00906
518.42        68.02932
518.86        68.00056
519.30        67.91641
519.74        67.79696
520.18         67.6796
520.62        67.61461
521.06        67.61781
521.50        67.68229
521.93         67.7786
522.37        67.83531
522.81        67.84311
523.25        67.81004
523.69        67.78343
524.13        67.83926
524.57        67.98277
525.01        68.18104
525.45        68.35165
525.89        68.36349
526.32        68.18403
526.76          67.886
527.20        67.55534
527.64        67.32864
528.08        67.24303
528.52        67.25703
528.96        67.33144
529.40        67.40145
529.83        67.43668
530.27        67.46747
530.71        67.48257
531.15        67.46878
531.59        67.42782
532.03        67.35685
532.46        67.27401
532.90        67.24129
533.34         67.2619
533.78        67.32306
534.22        67.39445
534.66        67.42767
535.09        67.40491
535.53        67.35369
535.97        67.28876
536.41        67.24946
536.85        67.24407
537.28         67.2551
537.72        67.26237
538.16        67.22894
538.60        67.14782
539.04        67.03809
539.47        66.90699
539.91        66.81822
540.35        66.76791
540.79        66.75574
541.22        66.76793
541.66         66.7932
542.10        66.82282
542.54        66.86544
542.97        66.92277
543.41        67.01637
543.85        67.13212
544.29        67.26797
544.72         67.3712
545.16        67.38368
545.60        67.29014
546.04        67.13078
546.47        66.96754
546.91         66.8878
547.35        66.92882
547.79        67.10339
548.22        67.29537
548.66        67.46346
549.10        67.59006
549.53        67.48423
549.97        67.09791
550.41        67.67187
550.84        67.18751
551.28        67.15288
551.72        66.97936
552.15        67.13414
552.59        67.14073
553.03        67.13267
553.46        66.99473
553.90        66.95409
554.34        67.01076
554.77         66.9886
555.21        66.92496
555.65        67.04396
556.08          67.271
556.52        67.31467
556.96        67.19231
557.39         67.2021
557.83        67.32495
558.27        67.44044
558.70        67.21618
559.14        67.24077
559.57        67.43879
560.01        67.54101
560.45         67.5592
560.88        67.45823
561.32        67.57171
561.75        67.54794
562.19        67.49516
562.63        67.37011
563.06        67.20961
563.50        67.19378
563.93        67.26252
564.37        67.24323
564.80        67.11084
565.24         66.9926
565.68        66.91067
566.11        66.91158
566.55        67.00354
566.98        67.02646
567.42        67.05822
567.85        67.17902
568.29        67.32937
568.72        67.52352
569.16        67.89101
569.60        67.20557
570.03         67.5266
570.47         67.8125
570.90        67.83469
571.34        67.42761
571.77        67.85545
572.21        67.97202
572.64        68.16385
573.08         68.0938
573.51        67.78246
573.95        68.02285
574.38        68.52156
574.82         67.9652
575.25        67.69267
575.69        67.90717
576.12        67.44433
576.56        67.29463
576.99        67.46249
577.42        67.22055
577.86        67.39725
578.29        67.28864
578.73        67.97189
579.16        67.60651
579.60        67.69921
580.03        67.41653
580.47        68.00253
580.90        67.81905
581.33        67.22369
581.77        67.35389
582.20        67.76125
582.64        67.92052
583.07        67.44324
583.51        67.07278
583.94        66.99986
584.37        66.90108
584.81         67.0397
585.24        67.16786
585.68        67.71671
586.11        68.45905
586.54        67.60282
586.98        66.79679
587.41        67.58186
587.85        67.77924
588.28        67.73238
588.71        67.91177
589.15        67.68164
589.58        67.42664
590.01        67.23535
590.45        67.15372
590.88        67.35526
591.31        67.51138
591.75        67.93917
592.18        67.92156
592.61        67.82414
593.05        66.76373
593.48        67.76325
593.91        68.49614
594.35        67.07967
594.78        66.70821
595.21        66.55711
595.65        67.28159
596.08        66.59553
596.51        67.15445
596.94        67.48918
597.38        67.71348
597.81        67.47621
598.24        67.40688
598.68        67.16825
599.11        66.74649
599.54        67.47344
599.97         68.0827
600.41        66.38095
600.84        66.84112
601.27        66.86076
601.70        67.16621
602.14        67.51991
602.57        67.22131
603.00        66.61041
603.43         66.5312
603.87        66.76017
604.30        67.27457
604.73        67.19312
605.16        66.64513
605.60        66.91626
606.03        67.10053
606.46        67.47636
606.89        67.52303
607.32        67.25447
607.76         67.1544
608.19        67.28801
608.62        67.18672
609.05        66.88763
609.48        67.14573
609.92         67.3309
610.35        67.15726
610.78        67.62707
611.21        67.10878
611.64        66.76091
612.07        66.98074
612.50        67.10638
612.94        67.18303
613.37        67.25746
613.80        67.34178
614.23        67.54668
614.66        67.60795
615.09        67.56085
615.52        67.46584
615.96        67.30292
616.39        67.39336
616.82        67.03505
617.25        67.06672
617.68        66.80935
618.11        67.02946
618.54        67.43112
618.97        67.35934
619.40        66.88227
619.84        66.71572
620.27        66.95707
620.70        67.14172
621.13        67.13328
621.56         67.1979
621.99        66.91989
622.42         66.4845
622.85        67.09104
623.28         66.8763
623.71        67.49222
624.14        66.40703
624.57        67.15844
625.00        67.12565
625.43         67.1817
625.86        67.05621
626.29        66.82274
626.72        66.73361
627.15        66.79672
627.58         66.9911
628.01        67.15595
628.44        66.97636
628.87        66.66915
629.30        66.12493
629.73         67.0153
630.16        67.31429
630.59        66.92432
631.02        66.96597
631.45         67.0034
631.88        66.99895
632.31        66.82887
632.74        66.80546
633.17        66.58311
633.60        66.48634
634.03        66.42352
634.46        66.38065
634.89        66.35249
635.32        66.35098
635.75        66.37289
636.18        66.39975
636.61        66.42597
637.04         66.4566
637.47         66.5022
637.89        66.51781
638.32        66.45591
638.75        66.44318
639.18        66.51501
639.61         65.9978
640.04        66.12889
640.47        66.02029
640.90        66.04494
641.33        66.16293
641.76        66.33337
642.18        66.46617
642.61        66.49709
643.04        66.45914
643.47        66.40474
643.90        66.39944
644.33        66.45103
644.76        66.62234
645.18        66.81303
645.61        66.67857
646.04        66.14889
646.47        66.04211
646.90         66.2867
647.33         66.3201
647.75        66.11515
648.18        66.02222
648.61        66.07597
649.04        66.14426
649.47        66.22601
649.89        66.43832
650.32        66.67711
650.75        66.68927
651.18        66.53379
651.61        66.48589
652.03        66.60138
652.46        66.84509
652.89        67.01203
653.32        66.89349
653.74        66.68594
654.17        66.20986
654.60        65.68423
655.03        67.62976
655.46        65.54642
655.88        66.63406
656.31        69.20789
656.74        70.31625
657.16        69.60547
657.59        67.29167
658.02        66.35667
658.45        67.13665
658.87        66.87817
659.30        66.43762
659.73         66.8865
660.15        67.15108
660.58        67.33279
661.01         67.2518
661.44        66.88847
661.86        66.42615
662.29         66.0211
662.72        66.16441
663.14        66.71292
663.57        66.61789
664.00        65.98232
664.42        65.80963
664.85        66.14379
665.27        66.36057
665.70        66.39913
666.13        66.50227
666.55        66.65974
666.98        66.77485
667.41        66.83228
667.83        66.81408
668.26        66.71223
668.69        66.55923
669.11        66.39124
669.54        66.25138
669.96         66.1572
670.39        66.15653
670.82        66.13836
671.24        66.18497
671.67        66.24229
672.09         66.3091
672.52        66.38663
672.94        66.53713
673.37        66.24176
673.80        66.67318
674.22        66.36457
674.65        66.46524
675.07        66.59647
675.50        66.76318
675.92        66.91459
676.35        66.96075
676.77        66.90227
677.20        66.74896
677.62        66.58205
678.05        66.52174
678.47        66.58182
678.90        66.76648
679.32         66.9936
679.75         67.0341
680.17        66.82656
680.60        66.85691
681.02         66.4706
681.45        66.39553
681.87        66.44337
682.30        66.64566
682.72        66.91845
683.15        66.91671
683.57        66.71407
684.00        66.76268
684.42        67.03463
684.85        67.14037
685.27        67.06841
685.70        66.97618
686.12        66.93372
686.54        67.16521
686.97        67.58105
687.39        67.81177
687.82        67.75708
688.24         67.6978
688.66        67.63869
689.09        67.19811
689.51        66.85648
689.94        66.58675
690.36        66.54985
690.78        66.61247
691.21        66.73917
691.63        66.98283
692.06        67.24777
692.48        67.30363
692.90        67.17226
693.33        67.11749
693.75        67.15892
694.17        67.11874
694.60        67.03351
695.02        67.02685
695.44         67.0997
695.87        67.32576
696.29        67.60676
696.71        67.49679
697.14        67.09407
697.56        67.00513
697.98        67.24668
698.41        67.36246
698.83        67.33607
699.25        67.45699
699.68        67.66021
700.10        67.73995
700.52        67.65469
700.94        67.48295
701.37        67.26355
701.79        67.07696
702.21        66.94788
702.64        66.86288
703.06        66.83747
703.48        66.90924
703.90        67.07391
704.33        67.32773
704.75        67.58064
705.17        67.74879
705.59        67.78367
706.01        67.71432
706.44        67.59067
706.86        67.51763
707.28        67.52531
707.70         67.5481
708.12        67.59045
708.55        67.73864
708.97        67.94039
709.39        67.97922
709.81        67.88757
710.23        67.93873
710.66        68.14188
711.08        68.34986
711.50        68.50456
711.92        68.61823
712.34        68.67754
712.76        68.68185
713.19        68.62387
713.61        68.53995
714.03        68.42921
714.45        68.29991
714.87        68.19141
715.29        68.15684
715.71        68.20297
716.13        68.31686
716.56        68.43781
716.98        68.54231
717.40         68.5828
717.82        68.57656
718.24        68.54537
718.66        68.52898
719.08        68.53821
719.50        68.55181
719.92        68.57111
720.34        68.59996
720.76        68.63418
721.19        68.67165
721.61        68.69225
722.03        68.63499
722.45        68.49244
722.87        68.27803
723.29         68.0587
723.71         67.9432
724.13        67.95618
724.55        68.07358
724.97        68.21542
725.39        68.24523
725.81        68.13902
726.23        67.94865
726.65        67.76351
727.07        67.72665
727.49        67.86675
727.91        68.11909
728.33        68.42106
728.75        68.67064
729.17         68.8211
729.59        68.90503
730.01        68.89728
730.43        68.75771
730.85        68.50942
731.27        68.18406
731.69        67.89056
732.10        67.80137
732.52        67.95396
732.94        68.30208
733.36        68.75699
733.78        69.16043
734.20        69.43271
734.62         69.5618
735.04        69.58947
735.46        69.64475
735.88        69.73523
736.30        69.74109
736.72        69.61198
737.13        69.43199
737.55        69.19512
737.97        68.75771
738.39        68.29657
738.81         68.3898
739.23        68.94088
739.65        69.19908
740.06        69.05842
740.48        69.00981
740.90        69.02275
741.32        68.77412
741.74         68.3558
742.16          68.145
742.57        68.21536
742.99        68.37623
743.41        68.57076
743.83        68.84988
744.25        69.10358
744.67        69.02011
745.08        68.69608
745.50         68.5918
745.92        68.76624
746.34        68.95637
746.75        69.12001
747.17        69.30096
747.59        69.47489
748.01        69.63307
748.42        69.75053
748.84        69.75819
749.26         69.6608
749.68        69.47779
750.09         69.2594
750.51        69.11839
750.93        69.06962
751.35        69.09653
751.76        69.16076
752.18         69.1864
752.60        69.15361
753.01        69.09283
753.43        69.02763
753.85        69.02283
754.27        69.10706
754.68        69.29093
755.10        69.50293
755.52        69.63219
755.93        69.62877
756.35        69.48861
756.77        69.38103
757.18        69.46031
757.60        69.74014
758.02        70.51212
758.43        71.34943
758.85        70.89547
759.26        69.51138
759.68        68.97839
760.10        69.28336
760.51        70.28344
760.93        69.65096
761.34         69.8345
761.76        70.21885
762.18        70.51236
762.59        70.60121
763.01        69.96243
763.42        68.91796
763.84        68.44817
764.26        68.68697
764.67        69.11475
765.09        69.53786
765.50        69.85995
765.92        70.03439
766.33        69.98586
766.75        69.65446
767.16        69.99551
767.58        69.63482
768.00         69.5858
768.41        69.51817
768.83        69.66177
769.24        70.06864
769.66        70.23299
770.07        69.83111
770.49        69.67347
770.90         69.7376
771.32        70.07892
771.73        70.57167
772.15        70.71502
772.56        70.46559
772.97        70.34663
773.39        69.96905
773.80        69.87184
774.22        69.91866
774.63        70.13269
775.05        70.36847
775.46        70.48291
775.88        70.40549
776.29        70.22522
776.70        69.99397
777.12         69.8144
777.53        69.72687
777.95        69.68124
778.36         69.7092
778.77        69.80935
779.19        69.96404
779.60        70.32818
780.02        70.76237
780.43        70.81593
780.84        70.59086
781.26        70.67221
781.67        71.06705
782.09        71.50324
782.50        71.79446
782.91        71.52451
783.33        70.80028
783.74        70.36006
784.15        70.28419
784.57        70.15082
784.98        69.97988
785.39        70.01608
785.81        70.26309
786.22         70.6349
786.63        71.07627
787.04        71.50156
787.46        71.86687
787.87        72.15563
788.28        72.35398
788.70        72.44324
789.11        72.42039
789.52         72.3147
789.93        72.14615
790.35         71.9435
790.76        71.74889
791.17        71.57384
791.58         71.4803
792.00         71.5229
792.41        71.72024
792.82        72.07631
793.23        72.50005
793.65        72.71939
794.06         72.7458
794.47        72.86933
794.88        73.03602
795.29        72.95208
795.71        72.59061
796.12        72.14954
796.53        71.77013
796.94        71.65177
797.35        71.85918
797.76        72.33737
798.18        72.89503
798.59        73.25572
799.00         73.3158
799.41        73.16274
799.82        72.88596
800.23        72.64741
800.64        72.51446
801.06        72.40916
801.47        72.39507
801.88        72.50105
802.29        72.71436
802.70        73.02409
803.11        73.33633
803.52         73.4805
803.93        73.41739
804.34        73.19342
804.75        72.88307
805.17        72.64366
805.58        72.56271
805.99         72.5101
806.40        72.49677
806.81        72.72575
807.22        73.09356
807.63        73.16699
808.04        72.98244
808.45        72.99051
808.86        73.22017
809.27        73.40296
809.68        73.47581
810.09        73.47453
810.50        73.39027
810.91        73.21529
811.32        73.03993
811.73        73.00764
812.14        73.14711
812.55        73.42507
812.96         73.7361
813.37        73.87811
813.78        73.79814
814.19        73.57078
814.60         73.2976
815.01        73.12207
815.42        73.08138
815.83        73.12422
816.24        73.22729
816.65         73.3475
817.05        73.45226
817.46        73.51624
817.87        73.53421
818.28        73.43631
818.69         73.2246
819.10        72.93166
819.51        72.62127
819.92        72.42192
820.33        72.38094
820.74        72.44859
821.14        72.62891
821.55         72.9322
821.96        73.32797
822.37        73.82564
822.78        74.26893
823.19        74.37781
823.60        74.08613
824.00        73.45785
824.41        72.75069
824.82        72.40855
825.23        72.53096
825.64        73.02264
826.04        73.62594
826.45        73.79515
826.86        73.42239
827.27        72.68003
827.68        71.89282
828.08        71.59161
828.49        71.86567
828.90        72.58794
829.31        73.50695
829.72        74.19061
830.12        74.51604
830.53        74.51608
830.94        74.39597
831.35        74.46125
831.75        74.81016
832.16        75.25488
832.57        75.63131
832.97        75.63781
833.38        75.22592
833.79        74.59228
834.20        73.90189
834.60        73.35508
835.01        73.05598
835.42        72.90613
835.82        73.00828
836.23        73.46373
836.64        74.25909
837.04        75.37855
837.45        76.40459
837.86        76.79077
838.26        76.40482
838.67        75.41698
839.08        74.21667
839.48        73.40375
839.89        73.18932
840.29        73.40015
840.70        73.86019
841.11         74.2894
841.51         74.5965
841.92        74.82803
842.33        75.01339
842.73        75.17253
843.14        75.26155
843.54        75.28551
843.95        75.22871
844.35        75.15179
844.76        75.05402
845.17        74.92417
845.57        74.82175
845.98        74.79896
846.38        74.88026
846.79        75.04844
847.19        75.18491
847.60        75.03743
848.00        74.59061
848.41        73.93832
848.81        73.32227
849.22        73.09888
849.62        73.37949
850.03        74.02289
850.43        74.87227
850.84        75.43645
851.24        75.62325
851.65        75.45515
852.05        75.14911
852.46        75.00737
852.86        75.08784
853.27        75.34296
853.67        75.51324
854.07        75.45574
854.48        75.08988
854.88        74.48796
855.29        73.77007
855.69        73.40693
856.10        73.44818
856.50        73.89379
856.90        74.36523
857.31        74.31799
857.71        73.69949
858.12        72.63714
858.52        71.58144
858.92        71.23123
859.33        71.73911
859.73         72.9243
860.13        74.31588
860.54        75.15442
860.94        75.25703
861.34        74.74012
861.75        73.88615
862.15        73.26042
862.55        73.01662
862.96        73.02004
863.36        73.00817
863.76        72.59409
864.17        71.75255
864.57        70.70011
864.97        69.74708
865.38        69.28919
865.78         69.4445
866.18         70.0423
866.58        70.92956
866.99        71.76649
867.39        72.40944
867.79        72.89548
868.19        73.10025
868.60        72.84821
869.00        72.17535
869.40        71.13136
869.80        70.11356
870.21        69.81372
870.61        70.42525
871.01        71.69724
871.41         73.1366
871.81        73.94357
872.22        73.89152
872.62        73.21085
873.02        72.20222
873.42        71.38223
873.82        70.95933
874.22        70.82489
874.63        70.85411
875.03        70.86074
875.43        70.79461
875.83        70.72243
876.23        70.82053
876.63        71.34728
877.03        72.29879
877.44        73.49705
877.84        74.61301
878.24        75.03217
878.64        74.64504
879.04        73.69328
879.44        72.55555
879.84        71.79162
880.24        71.54226
880.64        71.62046
881.04        71.94138
881.44        72.34792
881.84        72.75474
882.24        73.25569
882.65        73.62329
883.05        73.59565
883.45        73.09528
883.85        72.22292
884.25        71.40135
884.65        71.29033
885.05        71.98907
885.45        73.26078
885.85         74.6897
886.25        75.55069
886.65        75.59724
887.05        75.05529
887.45        74.08944
887.85        73.01127
888.25        72.03261
888.65        71.11945
889.04        70.40896
889.44        70.15128
889.84        70.30736
890.24        70.86188
890.64        71.62059
891.04        72.13338
891.44        72.23792
891.84        72.05023
892.24        71.77259
892.64        71.71507
893.04        71.94241
893.44        72.33515
893.83        72.84646
894.23        73.31194
894.63        73.68951
895.03        74.04163
895.43         74.3085
895.83        74.39719
896.23        74.30289
896.63        74.00677
897.02        73.67736
897.42         73.6647
897.82        74.00716
898.22         74.6524
898.62        75.25627
899.01        75.24976
899.41        74.52398
899.81         73.2769
900.21         72.0125
900.61        71.50429
901.00         71.8995
901.40        72.95332
901.80        74.14223
902.20        74.59946
902.59        74.10471
902.99        72.94944
903.39         71.5983
903.79        70.74223
904.18        70.56464
904.58        70.87344
904.98        71.38702
905.38          71.687
905.77        71.63054
906.17        71.35478
906.57        71.05183
906.96        71.04034
907.36         71.3531
907.76        71.89385
908.15        72.41005
908.55        72.37831
908.95        71.77616
909.34        70.79338
909.74        69.89355
910.14        69.64107
910.53        70.19503
910.93        71.31479
911.33         72.7589
911.72        74.15665
912.12        75.24541
912.52        76.10844
912.91        76.70753
913.31        76.97037
913.70        76.91232
914.10        76.51684
914.49        75.85019
914.89        75.02318
915.29        74.13988
915.68         73.2443
916.08        72.53722
916.47        72.16948
916.87        72.21228
917.26        72.58193
917.66        73.14419
918.05        73.68488
918.45        74.05681
918.84        74.33703
919.24        74.43301
919.64        74.36399
920.03         74.1604
920.42        73.79519
920.82        73.40192
921.21        73.09669
921.61        72.92969
922.00         72.9016
922.40        72.96548
922.79        73.11022
923.19        73.28162
923.58        73.50449
923.98        73.73109
924.37        73.90025
924.77        73.99187
925.16        74.01556
925.55        74.00359
925.95        74.02673
926.34        74.11204
926.74        74.20554
927.13        74.27309
927.52        74.22381
927.92         74.0499
928.31        73.78706
928.70        73.45992
929.10        73.08687
929.49        72.69527
929.89        72.25261
930.28        71.87418
930.67        71.67965
931.07        71.68743
931.46        71.88261
931.85        72.10436
932.24        72.10809
932.64        71.87376
933.03        71.50291
933.42        71.16908
933.82        71.15837
934.21        71.55592
934.60        72.18179
934.99         72.9632
935.39        73.76517
935.78         74.5434
936.17        75.31087
936.56        75.72378
936.96        75.26271
937.35        73.94797
937.74        72.05191
938.13        70.27796
938.53        69.52921
938.92        69.91613
939.31        71.23579
939.70        72.97458
940.09         74.0985
940.49        74.21324
940.88        73.60258
941.27        72.70126
941.66        72.18213
942.05        72.22474
942.44        72.65332
942.84        73.11864
943.23        73.11466
943.62        72.47495
944.01        71.40311
944.40        70.43617
944.79        70.32408
945.18        71.18853
945.57        72.81598
945.97        74.47524
946.36        75.14162
946.75        74.43642
947.14        72.70299
947.53         70.7762
947.92        69.92126
948.31        70.44316
948.70         72.0111
949.09        73.88625
949.48        74.72906
949.87        74.14471
950.26        72.57082
950.65          70.822
951.04        70.01797
951.43        70.40575
951.82        71.68398
952.21        73.18251
952.60        73.70039
952.99        72.90958
953.38        71.22451
953.77        69.51746
954.16        68.93393
954.55        69.69486
954.94         71.5642
955.33        73.73032
955.72        74.45998
956.11        73.21101
956.50        70.61804
956.89        67.98307
957.28        66.99338
957.66        67.99887
958.05        70.44081
958.44        73.41672
958.83        75.06435
959.22        74.72205
959.61        73.05467
960.00        70.97234
960.39        69.61596
960.78        69.22668
961.16         69.4529
961.55        69.94469
961.94        70.14859
962.33        69.86526
962.72        69.41815
963.11        68.96585
963.49        68.65804
963.88        68.54939
964.27        68.52021
964.66        68.67902
965.04        69.29787
965.43        70.29091
965.82        71.59605
966.21         72.8242
966.60         73.2699
966.98        72.80167
967.37        71.71713
967.76        70.43893
968.15        69.52712
968.53         69.1022
968.92        68.94208
969.31        69.09449
969.69        69.65408
970.08        70.51353
970.47        71.79157
970.86        72.92673
971.24        72.95124
971.63        71.70346
972.02        69.52391
972.40        67.44002
972.79        67.09444
973.17        68.75103
973.56        71.80013
973.95        75.27039
974.33        77.29274
974.72        77.17908
975.11        75.54565
975.49        73.27441
975.88        72.03925
976.26        72.26452
976.65        73.37849
977.04        74.87814
977.42        75.86201
977.81        75.83704
978.19        75.24213
978.58         74.3021
978.96        73.21447
979.35        72.19045
979.74        71.18587
980.12        70.44344
980.51         70.3618
980.89        71.07195
981.28        72.30365
981.66        73.98609
982.05        75.67521
982.43        77.25934
982.82        78.74017
983.20        79.67303
983.59        79.24409
983.97        77.44755
984.35        74.59231
984.74        71.86178
985.12         70.8931
985.51        71.90247
985.89          74.531
986.28        77.54449
986.66        79.20072
987.04        78.80395
987.43        76.89953
987.81         74.3176
988.20        72.81894
988.58        72.87544
988.96        74.02122
989.35        75.28297
989.73        75.33105
990.12        73.79474
990.50        71.29594
990.88        68.63312
991.27        67.05722
991.65        66.86312
992.03        67.64116
992.42        69.01308
992.80        70.72543
993.18        72.48169
993.56        74.41414
993.95        76.04257
994.33        76.62367
994.71        75.91087
995.10        74.18409
995.48        72.20331
995.86        71.19679
996.24        71.46162
996.63         72.6082
997.01        74.33766
997.39        75.81093
997.77        76.63231
998.15        77.03658
998.54        76.99617
998.92        76.48158
999.30        75.57164
999.68        74.28542
1000.06        72.97339
1000.45        72.31429
1000.83        72.57296
1001.21         73.5356
1001.59        75.02586
1001.97        76.67251
1002.35        78.23366
1002.73        79.77989
1003.12        80.83788
1003.50         80.6144
1003.88        79.11583
1004.26        76.60748
1004.64        74.01565
1005.02        72.97035
1005.40        73.81915
1005.78        75.95731
1006.16        78.52283
1006.54        80.32034
1006.92        81.03662
1007.30        81.01109
1007.69        80.32354
1008.07        79.33601
1008.45        78.24205
1008.83        76.95439
1009.21        75.74125
1009.59          75.081
1009.97        75.05929
1010.35        75.56442
1010.73        76.39726
1011.11        77.13249
1011.49        77.57855
1011.86        77.90944
1012.24         77.7565
1012.62        76.77978
1013.00        74.96037
1013.38        72.30752
1013.76        69.50391
1014.14        68.07199
1014.52        68.54295
1014.90        70.53123
1015.28        73.00236
1015.66        74.25849
1016.04         73.8513
1016.41        72.37468
1016.79        70.25016
1017.17        68.52753
1017.55        67.81968
1017.93        67.78609
1018.31        68.45177
1018.69        70.07621
1019.06        72.88248
1019.44        77.12312
1019.82        82.83027
1020.20        87.85712
1020.58        89.87075
1020.95        88.73802
1021.33        85.90177
1021.71        82.99867
1022.09        80.16098
1022.46        76.65741
1022.84        72.40871
1023.22        67.78933
1023.60        64.19791
1023.97        62.42455
1024.35        62.33997
1024.73        63.41879
