SpectraSmart Spectrum 2.9.0.0
--------- Device Information -----------
Spectrum Name :  反射率_0
Saving Time :  2024/04/30 00:35:56
Spectro-Module Model Name : SE2030-DUVN
Spectro-Module Serial Number : OS361AC55029948
Wavelength Start : 200
Wavelength End : 1025
Wavelength Unit : Wavelength(nm)
Spectrum Unit : Reflectance(%)
-----------Spectrum Setting ------------
Integration Time : 20ms
Average : 10
Boxcar : 0
Background removal :  enabled
linearity correction :  enabled
SC :  disabled
Intensity correction :  disabled
DWT denoise :  enabled
savitzky-golay :  disabled
FFT :  disabled
Running average :  disabled
Kalman :  disabled
High pass :  disabled
---------------BEGIN--------------------
Wavelength(nm)             Reflectance(%)
200.29               0
200.75        117.9988
201.21        97.44221
201.67        76.68266
202.13        62.81474
202.58         59.2673
203.04        64.77628
203.50        77.90967
203.96        94.10979
204.42        109.0338
204.88        121.8128
205.34        127.1289
205.80        119.9151
206.26        104.7008
206.72        87.68681
207.18        73.29488
207.64        63.32865
208.10        56.50333
208.55        51.06731
209.01        47.53629
209.47        48.18698
209.93        52.62393
210.39         59.2705
210.85        64.80282
211.31        66.54365
211.77        64.31966
212.23        57.48899
212.69        47.60403
213.14        44.05673
213.60        50.60942
214.06        62.21267
214.52         71.5173
214.98        73.63297
215.44        69.66351
215.90        61.65826
216.36        53.11441
216.81        50.91841
217.27        58.62088
217.73         76.3213
218.19        102.5985
218.65        123.6032
219.11        127.8688
219.57        119.4483
220.02        107.4206
220.48        98.94108
220.94        93.11674
221.40        87.03951
221.86        79.41082
222.32        71.24683
222.77        65.33335
223.23        63.32202
223.69        62.73928
224.15        61.09195
224.61        58.03125
225.06        53.67338
225.52        49.65648
225.98        49.57584
226.44        53.44228
226.90        58.54165
227.36        62.53595
227.81        63.96449
228.27        63.21276
228.73         60.8851
229.19        57.70188
229.65        55.44691
230.10        54.79675
230.56        55.06128
231.02        55.54896
231.48        55.67695
231.93        55.26592
232.39        54.66669
232.85        53.82701
233.31        52.71748
233.77        51.45282
234.22        50.15726
234.68        49.00958
235.14         48.4563
235.60        48.68459
236.05        49.53455
236.51        51.05789
236.97        53.36259
237.43        56.56656
237.88        61.12362
238.34        66.47832
238.80        70.81229
239.26        72.51228
239.71        71.72525
240.17        69.51309
240.63        67.96013
241.08        67.82716
241.54        68.79818
242.00         72.0103
242.46        78.82726
242.91        88.74817
243.37        99.26466
243.83        107.2238
244.28        112.0331
244.74        114.5133
245.20        113.7011
245.66        111.2021
246.11        111.3662
246.57        115.9287
247.03        125.6682
247.48         134.791
247.94        130.6646
248.40        115.8299
248.85        98.82943
249.31        87.77152
249.77        85.61137
250.22        91.80821
250.68        107.2542
251.14        131.8243
251.59        146.4171
252.05        136.9039
252.51        118.0432
252.96        103.0768
253.42        96.72948
253.88         95.9529
254.33        97.93494
254.79        100.6785
255.25        100.1854
255.70        96.25327
256.16        92.12558
256.62        89.00788
257.07        87.33769
257.53        87.17047
257.99        87.58044
258.44        87.61253
258.90        86.96457
259.35        85.22112
259.81        83.31581
260.27        81.50254
260.72        79.97416
261.18        78.92091
261.63         77.8442
262.09        76.61778
262.55        74.67599
263.00        72.10107
263.46        69.49533
263.91         67.0844
264.37        65.50716
264.83        64.61519
265.28        64.09839
265.74        63.81654
266.19        63.29005
266.65        62.51307
267.11        61.57529
267.56        60.55102
268.02        59.56469
268.47        58.59081
268.93        57.57041
269.38        56.47591
269.84        55.40825
270.30         54.3864
270.75        53.42467
271.21        52.46638
271.66        51.33353
272.12        50.01547
272.57        48.53537
273.03           47.07
273.48        45.81018
273.94        44.88084
274.39        44.16544
274.85        43.59574
275.31        42.96498
275.76        42.19857
276.22        41.39062
276.67        40.56938
277.13        39.89981
277.58        39.34464
278.04        38.90535
278.49        38.43438
278.95         37.8476
279.40        37.08712
279.86        36.28093
280.31        35.49646
280.77        34.96953
281.22        34.68136
281.68        34.58607
282.13        34.55697
282.59         34.4889
283.04        34.31652
283.50         34.0894
283.95        33.79368
284.41        33.43834
284.86        33.03096
285.32         32.6235
285.77        32.22765
286.22         31.9485
286.68        31.81091
287.13        31.74069
287.59        31.74845
288.04        31.77699
288.50        31.81968
288.95        31.85162
289.41        31.84406
289.86        31.69925
290.32        31.45445
290.77        31.16011
291.22        30.91588
291.68        30.86945
292.13        31.05959
292.59        31.47709
293.04        32.13765
293.50        33.10191
293.95        34.34562
294.40        35.85188
294.86        37.47248
295.31        38.98299
295.77         40.3214
296.22        41.52482
296.68         42.7317
297.13        44.14365
297.58        45.81413
298.04        47.64368
298.49        49.51355
298.95        51.25648
299.40        52.81848
299.85        54.27166
300.31        55.70139
300.76        57.14789
301.21        58.67949
301.67        60.31097
302.12        62.00663
302.58        63.86609
303.03        65.84869
303.48        67.87189
303.94        69.94473
304.39        72.32168
304.84        74.48352
305.30        76.81921
305.75        79.02831
306.20        80.96188
306.66         82.6151
307.11        83.98467
307.57        85.27621
308.02        86.66429
308.47        88.24066
308.93        89.94813
309.38        91.64983
309.83        93.21281
310.29        94.58927
310.74        95.80412
311.19        96.86856
311.65        97.78212
312.10        98.55167
312.55        99.21185
313.00        99.86634
313.46        100.6833
313.91        101.6775
314.36        102.8006
314.82        103.9621
315.27        105.0383
315.72        105.9465
316.18        106.7116
316.63        107.2896
317.08        107.6317
317.53        107.7717
317.99        107.7735
318.44         107.728
318.89        107.8001
319.35        108.0423
319.80        108.4107
320.25        108.9462
320.70        109.6995
321.16        110.6097
321.61        111.7016
322.06        112.7137
322.51        113.2349
322.97        113.1758
323.42        112.6589
323.87        112.0055
324.32        111.7667
324.78        112.0607
325.23        112.8056
325.68        113.7141
326.13        114.2883
326.59        114.3617
327.04         114.129
327.49        113.8235
327.94        113.8735
328.39        114.3859
328.85        115.1671
329.30        116.0635
329.75        116.5967
330.20        116.6369
330.66        116.3292
331.11         115.935
331.56        115.7873
332.01        116.0149
332.46         116.521
332.92        117.1718
333.37        117.9084
333.82        118.6054
334.27        119.2969
334.72        119.9745
335.17        120.6203
335.63        121.1964
336.08        121.7521
336.53        122.2201
336.98        122.5773
337.43        122.8301
337.88        122.9907
338.34        123.1532
338.79        123.4872
339.24        124.0204
339.69        124.7274
340.14        125.4626
340.59        125.9695
341.05        126.2006
341.50        126.2432
341.95        126.2592
342.40        126.5288
342.85        127.1055
343.30        127.8596
343.75        128.6653
344.20        129.3221
344.66        129.7746
345.11        130.1107
345.56        130.2902
346.01         130.241
346.46        130.0061
346.91        129.6111
347.36        129.3324
347.81        129.5929
348.26        130.4366
348.72        131.7099
349.17        133.0631
349.62        133.8156
350.07        133.7947
350.52        133.2311
350.97        132.4681
351.42        132.0348
351.87        132.0886
352.32        132.4592
352.77        133.0334
353.22        133.6381
353.67        134.1574
354.13        134.5971
354.58        134.8852
355.03        134.8921
355.48        134.5824
355.93        133.9853
356.38        133.1093
356.83        131.9852
357.28        130.6841
357.73        129.2587
358.18        127.8875
358.63        126.8317
359.08         126.139
359.53        125.7327
359.98        125.4478
360.43        125.0056
360.88        124.3228
361.33        123.4789
361.78        122.5329
362.23        121.5865
362.68        120.6862
363.13        119.7968
363.58        118.9519
364.03        118.2118
364.48        117.5774
364.93        117.0352
365.38        116.5257
365.83        115.9463
366.28        115.2707
366.73        114.5255
367.18         113.739
367.63        112.9604
368.08        112.2003
368.53        111.4363
368.98        110.6773
369.43        109.9351
369.88        109.2261
370.33        108.5871
370.78        107.9796
371.23        107.3372
371.68        106.6501
372.13        105.9029
372.58        105.2322
373.03        104.8614
373.48        104.7899
373.93        104.9237
374.38        104.9558
374.83         104.395
375.28        103.1804
375.72        101.4994
376.17        99.79267
376.62        98.52251
377.07        97.80037
377.52        97.46309
377.97        97.37779
378.42        97.32745
378.87        97.20765
379.32        97.07397
379.77        96.86967
380.22        96.50106
380.67        95.95243
381.11        95.22279
381.56         94.3938
382.01        93.64883
382.46        93.05794
382.91        92.60413
383.36        92.21899
383.81        91.77732
384.26        91.25072
384.71        90.68054
385.15        90.13405
385.60        89.77367
386.05        89.59389
386.50        89.53172
386.95        89.47081
387.40        89.24341
387.85        88.82519
388.29         88.2336
388.74        87.67956
389.19         87.2187
389.64        86.87532
390.09        86.60098
390.54        86.37405
390.98         86.1757
391.43        86.02457
391.88        85.82772
392.33        85.55026
392.78        85.33863
393.23         85.1131
393.67        84.48182
394.12        83.61236
394.57        83.30067
395.02        82.50768
395.47        82.60928
395.91        83.10517
396.36        83.24529
396.81        82.94133
397.26        82.61668
397.71        82.35547
398.15        81.99339
398.60        81.63999
399.05        81.42616
399.50        81.28922
399.95        80.89028
400.39        80.09129
400.84         80.2722
401.29        81.12417
401.74        81.26894
402.18        80.59274
402.63        79.83958
403.08        79.28068
403.53        79.01771
403.97        79.10387
404.42         79.3792
404.87        79.69718
405.32        79.96329
405.76        79.99988
406.21        79.67653
406.66         79.0361
407.11         78.2506
407.55        77.59589
408.00        77.30548
408.45         77.4302
408.90        78.07563
409.34        78.87954
409.79        78.75676
410.24        77.92238
410.68        77.75925
411.13        78.32874
411.58        78.77173
412.03        78.92559
412.47        78.95712
412.92        78.79672
413.37        78.44195
413.81        77.95957
414.26        77.53543
414.71        77.18567
415.15        76.90195
415.60        76.68658
416.05        76.58472
416.49        76.60589
416.94        76.74682
417.39        76.93739
417.83        77.03001
418.28        77.00584
418.73        76.91138
419.17        76.82053
419.62        76.87901
420.07        77.07472
420.51        77.29074
420.96        77.51912
421.41        77.60567
421.85        77.45634
422.30        77.52818
422.74        77.62772
423.19        76.74868
423.64        75.29548
424.08        75.33846
424.53        76.74583
424.98        77.33655
425.42        76.90105
425.87        77.04531
426.31        77.73828
426.76        76.95403
427.21        75.95309
427.65        75.95528
428.10        76.96539
428.54         76.8486
428.99         75.7529
429.44        75.07681
429.88        75.04785
430.33        75.49307
430.77        76.14245
431.22        76.91352
431.66         77.5447
432.11        77.19067
432.56        76.08607
433.00         75.7771
433.45        76.56159
433.89         76.9047
434.34        77.11512
434.78        78.77533
435.23        76.78183
435.67        75.96096
436.12        75.18474
436.57        75.17624
437.01        75.78768
437.46        76.34028
437.90        76.27262
438.35        76.75234
438.79        77.51332
439.24        77.90323
439.68        77.88621
440.13        77.82278
440.57        77.82868
441.02        77.78288
441.46        77.66067
441.91         77.8287
442.35        78.19913
442.80         77.5322
443.24        78.08847
443.69        77.70725
444.13         77.1851
444.58        76.88474
445.02        76.80431
445.47        76.77618
445.91        76.75529
446.36        76.79539
446.80        76.85181
447.24        77.07106
447.69        77.17342
448.13        77.28407
448.58        77.33355
449.02        77.31715
449.47        77.29574
449.91        77.33481
450.36        77.46094
450.80        77.62421
451.25        77.78551
451.69        77.84431
452.13        77.79354
452.58        77.70512
453.02         77.5988
453.47        77.51513
453.91        77.45224
454.36        77.50462
454.80        77.35314
455.24        77.57442
455.69        77.94348
456.13        78.03238
456.58        77.85146
457.02        77.42308
457.46        77.14344
457.91        77.00349
458.35         77.0294
458.79        76.96471
459.24        76.83731
459.68        76.85555
460.13        76.99941
460.57        76.90025
461.01        77.12234
461.46        76.87267
461.90        76.30399
462.34        77.04195
462.79        76.79348
463.23        76.66274
463.68         76.0726
464.12        75.74812
464.56         75.7309
465.01         75.6384
465.45        75.47128
465.89        75.59427
466.34        75.87679
466.78        76.10284
467.22        75.75832
467.67        75.49895
468.11        75.56436
468.55         75.3868
468.99        75.09177
469.44        74.83402
469.88        74.64269
470.32        74.49269
470.77        74.37676
471.21        74.31197
471.65        74.27573
472.10        74.27873
472.54        74.31661
472.98         74.3783
473.42        74.43731
473.87         74.6198
474.31        74.82539
474.75        74.58534
475.20        74.03433
475.64        74.03848
476.08        74.55948
476.52        74.33402
476.97         73.6949
477.41        73.80998
477.85        73.38263
478.29        72.93552
478.74        73.53448
479.18        73.85352
479.62        73.25574
480.06        73.22633
480.50        73.42746
480.95        73.54793
481.39        74.20292
481.83        73.28364
482.27        74.04771
482.72        73.88444
483.16        73.84037
483.60        73.89443
484.04        74.13693
484.48         74.3875
484.93        74.39673
485.37        74.61189
485.81        73.75897
486.25        72.65965
486.69        74.55936
487.14        73.98579
487.58        73.15334
488.02        73.14017
488.46        73.91222
488.90         74.1533
489.34        73.29038
489.79        73.99058
490.23        73.33491
490.67        73.30544
491.11        73.08177
491.55        72.81351
491.99        72.56137
492.43        72.46216
492.88        72.55572
493.32        72.80122
493.76        73.10216
494.20        73.33112
494.64        73.43188
495.08         73.4307
495.52        73.38039
495.96        73.29925
496.41        73.19975
496.85        73.39194
497.29        73.29527
497.73        73.14952
498.17        72.67188
498.61        72.39688
499.05        72.35498
499.49        72.45961
499.93        72.59412
500.37        72.59853
500.82        72.53172
501.26        72.13729
501.70        72.42571
502.14         72.5057
502.58        72.37508
503.02        72.42785
503.46        72.58362
503.90        72.79011
504.34        72.97667
504.78         73.0696
505.22        73.02371
505.66        72.88366
506.10        72.74089
506.54        72.65057
506.98        72.55159
507.42        73.13291
507.86        72.40113
508.30        72.75648
508.74        72.30352
509.18        72.07694
509.62        71.78416
510.06        71.71404
510.50        71.90902
510.94        72.27927
511.38        72.70509
511.82        72.94859
512.26        72.94543
512.70        72.76785
513.14         72.5101
513.58        72.31805
514.02        72.23915
514.46        72.22794
514.90        72.25459
515.34        72.27608
515.78        72.27225
516.22        72.25994
516.66        72.24378
517.10        72.22066
517.54        72.19118
517.98        72.15726
518.42         72.1024
518.86        72.00577
519.30        71.87335
519.74        71.71699
520.18        71.59336
520.62        71.58562
521.06        71.70873
521.50        71.94224
521.93        72.21392
522.37        72.37904
522.81        72.40763
523.25        72.32467
523.69        72.21222
524.13        72.20347
524.57        72.32077
525.01        72.51723
525.45        72.69284
525.89        72.68688
526.32        72.46144
526.76        72.10761
527.20        71.72977
527.64        71.48881
528.08        71.42667
528.52        71.49011
528.96        71.62607
529.40        71.75004
529.83        71.82185
530.27        71.87383
530.71        71.89558
531.15        71.87688
531.59        71.82127
532.03        71.72645
532.46        71.60848
532.90        71.52883
533.34        71.49469
533.78        71.49931
534.22        71.52639
534.66        71.54631
535.09        71.54411
535.53        71.54242
535.97        71.54072
536.41        71.55393
536.85        71.58163
537.28        71.60886
537.72        71.62382
538.16        71.60424
538.60        71.54471
539.04        71.45657
539.47        71.33507
539.91        71.23061
540.35        71.13648
540.79        71.06055
541.22        71.00053
541.66        70.96333
542.10        70.94698
542.54         70.9591
542.97         70.9988
543.41        71.08009
543.85        71.19138
544.29        71.34364
544.72        71.47681
545.16         71.5302
545.60        71.48874
546.04        71.34335
546.47        71.16813
546.91        71.19272
547.35         71.3948
547.79        71.50467
548.22        71.46068
548.66        71.54839
549.10        71.76589
549.53        71.74397
549.97        71.39846
550.41        72.01349
550.84        71.42541
551.28        71.36436
551.72        71.23605
552.15        71.15384
552.59        71.21977
553.03        71.22329
553.46        71.19345
553.90        71.20598
554.34        71.24792
554.77        71.26087
555.21        71.25523
555.65        71.27287
556.08        71.29393
556.52         71.3322
556.96        71.40063
557.39         71.4716
557.83        71.49789
558.27        71.76967
558.70        71.67482
559.14        71.49754
559.57         71.8638
560.01        71.86002
560.45        71.76722
560.88        71.59763
561.32        71.69711
561.75        71.66605
562.19        71.59239
562.63        71.28975
563.06        70.89662
563.50        71.01125
563.93        71.49523
564.37        71.67178
564.80        71.48238
565.24        71.34971
565.68        71.29655
566.11         71.2497
566.55        71.24222
566.98        71.13377
567.42        71.06409
567.85        71.27593
568.29        71.67751
568.72        72.00928
569.16        72.44388
569.60         71.7879
570.03        72.25637
570.47        72.37883
570.90        72.26965
571.34        71.83502
571.77         72.0285
572.21        72.09006
572.64        72.31032
573.08        72.12444
573.51        71.55483
573.95        72.27321
574.38        72.82808
574.82        72.38544
575.25         72.6044
575.69        72.59168
576.12          71.632
576.56        71.77314
576.99        71.60098
577.42        71.71738
577.86        71.99311
578.29         71.9552
578.73        72.59659
579.16        71.96559
579.60        71.87473
580.03         71.7625
580.47        72.15804
580.90        72.39661
581.33        71.87287
581.77        71.86671
582.20        71.87734
582.64        72.79321
583.07        71.95074
583.51        71.64555
583.94        71.42368
584.37        71.08892
584.81        70.96474
585.24        71.37107
585.68        72.45546
586.11        72.83293
586.54        71.87092
586.98        71.40009
587.41        72.00694
587.85        72.54291
588.28        72.17297
588.71        72.81763
589.15        71.59511
589.58        71.90833
590.01        71.31534
590.45         71.4479
590.88        71.82426
591.31        72.11262
591.75        71.99818
592.18        72.50372
592.61        72.47907
593.05        71.18655
593.48        72.00475
593.91        72.84878
594.35        71.22448
594.78        71.04263
595.21        71.16685
595.65        71.91486
596.08        71.50293
596.51         71.3681
596.94        71.89596
597.38        71.99695
597.81        71.83299
598.24        71.70885
598.68        71.30547
599.11        71.03137
599.54        72.35151
599.97        72.96953
600.41        71.20278
600.84        71.34783
601.27        71.59505
601.70        71.77724
602.14        72.07066
602.57        71.55161
603.00        70.92784
603.43        70.88892
603.87        71.30032
604.30        71.73275
604.73        71.58132
605.16        71.49464
605.60        71.57872
606.03        71.71688
606.46        71.89055
606.89        71.80539
607.32         71.4619
607.76         71.5765
608.19        71.64048
608.62        71.46831
609.05        71.58492
609.48        71.71041
609.92        71.51956
610.35        71.71813
610.78        71.90482
611.21        71.22674
611.64        71.20834
612.07        71.60778
612.50        71.75494
612.94        71.64735
613.37        71.97282
613.80        72.03787
614.23        72.22526
614.66        72.13242
615.09        71.89484
615.52        71.78642
615.96        71.73091
616.39        72.05177
616.82        71.29839
617.25        71.50942
617.68        71.00027
618.11        71.24767
618.54        71.67262
618.97         71.6287
619.40        71.26109
619.84        70.88507
620.27        71.26208
620.70        71.70352
621.13        72.28715
621.56        71.52595
621.99        71.32491
622.42        71.05747
622.85        71.71297
623.28        71.46631
623.71        72.47511
624.14        70.85169
624.57         71.7352
625.00        71.47254
625.43        71.42285
625.86        71.28795
626.29         71.2235
626.72        71.24649
627.15        71.19922
627.58        71.33377
628.01        71.51791
628.44        71.36138
628.87         70.9736
629.30        70.98943
629.73        71.36794
630.16        71.63087
630.59        71.43102
631.02        71.53296
631.45         71.5351
631.88        71.56033
632.31        71.51002
632.74        71.43366
633.17        71.33631
633.60        71.23381
634.03        71.13883
634.46        71.03226
634.89        70.94425
635.32        70.93508
635.75        71.00716
636.18        71.13357
636.61        71.26163
637.04        71.31596
637.47        71.28907
637.89        71.17999
638.32        70.99972
638.75         70.9212
639.18        70.98849
639.61        70.70399
640.04        70.89907
640.47        70.91314
640.90        70.98934
641.33        71.12116
641.76        71.26114
642.18        71.31592
642.61        71.23493
643.04        71.05183
643.47        70.87011
643.90        70.83562
644.33        70.96891
644.76        71.31581
645.18        71.71461
645.61        71.70069
646.04        71.16932
646.47        71.02299
646.90        71.20992
647.33        71.19077
647.75        70.95705
648.18        70.82886
648.61        70.82924
649.04        70.96626
649.47        70.96169
649.89        71.18095
650.32        71.41969
650.75        71.38101
651.18        71.13451
651.61          71.002
652.03        71.10565
652.46        71.38618
652.89        71.55046
653.32        71.51611
653.74        71.61655
654.17        70.28069
654.60        70.35063
655.03        72.53853
655.46        70.61734
655.88        71.42567
656.31        74.68848
656.74        75.37135
657.16        74.55603
657.59        72.18409
658.02        70.87093
658.45        71.99059
658.87        71.56287
659.30        71.10609
659.73        71.80793
660.15        72.24368
660.58        71.92386
661.01        71.73322
661.44        71.45666
661.86        71.15439
662.29        70.89451
662.72        70.96546
663.14        71.28208
663.57        71.18891
664.00        70.77871
664.42        70.69131
664.85        70.96391
665.27        71.17792
665.70         71.2775
666.13        71.41296
666.55        71.57452
666.98        71.69637
667.41        71.76115
667.83        71.74648
668.26        71.64295
668.69        71.47149
669.11        71.28915
669.54        71.16898
669.96        71.12802
670.39        71.21024
670.82        71.35315
671.24        71.30161
671.67        71.09619
672.09        71.12418
672.52        71.36411
672.94        71.53349
673.37        71.06741
673.80        71.43461
674.22        71.07983
674.65        71.16363
675.07        71.28468
675.50        71.46946
675.92        71.66312
676.35        71.76756
676.77        71.77706
677.20        71.69115
677.62        71.58341
678.05        71.56864
678.47        71.66049
678.90        71.85631
679.32        72.06348
679.75        72.07299
680.17        71.83237
680.60        71.69622
681.02        71.27596
681.45        71.15471
681.87        71.21931
682.30        71.50691
682.72        71.88924
683.15        71.87676
683.57        71.55583
684.00        71.54559
684.42        71.83153
684.85        71.93548
685.27        71.85554
685.70        71.77879
686.12        71.77467
686.54        72.13515
686.97        72.72808
687.39        72.98022
687.82         72.7989
688.24        72.84013
688.66        72.73118
689.09        72.47501
689.51        72.04261
689.94        71.80639
690.36        71.78487
690.78         71.7273
691.21        71.65067
691.63        71.80808
692.06         72.1227
692.48         72.2465
692.90        72.16376
693.33        72.12809
693.75         72.1458
694.17        72.04167
694.60        71.87531
695.02        71.81479
695.44         71.8738
695.87        72.10891
696.29        72.42326
696.71        72.37091
697.14        72.04249
697.56        72.04211
697.98        72.35958
698.41        72.49632
698.83         72.4304
699.25        72.46597
699.68        72.56675
700.10        72.58409
700.52        72.49163
700.94        72.35005
701.37        72.18359
701.79        72.04813
702.21        71.95457
702.64        71.89859
703.06        71.88429
703.48        71.92796
703.90        72.03167
704.33        72.20892
704.75        72.39024
705.17        72.53638
705.59        72.60265
706.01         72.5825
706.44        72.54517
706.86        72.59457
707.28        72.71539
707.70        72.92577
708.12        73.17308
708.55        72.99698
708.97        72.87615
709.39        72.88161
709.81        73.13281
710.23        73.26604
710.66        73.26054
711.08        73.35649
711.50        73.51585
711.92        73.60907
712.34        73.62567
712.76        73.60009
713.19        73.54322
713.61        73.52325
714.03        73.53522
714.45        73.56638
714.87         73.6005
715.29        73.61306
715.71        73.59683
716.13        73.55866
716.56        73.49716
716.98        73.50367
717.40        73.56062
717.82        73.65254
718.24        73.74803
718.66        73.79887
719.08        73.79198
719.50        73.73832
719.92        73.66758
720.34         73.6274
720.76        73.62953
721.19        73.65311
721.61        73.68065
722.03        73.65485
722.45        73.56652
722.87         73.4362
723.29        73.30586
723.71        73.24118
724.13        73.25805
724.55        73.33513
724.97        73.43724
725.39        73.50508
725.81         73.5229
726.23        73.51308
726.65        73.49201
727.07        73.48806
727.49        73.50808
727.91         73.5297
728.33        73.56357
728.75        73.63071
729.17        73.73142
729.59        73.86217
730.01         73.9594
730.43         73.9451
730.85        73.81729
731.27        73.50399
731.69        73.30969
732.10        73.27658
732.52        73.49575
732.94        73.90833
733.36        74.38029
733.78        74.67762
734.20        74.72528
734.62        74.55976
735.04        74.31626
735.46         74.2691
735.88        74.43568
736.30        74.61147
736.72         74.7139
737.13        74.73722
737.55        74.61926
737.97        74.41207
738.39         74.1984
738.81        73.97847
739.23        73.85336
739.65        74.14565
740.06        74.66355
740.48        74.85075
740.90        74.63464
741.32        74.29779
741.74        73.97344
742.16        73.79826
742.57        73.84637
742.99        74.00225
743.41        74.21428
743.83        74.50259
744.25          74.775
744.67        74.79465
745.08         74.6114
745.50        74.53321
745.92         74.5998
746.34        74.62032
746.75         74.6025
747.17        74.63237
747.59          74.709
748.01        74.85526
748.42        75.01966
748.84        75.01272
749.26        74.87392
749.68        74.77388
750.09        74.74001
750.51        74.81234
750.93        74.92245
751.35        74.86155
751.76        74.66082
752.18         74.5731
752.60        74.61337
753.01        74.63431
753.43        74.60918
753.85        74.60518
754.27        74.63953
754.68        74.73109
755.10        74.85897
755.52        74.98809
755.93        75.07953
756.35        75.10194
756.77        75.17049
757.18        75.35277
757.60        75.63708
758.02        76.37651
758.43        77.17637
758.85        76.69394
759.26        74.89715
759.68        74.62261
760.10        75.67403
760.51        76.09955
760.93        75.50869
761.34         75.4531
761.76        75.79318
762.18        75.73019
762.59        75.30666
763.01        74.92089
763.42        74.70586
763.84        74.61932
764.26        74.71097
764.67        74.88147
765.09        75.13174
765.50        75.63412
765.92        76.23888
766.33        76.37405
766.75        75.99134
767.16        75.82433
767.58        75.88628
768.00        75.71101
768.41        75.37957
768.83        75.36469
769.24        75.57658
769.66        75.64285
770.07        75.52272
770.49        75.24512
770.90        74.95807
771.32        75.20718
771.73        75.87472
772.15        76.07436
772.56        75.74907
772.97        75.64608
773.39        75.36719
773.80        75.44083
774.22        75.71093
774.63        76.20397
775.05         76.7013
775.46          76.951
775.88        76.85695
776.29        76.54009
776.70        76.11932
777.12         75.8201
777.53        75.71483
777.95         75.7047
778.36        75.80128
778.77        75.96712
779.19        76.17221
779.60        76.60428
780.02        77.06671
780.43        77.05669
780.84        76.68337
781.26        76.42538
781.67        76.44964
782.09        77.03848
782.50        77.90514
782.91        77.88644
783.33        77.04555
783.74        76.64651
784.15        76.75634
784.57        76.60497
784.98        76.22987
785.39        76.09006
785.81        76.21877
786.22        76.47457
786.63        76.81791
787.04        77.18806
787.46        77.54423
787.87        77.87717
788.28        78.15291
788.70        78.30576
789.11        78.32232
789.52        78.24632
789.93        78.10717
790.35          77.951
790.76        77.81802
791.17        77.70093
791.58         77.6665
792.00        77.75121
792.41        77.96499
792.82        78.40354
793.23        78.92625
793.65        78.96368
794.06        78.62801
794.47        78.71358
794.88        79.12215
795.29        79.09869
795.71        78.59935
796.12        78.09412
796.53        77.74014
796.94        77.62775
797.35        77.82679
797.76        78.30165
798.18        78.86515
798.59        79.29873
799.00         79.5041
799.41        79.35654
799.82         79.2504
800.23        79.07035
800.64        78.96754
801.06        78.86317
801.47        78.79694
801.88        78.74939
802.29        78.71043
802.70        78.69331
803.11        78.70321
803.52        78.73329
803.93        78.79458
804.34        78.89673
804.75        78.99703
805.17        79.10519
805.58        79.25717
805.99        79.17625
806.40        78.98301
806.81        79.48304
807.22        80.41565
807.63        80.34029
808.04        79.39179
808.45        79.07908
808.86        79.52139
809.27        79.86444
809.68        79.96223
810.09        79.99031
810.50        79.90966
810.91         79.6726
811.32        79.39885
811.73        79.27746
812.14        79.35298
812.55        79.59406
812.96        79.87925
813.37        79.97372
813.78        79.82614
814.19        79.52951
814.60        79.22937
815.01        79.13116
815.42        79.27643
815.83        79.58855
816.24        79.97931
816.65        80.27328
817.05        80.38967
817.46        80.34449
817.87        80.18611
818.28        79.92236
818.69        79.58852
819.10        79.19617
819.51        78.84429
819.92        78.72177
820.33        78.87391
820.74        79.22616
821.14        79.69608
821.55        80.15899
821.96        80.54949
822.37        80.90475
822.78        81.11945
823.19         81.0211
823.60        80.59467
824.00        79.88702
824.41         79.1426
824.82        78.78039
825.23        78.88799
825.64        79.37971
826.04          80.013
826.45        80.24693
826.86        79.97337
827.27        79.35825
827.68        78.67773
828.08        78.39404
828.49        78.58527
828.90        79.14133
829.31        79.89774
829.72        80.57337
830.12         81.0846
830.53        81.41966
830.94        81.67381
831.35        81.95625
831.75        82.31307
832.16        82.60446
832.57        82.76859
832.97        82.68078
833.38        82.33913
833.79         81.8688
834.20        81.36904
834.60        80.94675
835.01        80.67832
835.42        80.50164
835.82        80.51579
836.23        80.80301
836.64        81.36475
837.04        82.19534
837.45         82.9362
837.86        83.15968
838.26         82.7677
838.67         81.9034
839.08        80.89519
839.48        80.23748
839.89        80.10796
840.29        80.35557
840.70        80.82319
841.11        81.26741
841.51        81.61034
841.92        81.87874
842.33        82.09409
842.73        82.26751
843.14        82.35075
843.54        82.36236
843.95        82.29663
844.35        82.23215
844.76        82.16581
845.17        82.07024
845.57        81.99868
845.98        81.99088
846.38        82.06796
846.79        82.22305
847.19        82.31274
847.60        82.03533
848.00        81.38712
848.41        80.49046
848.81        79.67332
849.22        79.42197
849.62        79.87404
850.03        80.84418
850.43        82.09133
850.84        82.94576
851.24        83.24664
851.65        83.03277
852.05        82.56961
852.46        82.24844
852.86         82.1711
853.27         82.2985
853.67        82.33715
854.07        82.10939
854.48        81.52905
854.88        80.69319
855.29        79.80505
855.69        79.52291
856.10        79.91878
856.50        80.91027
856.90        81.95184
857.31        82.26513
857.71        81.73721
858.12        80.56056
858.52        79.24004
858.92        78.57147
859.33        78.77072
859.73        79.64188
860.13        80.79744
860.54        81.61375
860.94        81.93031
861.34        81.83187
861.75        81.45689
862.15        81.11161
862.55         80.8668
862.96        80.65997
863.36        80.32541
863.76        79.64507
864.17        78.65409
864.57        77.51072
864.97        76.52436
865.38        76.08664
865.78        76.30447
866.18        77.02601
866.58        78.04427
866.99        78.89383
867.39        79.41919
867.79        79.69801
868.19        79.69292
868.60        79.36496
869.00        78.77538
869.40        77.91024
869.80        77.14976
870.21        77.15198
870.61        78.06888
871.01        79.65594
871.41        81.30124
871.81         82.0163
872.22        81.56769
872.62        80.26113
873.02        78.61341
873.42        77.50404
873.82        77.22721
874.22         77.5514
874.63        78.17329
875.03        78.62467
875.43        78.75492
875.83        78.69328
876.23        78.64436
876.63        78.91853
877.03        79.55566
877.44        80.38021
877.84        81.09877
878.24        81.15871
878.64        80.49826
879.04        79.37713
879.44        78.22885
879.84        77.67779
880.24        77.84355
880.64        78.48271
881.04        79.39027
881.44        80.21718
881.84        80.80699
882.24        81.28574
882.65        81.45256
883.05        81.12998
883.45        80.30326
883.85        79.09038
884.25        77.97239
884.65        77.68301
885.05        78.33409
885.45        79.67048
885.85        81.27126
886.25          82.383
886.65        82.72395
887.05        82.51599
887.45        81.81172
887.85        80.74857
888.25        79.52667
888.65        78.18129
889.04        77.02727
889.44        76.56717
889.84        76.79335
890.24        77.62844
890.64        78.75513
891.04        79.46146
891.44        79.49817
891.84        79.08311
892.24        78.53172
892.64        78.30182
893.04        78.49044
893.44        78.91241
893.83        79.51119
894.23        80.10537
894.63        80.62775
895.03        81.14936
895.43        81.54126
895.83        81.59601
896.23        81.30427
896.63        80.69164
897.02        80.03451
897.42        79.86403
897.82         80.2662
898.22        81.12358
898.62        82.02821
899.01        82.30035
899.41        81.77205
899.81        80.66586
900.21        79.44857
900.61        78.83563
901.00        78.99028
901.40        79.70338
901.80        80.54382
902.20        80.80632
902.59        80.31863
902.99        79.32068
903.39        78.24731
903.79        77.73724
904.18        77.92581
904.58        78.62038
904.98        79.44262
905.38        79.82456
905.77        79.60561
906.17        78.97287
906.57        78.24618
906.96        77.95702
907.36        78.19954
907.76         78.8294
908.15        79.53266
908.55        79.66096
908.95        79.14551
909.34        78.21166
909.74        77.33295
910.14        77.08533
910.53        77.63397
910.93         78.7209
911.33        80.11445
911.72        81.47011
912.12        82.53284
912.52        83.39632
912.91        84.01128
913.31        84.27283
913.70        84.19257
914.10         83.7514
914.49        83.05822
914.89        82.29338
915.29        81.56181
915.68        80.88624
916.08        80.37717
916.47        80.03793
916.87        79.92319
917.26        80.00378
917.66        80.27267
918.05        80.73279
918.45        81.28641
918.84        81.94565
919.24        82.49804
919.64        82.76428
920.03        82.69571
920.42        82.30804
920.82        81.78642
921.21        81.32106
921.61        80.99808
922.00        80.80931
922.40        80.69855
922.79        80.65706
923.19        80.64171
923.58        80.69019
923.98         80.8166
924.37        81.03979
924.77        81.34063
925.16        81.69947
925.55        82.02572
925.95        82.18651
926.34        82.17265
926.74        81.99699
927.13        81.76337
927.52        81.61002
927.92        81.58271
928.31        81.62834
928.70        81.68558
929.10        81.63509
929.49          81.447
929.89         81.1244
930.28        80.74945
930.67        80.37276
931.07        80.03594
931.46        79.76582
931.85        79.52663
932.24        79.26143
932.64        78.98554
933.03        78.75018
933.42        78.66737
933.82        78.89463
934.21        79.47415
934.60        80.27012
934.99          81.172
935.39        81.98798
935.78        82.67522
936.17        83.21786
936.56        83.40896
936.96         82.9835
937.35        81.97523
937.74        80.55521
938.13        79.17959
938.53         78.3992
938.92        78.27566
939.31        78.73527
939.70        79.48595
940.09        79.94699
940.49        79.91077
940.88        79.52792
941.27        79.08962
941.66        79.06194
942.05        79.54626
942.44        80.42967
942.84          81.299
943.23        81.53323
943.62        80.92366
944.01         79.6771
944.40        78.44319
944.79         78.1678
945.18        79.02033
945.57        80.74628
945.97        82.54228
946.36        83.25675
946.75        82.46755
947.14          80.571
947.53        78.45654
947.92        77.46024
948.31        77.91319
948.70        79.46992
949.09        81.37061
949.48        82.24107
949.87        81.67821
950.26         80.1296
950.65        78.44612
951.04         77.8044
951.43        78.45178
951.82        80.05511
952.21        81.87016
952.60        82.55627
952.99        81.74095
953.38        79.89191
953.77        77.94991
954.16         77.1448
954.55        77.72666
954.94        79.44296
955.33        81.50419
955.72        82.22711
956.11        81.07385
956.50        78.64839
956.89        76.21113
957.28        75.39648
957.66        76.54819
958.05        79.12589
958.44        82.17233
958.83        83.73065
959.22        83.14703
959.61         81.1348
960.00        78.77141
960.39        77.41576
960.78        77.34298
961.16        78.17334
961.55        79.37881
961.94        80.04195
962.33        79.81567
962.72        79.11602
963.11        78.30434
963.49        77.83332
963.88        77.82001
964.27        78.03361
964.66        78.44268
965.04        79.08224
965.43        79.78904
965.82        80.62495
966.21        81.30185
966.60        81.28832
966.98        80.54874
967.37        79.33913
967.76        78.12282
968.15        77.52628
968.53        77.65262
968.92        78.26028
969.31        79.23601
969.69         80.3521
970.08        81.36089
970.47        82.44679
970.86        83.19613
971.24        82.94535
971.63        81.63275
972.02        79.50494
972.40        77.52242
972.79        77.24815
973.17        78.90162
973.56        81.90912
973.95        85.26522
974.33         87.0293
974.72        86.51529
975.11        84.38946
975.49        81.60931
975.88        79.95802
976.26        79.91521
976.65        80.89173
977.04        82.43311
977.42        83.69521
977.81        84.15651
978.19         84.2144
978.58        83.95574
978.96        83.38833
979.35        82.65273
979.74        81.71361
980.12        80.87933
980.51        80.66861
980.89        81.27335
981.28        82.40761
981.66        83.94852
982.05        85.33305
982.43        86.45072
982.82        87.33782
983.20        87.75432
983.59        87.19407
983.97        85.71191
984.35        83.49786
984.74        81.43415
985.12        80.71229
985.51        81.46802
985.89        83.46032
986.28        85.72215
986.66        86.96502
987.04        86.63445
987.43        85.17794
987.81        83.18177
988.20        81.95073
988.58        81.82482
988.96        82.42122
989.35        83.09595
989.73        83.07682
990.12        82.08208
990.50        80.53706
990.88        78.74778
991.27        77.17492
991.65        75.99361
992.03         75.1475
992.42        74.78156
992.80        75.42705
993.18         77.0189
993.56        79.44684
993.95         82.1009
994.33        83.94386
994.71        84.47689
995.10        84.02796
995.48        83.06083
995.86        82.40915
996.24        82.34731
996.63        82.51878
997.01        83.06997
997.39        84.01944
997.77        85.22652
998.15        86.71074
998.54        87.94568
998.92        88.10322
999.30        87.03364
999.68        84.93795
1000.06        82.52647
1000.45        81.15531
1000.83         81.3876
1001.21         82.8897
1001.59        85.06784
1001.97        86.87621
1002.35        87.93342
1002.73        88.49005
1003.12        88.74134
1003.50        88.92883
1003.88        89.18607
1004.26        89.39521
1004.64        89.47168
1005.02        89.33475
1005.40        89.01563
1005.78        88.62154
1006.16        88.35005
1006.54        88.44828
1006.92        88.93188
1007.30        89.69804
1007.69        90.49376
1008.07        90.96519
1008.45        90.86201
1008.83        90.36246
1009.21        89.51003
1009.59        88.41126
1009.97        87.20845
1010.35        85.84502
1010.73        84.85416
1011.11         85.0929
1011.49        86.58949
1011.86        89.07863
1012.24        91.45076
1012.62        92.17421
1013.00        90.90999
1013.38        88.05034
1013.76        84.44269
1014.14        82.03128
1014.52        81.61488
1014.90        82.56673
1015.28        84.32281
1015.66        85.92608
1016.04        86.98875
1016.41        88.07044
1016.79        88.40746
1017.17        86.81116
1017.55        83.77525
1017.93        80.18873
1018.31          77.629
1018.69        77.67807
1019.06        80.56255
1019.44        86.22269
1019.82          94.287
1020.20        100.7315
1020.58         102.066
1020.95         99.0185
1021.33        94.19754
1021.71        90.29317
1022.09        87.54806
1022.46        84.76728
1022.84         82.1113
1023.22        80.17287
1023.60        79.61372
1023.97        80.79069
1024.35        82.50586
1024.73        83.14883
