SpectraSmart Spectrum 2.9.0.0
--------- Device Information -----------
Spectrum Name :  反射率_0
Saving Time :  2024/04/30 00:36:39
Spectro-Module Model Name : SE2030-DUVN
Spectro-Module Serial Number : OS361AC55029948
Wavelength Start : 200
Wavelength End : 1025
Wavelength Unit : Wavelength(nm)
Spectrum Unit : Reflectance(%)
-----------Spectrum Setting ------------
Integration Time : 20ms
Average : 10
Boxcar : 0
Background removal :  enabled
linearity correction :  enabled
SC :  disabled
Intensity correction :  disabled
DWT denoise :  enabled
savitzky-golay :  disabled
FFT :  disabled
Running average :  disabled
Kalman :  disabled
High pass :  disabled
---------------BEGIN--------------------
Wavelength(nm)             Reflectance(%)
200.29               0
200.75        61.32213
201.21        58.14508
201.67        56.62587
202.13        52.72134
202.58        45.20409
203.04        34.88212
203.50        26.97928
203.96        32.70333
204.42        54.64853
204.88        86.95125
205.34        114.8726
205.80        118.6637
206.26        101.5207
206.72        77.63139
207.18        55.80538
207.64         40.0736
208.10        29.06064
208.55        19.46745
209.01        12.97121
209.47        14.79483
209.93        24.24395
210.39        37.82512
210.85        49.54486
211.31        54.80506
211.77        53.82139
212.23        46.57631
212.69         35.2848
213.14        31.93707
213.60          41.255
214.06        56.06471
214.52        68.11854
214.98        72.53106
215.44        70.53151
215.90         64.2916
216.36         56.8227
216.81        53.77708
217.27        58.04091
217.73         69.5484
218.19        86.51763
218.65        97.91418
219.11        96.47523
219.57         86.8616
220.02        76.77553
220.48        71.62865
220.94        70.56678
221.40        71.67917
221.86        73.08113
222.32        70.63465
222.77        64.19797
223.23        58.04542
223.69        53.31761
224.15        49.64079
224.61         46.3231
225.06        42.74789
225.52        39.60886
225.98        38.68705
226.44        40.14946
226.90        42.69624
227.36        44.93515
227.81        45.94725
228.27         45.8812
228.73        45.04238
229.19        43.85257
229.65        43.23137
230.10         43.4178
230.56        44.00695
231.02         44.5001
231.48        44.50219
231.93         43.9148
232.39        42.93212
232.85        41.76671
233.31        40.88263
233.77        40.46362
234.22        40.55101
234.68        40.66993
235.14        40.01355
235.60        38.55214
236.05        36.65231
236.51         35.3533
236.97        35.98597
237.43        38.95753
237.88        44.55312
238.34          52.063
238.80        58.47908
239.26        61.22081
239.71        60.41979
240.17        57.86576
240.63        56.90573
241.08        58.83689
241.54        63.86829
242.00        72.63791
242.46        81.53887
242.91        84.85898
243.37        81.58781
243.83         76.4266
244.28        75.61003
244.74        80.19662
245.20        88.80167
245.66         99.9054
246.11        109.1351
246.57        113.4063
247.03        114.7613
247.48        111.7076
247.94        102.4985
248.40        91.51424
248.85        81.30725
249.31        75.34555
249.77        74.27692
250.22        77.55897
250.68        86.11922
251.14         99.6395
251.59        106.6446
252.05        99.68806
252.51        87.75388
252.96        78.59935
253.42        74.97832
253.88        74.92658
254.33         76.7691
254.79        79.16736
255.25        79.11116
255.70        76.33381
256.16        73.11325
256.62        70.59405
257.07         69.3008
257.53        69.23511
257.99        69.67255
258.44         69.5273
258.90        68.22266
259.35        65.69576
259.81        63.06321
260.27        60.89962
260.72        59.67019
261.18        59.34463
261.63        59.27588
262.09        59.12136
262.55        58.14852
263.00         56.3661
263.46        54.36841
263.91         52.3647
264.37         50.8667
264.83        49.79803
265.28        48.90784
265.74        48.21239
266.19        47.53121
266.65        46.88387
267.11        46.28561
267.56        45.64432
268.02        44.80875
268.47        43.72964
268.93        42.44971
269.38        41.09492
269.84        40.01971
270.30        39.30978
270.75        38.88242
271.21        38.55788
271.66        38.02927
272.12         37.2243
272.57        36.19626
273.03        35.12256
273.48        34.20361
273.94        33.55117
274.39        33.05873
274.85        32.61866
275.31         32.0084
275.76        31.18275
276.22        30.24898
276.67        29.34236
277.13          28.741
277.58        28.42592
278.04        28.32766
278.49        28.20371
278.95        27.79935
279.40        27.04532
279.86        26.12384
280.31        25.18629
280.77        24.56623
281.22        24.29097
281.68        24.26752
282.13         24.3661
282.59        24.45104
283.04        24.45094
283.50        24.40054
283.95        24.27628
284.41        24.04929
284.86        23.72097
285.32        23.33774
285.77        22.91268
286.22        22.53625
286.68        22.24317
287.13        21.98472
287.59        21.80567
288.04         21.7145
288.50        21.71413
288.95         21.7725
289.41        21.82918
289.86        21.75535
290.32        21.56372
290.77        21.30709
291.22         21.0739
291.68        21.00152
292.13        21.11936
292.59        21.39382
293.04        21.83925
293.50        22.50214
293.95        23.36034
294.40        24.40121
294.86        25.46731
295.31        26.32496
295.77        26.92508
296.22        27.32359
296.68        27.71622
297.13        28.39307
297.58        29.43028
298.04        30.71695
298.49        32.08156
298.95        33.24978
299.40        34.15808
299.85         34.9092
300.31        35.64637
300.76        36.52403
301.21        37.61163
301.67        38.85123
302.12        40.15568
302.58        41.54061
303.03        42.96617
303.48        44.34229
303.94        45.65183
304.39        47.40104
304.84        48.65788
305.30        50.17172
305.75        51.65771
306.20        53.17588
306.66        54.73014
307.11        56.27659
307.57        57.81873
308.02        59.26892
308.47        60.65709
308.93        62.01554
309.38        63.37682
309.83        64.85244
310.29        66.44925
310.74        68.11059
311.19        69.73121
311.65        71.14295
312.10        72.30434
312.55        73.28252
313.00        74.21931
313.46         75.3431
313.91        76.68343
314.36         78.1591
314.82         79.6338
315.27        80.91557
315.72         81.9143
316.18        82.68622
316.63        83.25252
317.08        83.66372
317.53        83.97461
317.99         84.2131
318.44        84.42207
318.89        84.68293
319.35        85.02675
319.80        85.44333
320.25        85.98373
320.70        86.71602
321.16        87.59695
321.61        88.62582
322.06        89.59127
322.51        90.16216
322.97        90.25877
323.42        89.98551
323.87        89.56318
324.32         89.3757
324.78        89.51773
325.23        89.94398
325.68        90.50739
326.13        90.95045
326.59        91.17213
327.04        91.28512
327.49        91.37669
327.94        91.62769
328.39         92.0707
328.85        92.58163
329.30        93.10052
329.75        93.36314
330.20        93.31116
330.66        93.03961
331.11        92.70043
331.56        92.46482
332.01        92.42265
332.46        92.53564
332.92        92.80235
333.37        93.34555
333.82        94.10304
334.27        95.03844
334.72         96.0086
335.17         96.7729
335.63        97.23103
336.08        97.48254
336.53        97.55772
336.98        97.58925
337.43        97.64767
337.88          97.707
338.34        97.83603
338.79        98.16302
339.24        98.69627
339.69        99.42506
340.14        100.2118
340.59        100.8027
341.05        101.1398
341.50        101.2935
341.95        101.3876
342.40        101.6513
342.85         102.131
343.30        102.7152
343.75        103.3313
344.20        103.8662
344.66        104.2873
345.11        104.6622
345.56        104.9106
346.01        104.8899
346.46        104.6289
346.91         104.183
347.36        103.8514
347.81        104.0943
348.26        104.9615
348.72        106.2744
349.17        107.6791
349.62        108.5048
350.07        108.5709
350.52        108.1133
350.97        107.4112
351.42         106.897
351.87        106.7216
352.32        106.7423
352.77        106.9739
353.22        107.4493
353.67        108.0997
354.13        108.8868
354.58         109.576
355.03        109.7719
355.48        109.3848
355.93        108.5251
356.38        107.3941
356.83        106.3188
357.28        105.4182
357.73        104.6341
358.18        103.9453
358.63        103.3042
359.08         102.693
359.53        102.1497
359.98        101.6683
360.43        101.2202
360.88        100.7884
361.33        100.3553
361.78        99.90199
362.23        99.41233
362.68        98.88271
363.13        98.31997
363.58        97.73416
364.03        97.14275
364.48        96.55567
364.93        95.97015
365.38         95.4072
365.83        94.90174
366.28        94.45721
366.73        94.06187
367.18        93.67186
367.63        93.21514
368.08        92.66907
368.53        92.04903
368.98        91.39558
369.43        90.77263
369.88        90.21513
370.33        89.73518
370.78        89.29691
371.23        88.84292
371.68        88.35889
372.13        87.83183
372.58         87.3698
373.03        87.14574
373.48        87.15442
373.93        87.32088
374.38        87.37596
374.83         86.8934
375.28        85.82375
375.72        84.32848
376.17          82.817
376.62        81.73232
377.07        81.17954
377.52        81.01793
377.97        81.08099
378.42        81.09286
378.87        80.94903
379.32        80.72046
379.77        80.45081
380.22        80.19963
380.67        79.97178
381.11        79.72036
381.56        79.39488
382.01        78.94872
382.46        78.40112
382.91        77.81483
383.36        77.25689
383.81        76.81277
384.26         76.5003
384.71        76.27556
385.15        76.12593
385.60        76.08604
386.05         76.1034
386.50        76.15729
386.95        76.12363
387.40        75.81696
387.85        75.23965
388.29        74.44331
388.74        73.68755
389.19        73.13081
389.64        72.80931
390.09        72.64388
390.54        72.59611
390.98        72.58528
391.43        72.59692
391.88         72.6291
392.33        72.58432
392.78        72.39426
393.23        72.07123
393.67        71.48927
394.12        70.82025
394.57        70.78642
395.02        70.39045
395.47        70.40028
395.91        70.44923
396.36        70.40898
396.81        70.24808
397.26        70.02767
397.71        69.78011
398.15        69.46808
398.60        69.18253
399.05        68.94159
399.50        68.75249
399.95         68.5626
400.39        68.19682
400.84        68.47161
401.29        69.10897
401.74         69.2364
402.18        68.75319
402.63        68.07084
403.08        67.48102
403.53        67.24051
403.97        67.41709
404.42        67.92115
404.87        68.46154
405.32        68.57108
405.76        68.14699
406.21        67.37951
406.66        66.53452
407.11        66.05168
407.55        66.06128
408.00        66.34575
408.45        66.76122
408.90        67.19201
409.34        67.45938
409.79        67.29545
410.24        66.87356
410.68        66.75226
411.13        66.99339
411.58        67.30495
412.03        67.56506
412.47        67.68842
412.92         67.6007
413.37        67.37447
413.81        67.06489
414.26        66.82261
414.71        66.65494
415.15        66.53571
415.60        66.45015
416.05        66.42056
416.49        66.45054
416.94        66.54715
417.39        66.64671
417.83        66.62766
418.28         66.4758
418.73        66.21368
419.17        65.97176
419.62        65.97416
420.07        66.24269
420.51        66.68794
420.96        67.14599
421.41        67.30436
421.85        67.09037
422.30        66.72513
422.74        66.31522
423.19        66.02303
423.64        65.92021
424.08        66.15464
424.53        66.61504
424.98        66.94671
425.42        67.06496
425.87        67.24826
426.31        67.44824
426.76        67.17342
427.21        66.44534
427.65        66.45322
428.10        67.00995
428.54        66.92108
428.99        66.28802
429.44        65.95251
429.88        65.97044
430.33        66.08762
430.77        66.26587
431.22        66.36597
431.66        67.23639
432.11        67.06823
432.56        66.28252
433.00        66.12831
433.45        66.78123
433.89         66.9117
434.34        66.99844
434.78        68.00346
435.23        67.24937
435.67        66.76923
436.12         66.0583
436.57        66.09249
437.01        66.77377
437.46        67.18196
437.90        67.16822
438.35        67.42297
438.79        68.01424
439.24        68.27925
439.68        68.28081
440.13         68.4022
440.57        68.62618
441.02          68.702
441.46        68.60282
441.91        68.49187
442.35         68.3332
442.80        68.33106
443.24        68.40245
443.69        68.26845
444.13        67.97515
444.58        67.88426
445.02        67.96026
445.47        68.07547
445.91        68.18703
446.36        68.23635
446.80        68.17263
447.24        68.40568
447.69        68.25875
448.13        68.25835
448.58         68.2289
449.02         68.1719
449.47        68.14973
449.91         68.2371
450.36        68.45641
450.80        68.75238
451.25        69.05529
451.69        69.21987
452.13        69.22278
452.58        69.13702
453.02         69.0078
453.47        68.91607
453.91        68.87437
454.36        68.96925
454.80        68.89023
455.24        69.09011
455.69        69.38094
456.13        69.43109
456.58        69.26003
457.02        68.96457
457.46        68.75124
457.91        68.62166
458.35        68.56229
458.79        68.46078
459.24        68.35283
459.68        68.30363
460.13        68.28436
460.57        68.31968
461.01         68.2127
461.46        67.94837
461.90        67.55682
462.34        67.81902
462.79        68.14223
463.23        68.07679
463.68        67.51895
464.12        67.20425
464.56        67.18311
465.01        66.99619
465.45        66.66973
465.89        66.72231
466.34        67.09574
466.78        67.21913
467.22        67.27831
467.67        67.25713
468.11        67.23543
468.55         67.0332
468.99        66.71085
469.44        66.42992
469.88         66.2236
470.32        66.06861
470.77        65.95726
471.21        65.90027
471.65        65.88065
472.10        65.91585
472.54        65.98615
472.98        66.08634
473.42         66.1965
473.87        66.33175
474.31        66.43282
474.75        66.38055
475.20        66.21025
475.64        66.10364
476.08        66.09256
476.52        65.92275
476.97        65.57381
477.41        65.54319
477.85        65.46729
478.29        64.94463
478.74        65.76043
479.18        65.54491
479.62        65.02507
480.06        64.85257
480.50          65.077
480.95        65.09357
481.39        65.90811
481.83        64.98862
482.27        66.00387
482.72         65.6196
483.16        65.79745
483.60         65.7861
484.04        65.88202
484.48        66.07422
484.93        66.14679
485.37        65.96094
485.81        64.84824
486.25        64.24427
486.69        65.33499
487.14        65.07936
487.58        64.77251
488.02        64.76407
488.46        65.64872
488.90        65.66953
489.34        65.59503
489.79          65.926
490.23        64.98922
490.67        64.94289
491.11         65.1666
491.55         65.1227
491.99        64.81058
492.43        64.71753
492.88        64.86349
493.32        65.00789
493.76        65.11008
494.20        65.23589
494.64        65.36779
495.08        65.46124
495.52         65.5005
495.96        65.51505
496.41        65.51124
496.85        65.43668
497.29        65.25571
497.73        65.32793
498.17         64.8725
498.61        64.85912
499.05        64.33975
499.49        64.45457
499.93        64.83241
500.37        64.90926
500.82        64.71053
501.26        64.49313
501.70        64.79706
502.14        64.84814
502.58        64.81126
503.02        64.85426
503.46        64.98579
503.90         65.1443
504.34         65.2863
504.78        65.35963
505.22        65.33714
505.66        65.24467
506.10        65.11538
506.54        65.00372
506.98        64.91348
507.42        65.01511
507.86        64.60663
508.30        64.87111
508.74        64.43465
509.18        64.25983
509.62        64.08128
510.06        64.08813
510.50        64.29723
510.94        64.66053
511.38        65.05073
511.82        65.22428
512.26        65.12661
512.70        64.83004
513.14        64.47509
513.58        64.28079
514.02         64.3042
514.46        64.47991
514.90        64.71011
515.34         64.8364
515.78         64.8097
516.22        64.67844
516.66        64.51434
517.10        64.42332
517.54          64.432
517.98        64.50585
518.42        64.57417
518.86        64.53001
519.30        64.35575
519.74        64.09413
520.18         63.8419
520.62        63.74001
521.06        63.82246
521.50        64.05508
521.93        64.34286
522.37        64.50706
522.81        64.51022
523.25        64.39211
523.69         64.2646
524.13        64.30431
524.57        64.53778
525.01        64.89689
525.45        65.24106
525.89         65.3452
526.32        65.15397
526.76        64.77531
527.20        64.34222
527.64        64.06009
528.08         63.9851
528.52        64.05103
528.96        64.19635
529.40        64.32368
529.83        64.38789
530.27        64.42601
530.71        64.42953
531.15        64.38757
531.59        64.30453
532.03        64.17916
532.46        64.02605
532.90        63.90193
533.34        63.81784
533.78        63.77107
534.22        63.75775
534.66        63.76646
535.09        63.78428
535.53        63.82427
535.97        63.87305
536.41        63.92269
536.85        63.96616
537.28        63.99688
537.72        64.00523
538.16        63.97541
538.60        63.90602
539.04        63.80389
539.47        63.67721
539.91        63.59303
540.35        63.54745
540.79        63.53929
541.22        63.54084
541.66        63.53776
542.10        63.48722
542.54        63.43657
542.97        63.40592
543.41        63.46122
543.85        63.59673
544.29        63.79357
544.72        63.97546
545.16        64.04819
545.60        63.98676
546.04        63.83239
546.47        63.65157
546.91        63.57107
547.35        63.61811
547.79        63.72901
548.22        63.82971
548.66        63.99299
549.10        64.20872
549.53        64.24672
549.97        63.99746
550.41        64.57936
550.84          64.062
551.28        63.86678
551.72        63.48129
552.15        63.69307
552.59        63.64799
553.03        63.66366
553.46        63.54194
553.90        63.49513
554.34        63.48422
554.77        63.84918
555.21        63.76856
555.65        63.75209
556.08        63.61523
556.52        63.66399
556.96        63.85616
557.39        63.98895
557.83        64.03867
558.27        63.97337
558.70          63.861
559.14        63.89021
559.57        64.01765
560.01        64.14268
560.45        64.21151
560.88        63.94663
561.32        63.74714
561.75        63.68979
562.19        63.84069
562.63        63.76677
563.06         63.4991
563.50        63.45704
563.93        63.60333
564.37        63.67693
564.80         63.6461
565.24        63.65894
565.68        63.69751
566.11        63.72488
566.55        63.73785
566.98        63.64758
567.42        63.55772
567.85        63.51659
568.29        63.54284
568.72        63.78608
569.16        64.27938
569.60        63.79045
570.03        64.14277
570.47        64.13829
570.90         64.0205
571.34        63.91606
571.77        63.96606
572.21        64.03313
572.64        64.12379
573.08        64.04757
573.51        63.83856
573.95        64.07449
574.38        64.13406
574.82        64.20365
575.25        63.82526
575.69        63.64663
576.12        63.71069
576.56        63.40743
576.99        63.59051
577.42        63.73019
577.86         63.5655
578.29        63.35995
578.73        63.86012
579.16        63.19561
579.60        63.39421
580.03        63.28716
580.47        63.78621
580.90        63.94368
581.33        63.14746
581.77        63.64517
582.20        63.44518
582.64        63.43894
583.07        63.30124
583.51        63.16058
583.94        63.26355
584.37        63.12797
584.81        62.96033
585.24        63.27769
585.68        63.49523
586.11        64.23747
586.54        63.32286
586.98        63.21446
587.41        63.78666
587.85        63.88202
588.28        63.77817
588.71        64.28582
589.15         63.3923
589.58        63.24696
590.01        63.18802
590.45        63.28392
590.88         63.5216
591.31        63.77403
591.75        63.85807
592.18        64.03641
592.61        64.42807
593.05        63.17852
593.48        63.62969
593.91        63.89925
594.35         63.1061
594.78        62.97976
595.21        62.94428
595.65         63.3601
596.08        63.11088
596.51        63.20449
596.94        63.65905
597.38        63.63086
597.81        63.48733
598.24        63.48491
598.68        63.18978
599.11        62.78489
599.54        63.85548
599.97        63.86012
600.41        62.84071
600.84        63.44082
601.27         63.1121
601.70        63.46435
602.14        63.58127
602.57        63.27053
603.00        62.68721
603.43        62.62984
603.87        62.84753
604.30        63.64405
604.73        63.10584
605.16        63.08498
605.60        63.05728
606.03         63.1827
606.46         63.3601
606.89        63.42793
607.32        63.36607
607.76        63.35215
608.19        63.43179
608.62        63.28753
609.05        62.97564
609.48        63.27312
609.92        63.29259
610.35        63.27447
610.78        63.53471
611.21        62.97902
611.64        63.17113
612.07        63.47485
612.50         63.2199
612.94        63.38029
613.37        63.70927
613.80        63.40844
614.23        63.81403
614.66        63.80048
615.09        63.79012
615.52        63.69411
615.96        63.48808
616.39         63.6443
616.82        63.09621
617.25        63.22652
617.68        63.13967
618.11        63.33609
618.54         63.5236
618.97        63.47369
619.40        63.27132
619.84        62.99266
620.27        63.34014
620.70        63.49999
621.13        63.52987
621.56        63.61476
621.99        63.32125
622.42        62.90612
622.85        63.49453
623.28        63.18289
623.71        63.82773
624.14        62.70842
624.57        63.30635
625.00         63.3056
625.43        63.61087
625.86         63.0271
626.29        63.21389
626.72         63.0722
627.15        63.07223
627.58        63.11886
628.01        63.18283
628.44        63.14466
628.87        63.02333
629.30        63.07781
629.73        63.29192
630.16        63.39257
630.59        63.35493
631.02        63.47686
631.45        63.46168
631.88        63.45504
632.31         63.3703
632.74        63.24052
633.17        63.09496
633.60        62.99535
634.03        62.96674
634.46        62.95953
634.89        62.95026
635.32        62.98813
635.75        63.07867
636.18        62.89441
636.61        63.00159
637.04        62.96115
637.47        62.95861
637.89        62.93478
638.32        62.86027
638.75        62.86948
639.18        62.98772
639.61        62.57014
640.04        62.76434
640.47        62.68928
640.90        62.68956
641.33         62.7433
641.76        62.81748
642.18        62.83803
642.61        62.75945
643.04         62.6156
643.47        62.48996
643.90        62.49659
644.33        62.64708
644.76        62.98048
645.18        63.35274
645.61        63.35497
646.04         62.8928
646.47        62.76051
646.90        62.91468
647.33         62.8729
647.75        62.63297
648.18        62.50285
648.61        62.51106
649.04        62.57357
649.47        62.67952
649.89        62.82539
650.32         62.9415
650.75        63.02917
651.18        63.09333
651.61        63.02618
652.03        62.91353
652.46        63.11841
652.89        63.42728
653.32        63.30156
653.74        62.88469
654.17        62.33396
654.60        61.89749
655.03         63.6497
655.46        61.49507
655.88        62.80873
656.31         64.3895
656.74        63.97696
657.16        63.71407
657.59        62.24206
658.02        62.03595
658.45        63.22688
658.87        62.97935
659.30        63.66853
659.73        63.53563
660.15        63.64577
660.58        63.33528
661.01        63.13548
661.44        63.00193
661.86        62.79176
662.29         62.5654
662.72        62.62238
663.14        62.88487
663.57        62.74456
664.00        62.31047
664.42        62.19476
664.85        62.44139
665.27        62.68641
665.70        62.84866
666.13        62.99006
666.55        63.08828
666.98        63.11399
667.41        63.07833
667.83        63.00009
668.26        62.88773
668.69        62.74731
669.11        62.61485
669.54        62.55237
669.96        62.57146
670.39        62.65597
670.82        62.75964
671.24        62.81295
671.67        62.78593
672.09         62.6993
672.52        62.61344
672.94        62.67653
673.37        62.42109
673.80        62.92792
674.22        62.77363
674.65         62.9739
675.07        63.14423
675.50        63.30305
675.92        63.42105
676.35        63.44315
676.77        63.38034
677.20        63.23341
677.62        63.05584
678.05        62.93533
678.47        62.89177
678.90        62.90792
679.32        62.94926
679.75        62.96738
680.17        62.94275
680.60        62.90402
681.02        62.85789
681.45        62.82019
681.87        62.80126
682.30        62.77186
682.72        62.76456
683.15        62.79718
683.57        62.89228
684.00        63.04538
684.42        63.19223
684.85        63.28116
685.27         63.3087
685.70        63.13887
686.12        62.86051
686.54        63.17439
686.97        63.72505
687.39        63.79356
687.82        63.70248
688.24        63.80537
688.66        63.60311
689.09        63.35183
689.51        62.96533
689.94        62.75146
690.36        62.74403
690.78        62.87005
691.21        63.07293
691.63        63.24905
692.06        63.35591
692.48        63.42838
692.90        63.46109
693.33        63.43649
693.75        63.36786
694.17        63.25496
694.60        63.12763
695.02        63.05885
695.44        63.06286
695.87        63.11413
696.29        63.20464
696.71        63.30178
697.14        63.38718
697.56        63.42375
697.98        63.42181
698.41        63.42713
698.83        63.43356
699.25        63.42214
699.68        63.37576
700.10        63.33271
700.52        63.28559
700.94        63.24132
701.37        63.19374
701.79        63.14761
702.21        63.09708
702.64        63.05382
703.06        63.03761
703.48        63.08614
703.90        63.20462
704.33        63.39136
704.75        63.57295
705.17        63.69413
705.59        63.71484
706.01        63.65474
706.44        63.56661
706.86        63.54219
707.28        63.59964
707.70        63.71274
708.12        63.84206
708.55        63.91826
708.97        63.92416
709.39        63.86742
709.81        63.79767
710.23        63.82594
710.66        63.96407
711.08         64.1781
711.50        64.39468
711.92        64.53703
712.34        64.58195
712.76        64.55646
713.19        64.46866
713.61        64.37632
714.03        64.28828
714.45        64.20096
714.87        64.14621
715.29        64.17165
715.71        64.27719
716.13        64.44372
716.56        64.60849
716.98        64.74033
717.40        64.78818
717.82        64.76866
718.24        64.68272
718.66        64.56226
719.08        64.42941
719.50        64.23534
719.92        64.01319
720.34         64.0581
720.76        63.99542
721.19        64.10963
721.61        64.23964
722.03        64.28934
722.45        64.22782
722.87        64.08546
723.29        63.91234
723.71         63.7813
724.13        63.71973
724.55        63.71095
724.97        63.73122
725.39        63.73988
725.81           63.73
726.23        63.72205
726.65        63.74075
727.07        63.82426
727.49        63.97272
727.91        64.15313
728.33        64.34007
728.75        64.49535
729.17        64.59866
729.59        64.66546
730.01        64.66409
730.43        64.54596
730.85        64.32494
731.27        64.03124
731.69        63.77009
732.10        63.70587
732.52        63.86943
732.94         64.2142
733.36        64.63218
733.78        64.93627
734.20         65.0574
734.62        65.00627
735.04        64.86635
735.46        64.84422
735.88        64.94392
736.30        64.96954
736.72        64.89277
737.13        64.83422
737.55        64.76852
737.97        64.63657
738.39        64.49238
738.81        64.45956
739.23        64.54707
739.65        64.71099
740.06        64.85407
740.48         64.8914
740.90        64.78962
741.32        64.58124
741.74        64.34756
742.16        64.25462
742.57        64.35329
742.99        64.50665
743.41        64.66876
743.83         64.9207
744.25        65.15513
744.67        65.01884
745.08        64.61749
745.50        64.45672
745.92        64.59708
746.34        64.77692
746.75        64.94654
747.17        65.09275
747.59        65.17844
748.01        65.39325
748.42        65.39871
748.84        65.43298
749.26         65.4045
749.68        65.32519
750.09        65.21069
750.51        65.12685
750.93        65.08047
751.35        65.06532
751.76        65.06876
752.18        65.05608
752.60        65.02252
753.01        64.98954
753.43        64.96229
753.85         64.9798
754.27        65.05402
754.68        65.18245
755.10         65.3312
755.52           65.45
755.93        65.51266
756.35        65.51367
756.77        65.50053
757.18        65.55894
757.60        65.70568
758.02        65.95289
758.43        66.12573
758.85        66.13518
759.26        65.35332
759.68        65.09072
760.10        65.19627
760.51        65.22582
760.93        65.17274
761.34        65.37218
761.76        65.71467
762.18        65.82583
762.59        65.67471
763.01        65.31602
763.42        64.91716
763.84        64.70298
764.26        64.73812
764.67        64.91473
765.09        65.16953
765.50        65.36557
765.92        65.47507
766.33         65.5636
766.75        65.57075
767.16        65.58075
767.58        65.57654
768.00        65.44271
768.41        65.24664
768.83        65.43015
769.24        65.85992
769.66        65.74234
770.07        65.19562
770.49        65.19991
770.90        65.71205
771.32        65.92307
771.73        65.79875
772.15        65.72649
772.56        65.71587
772.97        65.77134
773.39        65.48724
773.80        65.52823
774.22        65.74953
774.63        66.12797
775.05        66.48923
775.46        66.64037
775.88        66.50572
776.29        66.18963
776.70        65.80926
777.12        65.57003
777.53        65.53527
777.95        65.63056
778.36         65.8145
778.77        65.96227
779.19        66.02473
779.60        66.19426
780.02        66.39944
780.43        66.28153
780.84        65.96758
781.26        66.07446
781.67        66.57399
782.09        66.95763
782.50        67.11612
782.91        67.09338
783.33        66.89642
783.74        66.67759
784.15        66.45533
784.57        66.13358
784.98        65.80725
785.39        65.64082
785.81        65.66037
786.22        66.10721
786.63        66.37955
787.04        66.80318
787.46        67.16919
787.87        67.48061
788.28        67.72955
788.70        67.91512
789.11         68.0321
789.52        68.08458
789.93        68.05466
790.35        67.91813
790.76        67.70098
791.17        67.42498
791.58        67.18819
792.00        67.10583
792.41        67.21583
792.82        67.51936
793.23        67.90168
793.65        68.04182
794.06        67.95209
794.47        67.95856
794.88         68.0493
795.29        67.97988
795.71        67.73184
796.12        67.48098
796.53        67.32562
796.94        67.37759
797.35        67.66621
797.76        68.15894
798.18        68.68085
798.59        68.98862
799.00         68.9954
799.41        68.76952
799.82         68.4329
800.23         68.2019
800.64         68.1515
801.06        68.20296
801.47        68.33867
801.88        68.45263
802.29         68.5024
802.70        68.50494
803.11        68.49229
803.52        68.50883
803.93        68.57189
804.34        68.67537
804.75          68.731
805.17        68.64574
805.58        68.44554
805.99        68.00529
806.40        67.52742
806.81         67.6937
807.22        68.38589
807.63        68.67806
808.04        68.51886
808.45        68.58656
808.86        68.88153
809.27         68.9504
809.68        68.80151
810.09        68.71487
810.50        68.72418
810.91        68.73804
811.32        68.77563
811.73         68.8745
812.14        69.02901
812.55        69.24612
812.96        69.44851
813.37        69.48096
813.78        69.31709
814.19        69.01787
814.60        68.69293
815.01        68.49622
815.42        68.46426
815.83        68.55413
816.24        68.72123
816.65        68.87309
817.05        68.96506
817.46        68.98407
817.87        68.96132
818.28        68.89179
818.69        68.78452
819.10        68.64097
819.51        68.48271
819.92        68.36098
820.33        68.29675
820.74        68.27489
821.14        68.30779
821.55        68.41458
821.96        68.58233
822.37        68.81759
822.78        69.03639
823.19        69.09101
823.60        68.94017
824.00        68.60426
824.41        68.22254
824.82         68.0495
825.23        68.13614
825.64        68.43746
826.04        68.76492
826.45        68.71443
826.86        68.23223
827.27        67.45155
827.68        66.68513
828.08        66.44238
828.49        66.79862
828.90         67.6415
829.31        68.68857
829.72        69.44529
830.12        69.77039
830.53         69.7067
830.94        69.49731
831.35        69.52569
831.75        69.91048
832.16         70.4486
832.57          70.937
832.97        71.00758
833.38        70.59412
833.79        69.91691
834.20        69.17168
834.60        68.60384
835.01        68.32567
835.42        68.22164
835.82        68.37698
836.23        68.86892
836.64        69.67472
837.04        70.78988
837.45        71.80221
837.86        72.16502
838.26         71.7505
838.67         70.7261
839.08        69.50114
839.48        68.70944
839.89        68.56191
840.29        68.87378
840.70        69.43237
841.11        69.89365
841.51        70.15546
841.92        70.29439
842.33         70.3719
842.73        70.46651
843.14        70.55424
843.54        70.60562
843.95        70.61361
844.35        70.65044
844.76        70.70146
845.17        70.75361
845.57        70.77702
845.98        70.68048
846.38        70.46924
846.79        70.17282
847.19        69.81948
847.60        69.41605
848.00         69.0138
848.41        68.63291
848.81           68.37
849.22        68.35387
849.62        68.62913
850.03        69.11402
850.43        69.73441
850.84        70.16744
851.24        70.37111
851.65        70.31964
852.05        70.14432
852.46        70.01974
852.86        69.98139
853.27        70.03498
853.67        70.01579
854.07        69.87498
854.48         69.5574
854.88        69.11119
855.29        68.59863
855.69        68.34702
856.10         68.3662
856.50        68.67957
856.90        69.02458
857.31        69.03399
857.71        68.68456
858.12        68.04783
858.52        67.41835
858.92        67.23867
859.33        67.59658
859.73        68.38863
860.13        69.31451
860.54        69.89612
860.94        70.03477
861.34        69.78318
861.75        69.29481
862.15        68.89816
862.55        68.67596
862.96        68.56226
863.36        68.40689
863.76        67.99631
864.17        67.33342
864.57        66.55694
864.97        65.87066
865.38        65.52283
865.78         65.5945
866.18         65.9689
866.58        66.55553
866.99        67.14451
867.39        67.65306
867.79        68.09087
868.19        68.32973
868.60        68.18443
869.00        67.67088
869.40        66.84155
869.80        66.03492
870.21        65.83355
870.61        66.40699
871.01        67.53875
871.41        68.79971
871.81        69.50078
872.22        69.44788
872.62         68.8312
873.02        67.93913
873.42        67.26554
873.82        66.99124
874.22        67.00854
874.63        67.13807
875.03        67.10734
875.43         66.8598
875.83        66.49713
876.23        66.26853
876.63        66.56068
877.03        67.41512
877.44        68.62181
877.84        69.83607
878.24        70.40989
878.64        70.20247
879.04        69.45837
879.44        68.49987
879.84         67.8046
880.24        67.50582
880.64        67.43481
881.04        67.57578
881.44        67.89606
881.84        68.33956
882.24        68.96109
882.65        69.47892
883.05        69.52101
883.45        68.98225
883.85        68.01595
884.25        67.06024
884.65        66.79312
885.05        67.32855
885.45        68.40972
885.85        69.69325
886.25        70.57969
886.65        70.83858
887.05        70.66734
887.45        70.07304
887.85        69.09829
888.25        67.91518
888.65        66.59597
889.04         65.4789
889.44        65.07042
889.84        65.38455
890.24        66.33157
890.64        67.59671
891.04        68.47121
891.44        68.67524
891.84        68.39129
892.24        67.92312
892.64        67.71754
893.04        67.87759
893.44        68.24995
893.83        68.72548
894.23         69.0537
894.63        69.17844
895.03        69.19408
895.43        69.16507
895.83        69.17302
896.23        69.23776
896.63        69.29788
897.02        69.32287
897.42        69.34164
897.82        69.32421
898.22        69.30296
898.62        69.21015
899.01        68.93473
899.41        68.47413
899.81        67.89234
900.21        67.37333
900.61        67.19668
901.00        67.40569
901.40        67.90881
901.80        68.48972
902.20        68.79118
902.59        68.70872
902.99        68.33794
903.39        67.84444
903.79        67.47366
904.18        67.30361
904.58        67.30148
904.98         67.3658
905.38        67.36044
905.77        67.22896
906.17        66.99766
906.57        66.80705
906.96        66.90061
907.36        67.27747
907.76        67.89806
908.15        68.44833
908.55        68.28838
908.95        67.39481
909.34        65.98817
909.74        64.69938
910.14        64.36523
910.53        65.17943
910.93        66.80141
911.33        68.79241
911.72        70.45369
912.12         71.4383
912.52        71.94042
912.91        72.03922
913.31        71.87989
913.70        71.57497
914.10        71.04548
914.49        70.39013
914.89        69.76423
915.29        69.24217
915.68        68.84572
916.08        68.62897
916.47        68.50732
916.87        68.49992
917.26         68.5801
917.66        68.74268
918.05        68.99857
918.45        69.27915
918.84         69.6077
919.24        69.82955
919.64        69.84119
920.03        69.63535
920.42        69.23528
920.82        68.81842
921.21        68.56272
921.61        68.52827
922.00        68.67753
922.40        68.91957
922.79        69.17461
923.19        69.36495
923.58        69.53442
923.98        69.65925
924.37        69.71839
924.77        69.70524
925.16        69.61824
925.55        69.49403
925.95        69.40738
926.34        69.39436
926.74        69.42536
927.13        69.45404
927.52         69.3643
927.92        69.14789
928.31        68.83499
928.70        68.51134
929.10        68.29771
929.49        68.22453
929.89        68.22534
930.28        68.27283
930.67        68.24834
931.07        68.12032
931.46        67.95926
931.85        67.76771
932.24        67.55014
932.64        67.34122
933.03        67.15131
933.42        67.07426
933.82        67.25433
934.21        67.71685
934.60        68.34986
934.99         69.0474
935.39        69.61552
935.78        70.02468
936.17         70.2976
936.56        70.27258
936.96        69.74342
937.35        68.77079
937.74        67.49687
938.13        66.36535
938.53        65.93323
938.92        66.24613
939.31        67.19373
939.70        68.40617
940.09        69.13736
940.49        69.12095
940.88        68.58076
941.27        67.85181
941.66        67.45983
942.05         67.5442
942.44        67.96334
942.84        68.47397
943.23        68.72569
943.62        68.56109
944.01        68.09609
944.40        67.63515
944.79        67.60936
945.18        68.08787
945.57        68.94202
945.97        69.70447
946.36        69.82106
946.75        69.06339
947.14        67.65726
947.53         66.1675
947.92        65.43171
948.31        65.64896
948.70        66.61071
949.09        67.81597
949.48        68.34948
949.87        67.94187
950.26        66.88319
950.65        65.71883
951.04        65.20478
951.43        65.50202
951.82        66.39494
952.21          67.428
952.60         67.7906
952.99        67.25669
953.38          66.108
953.77        64.91927
954.16        64.43681
954.55        64.80975
954.94        65.89301
955.33        67.17823
955.72        67.58417
956.11        66.78651
956.50        65.18866
956.89        63.63438
957.28        63.22306
957.66        64.19984
958.05        66.17757
958.44        68.51981
958.83        69.89442
959.22        69.80852
959.61        68.70459
960.00        67.24609
960.39        66.28236
960.78        65.98715
961.16        66.10606
961.55        66.34331
961.94         66.2397
962.33        65.66989
962.72        64.93855
963.11        64.23018
963.49        63.72115
963.88        63.47114
964.27        63.39337
964.66         63.5851
965.04        64.27886
965.43        65.37926
965.82        66.79763
966.21        68.19375
966.60        68.94607
966.98        68.89999
967.37        68.29448
967.76        67.38763
968.15        66.52496
968.53        65.81695
968.92         65.1136
969.31        64.66702
969.69        64.96207
970.08        66.02699
970.47        67.86108
970.86        69.70416
971.24         70.2181
971.63        69.10321
972.02        66.81259
972.40         64.4306
972.79        63.67575
973.17        64.85844
973.56        67.32661
973.95        70.21908
974.33        71.88657
974.72        71.70357
975.11        70.25869
975.49        68.25511
975.88         67.0491
976.26        66.99236
976.65        67.61658
977.04        68.61266
977.42        69.43975
977.81        69.72211
978.19        69.75583
978.58        69.60806
978.96        69.23884
979.35        68.76579
979.74        68.19846
980.12        67.75156
980.51        67.78794
980.89         68.4311
981.28        69.38369
981.66        70.67004
982.05        72.03349
982.43        73.42287
982.82        74.85842
983.20         75.7635
983.59        75.08211
983.97        72.77968
984.35        69.26448
984.74        65.98382
985.12        64.95043
985.51        66.42139
985.89        69.91804
986.28        73.87501
986.66         76.0022
987.04         75.4497
987.43        72.87833
987.81        69.46465
988.20         67.6128
988.58        67.97243
988.96         69.9016
989.35        72.00472
989.73        72.25381
990.12        70.10094
990.50        66.39306
990.88        62.37815
991.27        60.00999
991.65        59.80156
992.03        61.18816
992.42        63.39017
992.80        65.53841
993.18        67.17598
993.56        68.54824
993.95        69.67175
994.33        70.67931
994.71        71.48647
995.10        72.00863
995.48        72.12202
995.86        71.81438
996.24        71.16734
996.63        70.15297
997.01        69.32536
997.39        69.44175
997.77        70.63609
998.15        72.67993
998.54         74.7499
998.92        75.58097
999.30        74.87072
999.68        72.94579
1000.06        70.58185
1000.45        69.25229
1000.83         69.5293
1001.21        70.97912
1001.59        72.98066
1001.97        74.49266
1002.35        75.13593
1002.73        75.22044
1003.12        74.93013
1003.50        74.44122
1003.88        73.93948
1004.26        73.40612
1004.64        72.91726
1005.02        72.66214
1005.40        72.70147
1005.78         72.9569
1006.16         73.5463
1006.54        74.65343
1006.92        76.25655
1007.30        78.32882
1007.69        80.31068
1008.07         81.1256
1008.45        80.33321
1008.83        78.25197
1009.21        75.65477
1009.59         73.9337
1009.97        73.50186
1010.35        73.85043
1010.73        74.82313
1011.11        76.08469
1011.49        77.35754
1011.86        78.92955
1012.24        79.80157
1012.62        78.58654
1013.00        75.06367
1013.38        69.30736
1013.76         63.1051
1014.14        60.34273
1014.52        62.38885
1014.90        68.37083
1015.28        75.29275
1015.66        78.37382
1016.04        76.43644
1016.41         70.8254
1016.79         63.9026
1017.17        60.52593
1017.55        61.96012
1017.93        65.91165
1018.31        70.34238
1018.69        73.77744
1019.06        76.30897
1019.44        78.53468
1019.82        80.82044
1020.20        82.94365
1020.58        84.23199
1020.95        84.21333
1021.33        82.85236
1021.71        80.07293
1022.09        75.72226
1022.46        69.29431
1022.84        61.95087
1023.22        57.46309
1023.60        58.18787
1023.97        62.81213
1024.35        68.40292
1024.73        72.15942
