SpectraSmart Spectrum 2.9.0.0
--------- Device Information -----------
Spectrum Name :  反射率_0
Saving Time :  2024/04/30 00:10:43
Spectro-Module Model Name : SE2030-DUVN
Spectro-Module Serial Number : OS361AC55029948
Wavelength Start : 200
Wavelength End : 1025
Wavelength Unit : Wavelength(nm)
Spectrum Unit : Reflectance(%)
-----------Spectrum Setting ------------
Integration Time : 20ms
Average : 10
Boxcar : 0
Background removal :  enabled
linearity correction :  enabled
SC :  disabled
Intensity correction :  disabled
DWT denoise :  enabled
savitzky-golay :  disabled
FFT :  disabled
Running average :  disabled
Kalman :  disabled
High pass :  disabled
---------------BEGIN--------------------
Wavelength(nm)             Reflectance(%)
200.29               0
200.75        119.2554
201.21        100.7798
201.67         81.6134
202.13        67.44541
202.58        61.22963
203.04        61.67704
203.50        68.73509
203.96        81.28246
204.42        96.63782
204.88        113.3471
205.34        124.3533
205.80        121.2522
206.26        107.6419
206.72        90.89947
207.18        76.20296
207.64        65.92202
208.10        58.87837
208.55        53.06624
209.01        49.09127
209.47        49.56381
209.93        54.11113
210.39        61.04625
210.85        66.75135
211.31        68.17825
211.77        65.07055
212.23        56.75693
212.69        44.82875
213.14        39.79012
213.60        46.36644
214.06        58.85266
214.52        69.36333
214.98        72.75626
215.44        70.11691
215.90        63.63756
216.36        56.44521
216.81        54.58212
217.27        61.20877
217.73        76.29948
218.19        98.72913
218.65        117.0253
219.11        121.2794
219.57        114.5185
220.02        104.4802
220.48        97.40819
220.94        92.59725
221.40        87.91325
221.86        81.57974
222.32        73.04392
222.77        65.20406
223.23         60.7126
223.69        58.90594
224.15        58.57762
224.61        59.08912
225.06        60.26602
225.52         61.9369
225.98        63.15854
226.44        63.48021
226.90        63.19464
227.36        62.57335
227.81        61.78413
228.27        60.88231
228.73        59.62416
229.19        58.32763
229.65         57.7468
230.10         58.0118
230.56        58.95748
231.02        59.74574
231.48        59.63028
231.93        58.56765
232.39        56.82581
232.85        55.14175
233.31        54.97196
233.77        56.71264
234.22         60.1477
234.68        63.87275
235.14        65.33302
235.60        63.94281
236.05        60.51963
236.51        57.18196
236.97        56.75364
237.43        60.01687
237.88        67.06709
238.34        76.66068
238.80        84.18191
239.26        86.07646
239.71        83.11177
240.17        78.03532
240.63        75.25227
241.08        76.29781
241.54        80.94283
242.00        90.13061
242.46         100.835
242.91        107.3664
243.37        108.0867
243.83        106.0608
244.28         106.563
244.74         110.842
245.20         117.071
245.66        124.7517
246.11        132.4411
246.57        138.3651
247.03        144.6213
247.48        147.0257
247.94          137.79
248.40        121.5905
248.85        104.7753
249.31        94.27089
249.77        92.25043
250.22        98.01302
250.68        112.8041
251.14        136.2832
251.59        149.2281
252.05        138.6966
252.51         119.829
252.96        105.6569
253.42        100.9962
253.88        102.8819
254.33        108.5072
254.79        115.6608
255.25        118.8738
255.70        116.8621
256.16        113.4939
256.62        110.5378
257.07        108.9157
257.53        108.9174
257.99        109.4439
258.44        109.4556
258.90        108.6555
259.35        106.6234
259.81        104.5807
260.27        102.7341
260.72        101.2347
261.18        100.3563
261.63        99.42619
262.09        98.44398
262.55        96.86049
263.00        94.65083
263.46        92.44477
263.91        90.21455
264.37        88.46581
264.83        87.03328
265.28        85.68593
265.74        84.53399
266.19        83.40987
266.65        82.40214
267.11        81.48373
267.56        80.51571
268.02        79.34373
268.47        77.87617
268.93        76.16611
269.38         74.3639
269.84        72.87778
270.30        71.80962
270.75        71.03623
271.21        70.35901
271.66        69.37395
272.12        68.01788
272.57        66.36998
273.03        64.63589
273.48        63.03101
273.94          61.735
274.39        60.61246
274.85        59.67373
275.31        58.78117
275.76        57.85315
276.22        56.97532
276.67        56.10426
277.13        55.34695
277.58         54.6218
278.04        53.96832
278.49         53.2293
278.95        52.35293
279.40        51.27719
279.86        50.15144
280.31        49.03799
280.77        48.20635
281.22        47.63244
281.68        47.27993
282.13        47.02602
282.59        46.80337
283.04        46.52429
283.50        46.24256
283.95         45.8772
284.41        45.35992
284.86        44.69063
285.32         43.9782
285.77        43.30666
286.22        42.90733
286.68        42.82613
287.13        42.93185
287.59        43.18469
288.04         43.4315
288.50        43.63734
288.95        43.78505
289.41        43.85733
289.86        43.75457
290.32        43.52737
290.77        43.21469
291.22        42.92745
291.68        42.83567
292.13        42.98223
292.59        43.36798
293.04        44.00092
293.50        44.94431
293.95        46.16452
294.40        47.64793
294.86        49.24323
295.31        50.72104
295.77        52.01346
296.22        53.14584
296.68        54.24794
297.13        55.50801
297.58        56.97463
298.04        58.55265
298.49           60.12
298.95        61.51252
299.40        62.68195
299.85        63.71556
300.31         64.7159
300.76        65.73867
301.21        66.85763
301.67        68.07657
302.12        69.36271
302.58        70.82198
303.03        72.40041
303.48        74.03201
303.94        75.67255
304.39        77.43525
304.84        78.88898
305.30        80.37269
305.75        81.71307
306.20        82.92552
306.66        84.03864
307.11        85.00478
307.57        85.90095
308.02         86.6991
308.47        87.45841
308.93        88.19291
309.38        88.91143
309.83        89.71008
310.29        90.59775
310.74        91.53016
311.19        92.39215
311.65        92.98885
312.10        93.27751
312.55        93.34956
313.00        93.41083
313.46        93.77068
313.91        94.45499
314.36        95.44112
314.82        96.55767
315.27        97.30463
315.72        97.51659
316.18        98.29494
316.63        97.96756
317.08        98.08585
317.53        98.19966
317.99        98.34267
318.44        98.46905
318.89        98.56306
319.35        98.64003
319.80        98.69715
320.25        98.85468
320.70        99.29018
321.16        99.98746
321.61        100.9279
322.06        101.8295
322.51        102.2478
322.97        102.0812
323.42        101.4729
323.87        100.7452
324.32        100.4369
324.78        100.6679
325.23        101.3506
325.68         102.205
326.13        102.7505
326.59         102.825
327.04        102.6072
327.49        102.3294
327.94        102.4161
328.39        102.9647
328.85        103.7802
329.30        104.6777
329.75        105.1472
330.20        105.0593
330.66        104.5876
331.11        104.0126
331.56        103.7018
332.01        103.8011
332.46        104.2023
332.92        104.8174
333.37         105.642
333.82        106.5518
334.27        107.5487
334.72        108.5115
335.17        109.2367
335.63         109.639
336.08        109.8065
336.53        109.7772
336.98        109.7117
337.43        109.6899
337.88        109.6923
338.34        109.7734
338.79         110.029
339.24        110.4603
339.69        111.0652
340.14        111.7262
340.59        112.2241
341.05        112.5116
341.50        112.6523
341.95        112.7458
342.40        112.9837
342.85        113.4064
343.30        113.9151
343.75        114.4679
344.20         115.001
344.66        115.4891
345.11         115.976
345.56        116.3428
346.01        116.3895
346.46        116.1234
346.91        115.6102
347.36        115.1716
347.81        115.2986
348.26        116.0537
348.72        117.2576
349.17        118.5424
349.62        119.2097
350.07        119.0851
350.52        118.4207
350.97        117.5547
351.42        117.0031
351.87        116.9212
352.32        117.1312
352.77        117.5569
353.22        118.0868
353.67        118.6126
354.13          119.13
354.58        119.4862
355.03        119.4206
355.48        118.8865
355.93        117.9665
356.38        116.7931
356.83        115.5864
357.28        114.4446
357.73        113.3398
358.18         112.341
358.63        111.5374
359.08        110.9272
359.53        110.4955
359.98        110.1052
360.43        109.5235
360.88        108.7001
361.33        107.6981
361.78        106.6412
362.23        105.7364
362.68         105.039
363.13        104.4851
363.58        103.9991
364.03        103.4606
364.48        102.8298
364.93        102.1451
365.38         101.443
365.83        100.7826
366.28        100.1808
366.73        99.60922
367.18        99.03647
367.63        98.41801
368.08        97.73724
368.53        97.00951
368.98        96.26041
369.43        95.52512
369.88        94.82924
370.33        94.18774
370.78        93.58308
371.23        92.98711
371.68        92.39547
372.13        91.79733
372.58         91.2674
373.03        90.92416
373.48        90.75655
373.93        90.70446
374.38        90.57858
374.83        90.07962
375.28        89.17725
375.72        87.98658
376.17        86.79351
376.62        85.86216
377.07        85.25891
377.52        84.87862
377.97        84.67855
378.42        84.59097
378.87        84.55553
379.32        84.58195
379.77        84.54856
380.22         84.2686
380.67        83.71122
381.11         82.9152
381.56        82.02899
382.01        81.33369
382.46        80.91806
382.91        80.72366
383.36        80.61374
383.81        80.36456
384.26        79.92458
384.71        79.36546
385.15        78.79961
385.60        78.45612
386.05        78.34718
386.50        78.38107
386.95        78.41849
387.40        78.25411
387.85        77.85846
388.29        77.28452
388.74        76.72843
389.19        76.24996
389.64        75.87459
390.09         75.5406
390.54         75.2808
390.98         75.1528
391.43        75.17256
391.88         75.2715
392.33        75.29788
392.78        75.10596
393.23        74.65733
393.67         73.8548
394.12        72.97803
394.57        72.49275
395.02        72.24604
395.47        72.25028
395.91        72.35233
396.36        72.39001
396.81        72.31153
397.26        72.16501
397.71        71.96727
398.15        71.67583
398.60        71.38057
399.05        71.10958
399.50        70.86559
399.95        70.57423
400.39        70.06626
400.84        70.22036
401.29        70.77849
401.74        70.85826
402.18        70.37022
402.63        69.74641
403.08        69.24481
403.53        69.07082
403.97        69.26553
404.42        69.71886
404.87        70.21634
405.32        70.36864
405.76        70.07683
406.21        69.67006
406.66        69.21868
407.11        68.51447
407.55        67.84273
408.00        67.82076
408.45        68.38283
408.90        69.05521
409.34        69.49199
409.79        69.12538
410.24         68.2253
410.68         67.9197
411.13        68.29823
411.58        68.68232
412.03        68.90027
412.47        69.00211
412.92        68.90205
413.37        68.61929
413.81        68.23811
414.26        67.96198
414.71        67.80473
415.15        67.73492
415.60        67.69492
416.05        67.63326
416.49         67.5402
416.94        67.44606
417.39        67.36378
417.83        67.28483
418.28        67.22386
418.73        67.18478
419.17         67.1899
419.62        67.28928
420.07        67.45544
420.51        67.64151
420.96        67.84173
421.41        67.90445
421.85        67.77936
422.30        67.88435
422.74        67.99096
423.19        67.51801
423.64        66.68434
424.08        66.78709
424.53        67.73904
424.98        68.25464
425.42        68.17778
425.87        68.35751
426.31         68.7208
426.76        68.29929
427.21        67.19279
427.65        67.19839
428.10        68.05492
428.54        67.86623
428.99        66.81605
429.44        66.45308
429.88        66.82522
430.33        67.15166
430.77         67.2951
431.22        67.74386
431.66        68.37312
432.11        68.27308
432.56        67.52431
433.00        67.49287
433.45        68.48286
433.89        68.10192
434.34        68.70074
434.78        70.19003
435.23        67.53347
435.67        66.97558
436.12        67.06333
436.57        67.33955
437.01        67.53513
437.46        68.54552
437.90        68.23877
438.35        68.58747
438.79        69.01379
439.24        69.15464
439.68        69.06372
440.13        69.11516
440.57        69.32415
441.02         69.4326
441.46        69.40923
441.91         69.4168
442.35        69.36343
442.80        69.50088
443.24        69.74587
443.69        69.67377
444.13        69.31033
444.58        69.09281
445.02        68.99442
445.47         68.8263
445.91        68.64157
446.36        68.58675
446.80        68.64291
447.24        69.00034
447.69        69.28158
448.13        69.34413
448.58        69.16834
449.02        69.16079
449.47        69.35699
449.91        69.46545
450.36        69.50542
450.80        69.63628
451.25        69.83566
451.69        69.94379
452.13        69.94971
452.58        69.92512
453.02        69.88665
453.47        69.86585
453.91        69.85953
454.36        69.96728
454.80        69.85662
455.24        69.99268
455.69        70.19453
456.13        70.05479
456.58        69.65751
457.02        69.40025
457.46        69.33031
457.91        69.25166
458.35        69.12357
458.79        69.02202
459.24        68.97356
459.68        68.98075
460.13         69.0464
460.57        68.92025
461.01        69.09527
461.46        68.80426
461.90        68.56216
462.34        68.80147
462.79        69.17721
463.23        68.97454
463.68        68.19933
464.12        67.77553
464.56        67.76103
465.01        67.62708
465.45        67.39112
465.89         67.5133
466.34        67.90788
466.78        68.33321
467.22        68.37403
467.67        68.36369
468.11        68.20448
468.55        67.77158
468.99        67.20993
469.44        66.81271
469.88        66.65266
470.32        66.67677
470.77        66.78946
471.21        66.84764
471.65        66.78534
472.10        66.65896
472.54        66.54451
472.98        66.53356
473.42        66.62347
473.87        66.94627
474.31        67.31661
474.75        67.04385
475.20        66.28409
475.64        66.17737
476.08        66.70729
476.52          66.564
476.97        65.67467
477.41        66.14755
477.85        65.82037
478.29        65.48724
478.74        65.99817
479.18        65.97497
479.62          65.844
480.06        65.82656
480.50        65.98401
480.95        65.64645
481.39        65.89171
481.83        65.65432
482.27        66.31185
482.72        66.16816
483.16        66.16766
483.60        66.17869
484.04        66.43153
484.48        66.65529
484.93        66.56966
485.37        66.50468
485.81        65.61754
486.25        64.33945
486.69        66.05592
487.14        66.12524
487.58        65.14447
488.02        65.15974
488.46        65.90992
488.90        65.76414
489.34        65.64262
489.79        65.71404
490.23        65.27988
490.67        65.21146
491.11        65.18766
491.55        64.98382
491.99        64.66094
492.43        64.58084
492.88        64.76617
493.32        65.06474
493.76        65.36172
494.20        65.55673
494.64        65.59889
495.08        65.51665
495.52        65.37228
495.96        65.24142
496.41        65.16528
496.85         65.3314
497.29        65.21275
497.73        65.35858
498.17        64.90343
498.61         64.6405
499.05        64.45607
499.49        64.46227
499.93        64.57389
500.37        64.60508
500.82        64.57404
501.26        64.20049
501.70        64.30304
502.14        64.35399
502.58        64.45573
503.02         64.5592
503.46        64.62434
503.90        64.75053
504.34        64.89568
504.78        64.93592
505.22        64.85131
505.66        64.72994
506.10        64.61697
506.54        64.50591
506.98         64.4044
507.42         64.6655
507.86         64.3426
508.30        64.67776
508.74         64.2228
509.18        63.98887
509.62        63.73373
510.06        63.67302
510.50        63.83818
510.94        64.17188
511.38        64.54312
511.82        64.70206
512.26        64.59163
512.70        64.29018
513.14        63.93505
513.58        63.73795
514.02        63.75515
514.46        63.92172
514.90         64.1484
515.34        64.29162
515.78        64.30543
516.22        64.23421
516.66        64.13689
517.10        64.10032
517.54        64.14514
517.98        64.23798
518.42         64.3222
518.86        64.31367
519.30        64.19831
519.74        64.01304
520.18        63.82711
520.62        63.74073
521.06        63.78056
521.50        63.92111
521.93        64.10976
522.37        64.23785
522.81        64.28175
523.25        64.26213
523.69         64.2315
524.13        64.27314
524.57        64.39981
525.01        64.57853
525.45        64.73846
525.89        64.76813
526.32         64.6384
526.76        64.41316
527.20        64.16765
527.64        64.02124
528.08        64.00216
528.52        64.06881
528.96        64.17493
529.40        64.24701
529.83        64.25397
530.27        64.22817
530.71        64.16932
531.15        64.08151
531.59        63.97543
532.03        63.85175
532.46        63.72687
532.90        63.65564
533.34         63.6417
533.78        63.67397
534.22        63.73413
534.66        63.79125
535.09         63.8264
535.53        63.85735
535.97         63.8718
536.41        63.86606
536.85        63.84016
537.28         63.7908
537.72        63.72681
538.16        63.65951
538.60        63.59376
539.04        63.53204
539.47        63.46351
539.91        63.42117
540.35        63.39313
540.79        63.38961
541.22        63.39889
541.66        63.41302
542.10        63.42529
542.54        63.43734
542.97        63.46339
543.41        63.54596
543.85        63.67624
544.29         63.8485
544.72        63.98509
545.16         64.0022
545.60        63.88467
546.04        63.63658
546.47        63.36152
546.91        63.33491
547.35        63.55312
547.79        63.72486
548.22        63.76437
548.66        63.95166
549.10        64.23775
549.53        64.14045
549.97        63.63325
550.41         64.1249
550.84        63.70645
551.28         63.7576
551.72        63.68335
552.15          63.875
552.59        63.49622
553.03        63.87306
553.46        63.61369
553.90        63.65451
554.34        63.63914
554.77        63.63758
555.21        63.64547
555.65        63.58755
556.08        63.50318
556.52        63.53019
556.96        63.65146
557.39        63.80885
557.83        63.97079
558.27          64.018
558.70        63.99166
559.14        64.08232
559.57        64.23956
560.01        64.36214
560.45         64.4046
560.88        64.11886
561.32         63.9167
561.75        63.82852
562.19        63.93789
562.63        63.93992
563.06        63.82274
563.50        63.76331
563.93         63.7508
564.37        63.81197
564.80        63.89068
565.24        63.85651
565.68        63.72917
566.11        63.71915
566.55        63.83461
566.98        63.86909
567.42        63.88704
567.85        63.91267
568.29        63.92724
568.72        64.14712
569.16        64.67844
569.60        64.13767
570.03        64.12269
570.47        64.68748
570.90        64.62704
571.34        63.87556
571.77        64.47707
572.21        64.42283
572.64        64.37721
573.08        64.38201
573.51        64.39749
573.95        63.97268
574.38        64.82935
574.82        64.37863
575.25        64.56004
575.69        64.47182
576.12        64.37025
576.56        63.49185
576.99         63.7777
577.42        64.01798
577.86        63.81668
578.29        63.93467
578.73        64.71993
579.16         64.0336
579.60        64.05053
580.03        64.08785
580.47        64.53857
580.90        64.57961
581.33        64.17928
581.77        63.91288
582.20        63.95684
582.64        64.48689
583.07        64.02622
583.51        63.90035
583.94        63.82377
584.37         63.5429
584.81        63.42638
585.24        63.42279
585.68        64.27119
586.11        65.20132
586.54        64.24197
586.98        63.69838
587.41          64.377
587.85        64.38653
588.28        64.50923
588.71        65.18449
589.15        64.08763
589.58        64.16537
590.01        63.87084
590.45        63.92713
590.88        64.11514
591.31         64.4433
591.75        64.64404
592.18        64.78426
592.61        65.07676
593.05        63.58086
593.48        64.13052
593.91        64.80159
594.35        63.82005
594.78        63.59867
595.21        63.70567
595.65        63.88195
596.08        63.85339
596.51        63.75973
596.94        64.36987
597.38        64.45359
597.81        64.21593
598.24        64.18783
598.68        63.97689
599.11        63.72617
599.54        64.75383
599.97        65.09154
600.41        63.42647
600.84        64.07124
601.27        63.77731
601.70        64.20525
602.14        64.33875
602.57        64.07301
603.00        63.51472
603.43        63.46355
603.87        63.76157
604.30         63.9448
604.73        63.97195
605.16        63.73085
605.60        63.88966
606.03        64.01071
606.46        64.17252
606.89        64.31404
607.32        64.15308
607.76        64.11323
608.19        64.15493
608.62        64.11587
609.05        64.02901
609.48        64.02736
609.92        64.10442
610.35        63.93678
610.78        64.32529
611.21        63.82643
611.64        64.11073
612.07        64.11962
612.50        64.11814
612.94        63.92751
613.37        64.39439
613.80        63.96758
614.23        64.31244
614.66         64.2635
615.09         64.2445
615.52        64.24445
615.96        64.21062
616.39        64.21503
616.82        63.57156
617.25        63.83213
617.68        63.59668
618.11        63.82367
618.54        64.03822
618.97        63.97393
619.40        63.70759
619.84        63.63747
620.27        63.83377
620.70        64.12532
621.13        64.39371
621.56        64.11761
621.99        64.07515
622.42        63.55498
622.85        63.87142
623.28        63.80292
623.71         64.1954
624.14        63.67269
624.57        64.01086
625.00        63.96187
625.43        64.00214
625.86        63.76852
626.29        63.57432
626.72        63.66104
627.15         63.5799
627.58        63.77855
628.01        63.98561
628.44         63.9453
628.87        63.74579
629.30        63.50476
629.73        63.89739
630.16        64.09316
630.59        63.90753
631.02        64.05315
631.45        64.12595
631.88        64.17193
632.31        64.07798
632.74        64.03734
633.17        63.85555
633.60        63.73412
634.03        63.62886
634.46         63.5238
634.89        63.43914
635.32        63.42209
635.75        63.47633
636.18        63.58037
636.61        63.69033
637.04        63.75207
637.47        63.76501
637.89        63.68563
638.32        63.51768
638.75          63.509
639.18        63.68803
639.61        63.27746
640.04        63.43795
640.47        63.36712
640.90        63.41262
641.33        63.50024
641.76        63.59306
642.18        63.63547
642.61        63.57948
643.04        63.45113
643.47        63.33323
643.90        63.34049
644.33         63.4852
644.76        63.81052
645.18        64.17452
645.61        64.16548
646.04        63.69263
646.47        63.56726
646.90        63.74234
647.33        63.71738
647.75        63.47904
648.18        63.34604
648.61         63.3653
649.04        63.41084
649.47        63.47919
649.89        63.75466
650.32        64.08801
650.75        63.99564
651.18        63.57958
651.61        63.47962
652.03        63.78837
652.46        64.05632
652.89         64.0561
653.32        64.24659
653.74        64.34322
654.17        63.30812
654.60        63.01875
655.03        64.18227
655.46        62.98343
655.88        63.87328
656.31        64.59048
656.74         65.5266
657.16        66.31517
657.59        65.00911
658.02        63.70943
658.45        64.35286
658.87         63.8431
659.30        63.64251
659.73        64.31803
660.15        64.41148
660.58        64.18803
661.01         63.9852
661.44         63.8494
661.86        63.54888
662.29        63.18905
662.72        63.27163
663.14        63.70777
663.57        63.72327
664.00        63.37138
664.42        63.30266
664.85         63.5451
665.27        63.68731
665.70        63.68187
666.13         63.6867
666.55        63.70472
666.98        63.67748
667.41        63.62243
667.83        63.57004
668.26        63.52127
668.69        63.48093
669.11        63.45275
669.54        63.43452
669.96        63.42418
670.39        63.44788
670.82        63.48651
671.24        63.45345
671.67        63.36455
672.09        63.37035
672.52        63.47689
672.94        63.62114
673.37         63.3066
673.80        63.73924
674.22        63.50147
674.65        63.62199
675.07        63.72793
675.50        63.83783
675.92        63.92949
676.35        63.95918
676.77        63.93713
677.20        63.86156
677.62        63.76585
678.05        63.70425
678.47        63.68769
678.90        63.70454
679.32        63.73695
679.75         63.7667
680.17        63.78074
680.60        63.79659
681.02        63.80551
681.45        63.80081
681.87        63.78649
682.30        63.74064
682.72        63.70847
683.15        63.72547
683.57        63.82346
684.00        63.99987
684.42        64.18242
684.85        64.29469
685.27        64.32024
685.70        64.14627
686.12        63.90775
686.54        64.19002
686.97        64.84733
687.39        65.08844
687.82        64.83527
688.24        64.70357
688.66         64.6974
689.09        64.43101
689.51         64.0031
689.94        63.77391
690.36        63.78468
690.78        63.93676
691.21         64.1484
691.63        64.28839
692.06        64.31445
692.48        64.28517
692.90        64.22729
693.33        64.17112
693.75        64.13396
694.17        64.09055
694.60        64.06605
695.02        64.08243
695.44        64.13055
695.87          64.325
696.29        64.59013
696.71        64.47729
697.14        64.10735
697.56        64.15894
697.98        64.58175
698.41        64.74113
698.83        64.60385
699.25        64.54605
699.68        64.55767
700.10         64.4978
700.52        64.35782
700.94        64.19618
701.37        64.04078
701.79        63.95139
702.21        63.93413
702.64        63.97721
703.06         64.0638
703.48        64.17794
703.90        64.30888
704.33        64.46906
704.75        64.60464
705.17        64.69553
705.59        64.71202
706.01        64.66334
706.44        64.59489
706.86        64.57336
707.28        64.60989
707.70        64.72919
708.12        64.89332
708.55        64.92969
708.97         64.8707
709.39        64.95885
709.81        65.18114
710.23        65.32372
710.66        65.36317
711.08        65.43039
711.50        65.52605
711.92        65.62476
712.34        65.72755
712.76        65.84369
713.19        65.91772
713.61        65.90068
714.03        65.77232
714.45        65.56414
714.87        65.36181
715.29        65.29343
715.71         65.3819
716.13        65.58527
716.56         65.8117
716.98        65.98226
717.40        66.02959
717.82        65.98885
718.24        65.89104
718.66        65.78954
719.08        65.70619
719.50         65.6185
719.92        65.54342
720.34        65.51009
720.76        65.52121
721.19        65.57327
721.61        65.63314
722.03        65.61473
722.45        65.50332
722.87        65.31839
723.29         65.1327
723.71        65.06693
724.13        65.14539
724.55        65.33067
724.97         65.5381
725.39        65.62681
725.81        65.56756
726.23        65.41492
726.65        65.24403
727.07        65.17433
727.49        65.23732
727.91         65.3828
728.33         65.5838
728.75        65.79606
729.17         65.9892
729.59        66.17852
730.01        66.31091
730.43        66.30039
730.85        66.14464
731.27         65.8726
731.69        65.59573
732.10         65.4938
732.52         65.6082
732.94        65.89602
733.36        66.24863
733.78        66.48795
734.20        66.54981
734.62        66.42188
735.04        66.22134
735.46        66.24067
735.88        66.47296
736.30        66.62891
736.72        66.61275
737.13        66.54646
737.55        66.39787
737.97        65.99338
738.39        65.51942
738.81        65.54155
739.23        66.01052
739.65        66.32348
740.06        66.34698
740.48        66.38212
740.90        66.38564
741.32         66.1435
741.74        65.74951
742.16        65.52564
742.57        65.54623
742.99        65.65125
743.41         65.8007
743.83        66.03818
744.25        66.27431
744.67        66.26454
745.08        66.06768
745.50        66.00951
745.92        66.12696
746.34        66.22233
746.75         66.2725
747.17        66.31998
747.59        66.35636
748.01        66.40175
748.42        66.44473
748.84        66.39479
749.26        66.28764
749.68        66.22555
750.09        66.22381
750.51        66.28853
750.93        66.38797
751.35        66.46488
751.76        66.50465
752.18        66.53947
752.60        66.56313
753.01        66.53976
753.43        66.47664
753.85        66.45048
754.27        66.48138
754.68        66.56452
755.10        66.66368
755.52        66.72137
755.93        66.71146
756.35        66.63985
756.77        66.58804
757.18        66.63287
757.60        66.78548
758.02          67.171
758.43        67.58736
758.85         67.3998
759.26        66.74822
759.68        66.46843
760.10        66.60146
760.51        66.88244
760.93        66.67815
761.34        66.90674
761.76        67.26134
762.18        67.36832
762.59        67.18622
763.01        66.72301
763.42        66.17262
763.84        65.94968
764.26        66.15434
764.67        66.37908
765.09        66.50773
765.50        67.30025
765.92        67.37322
766.33        67.40705
766.75        67.03377
767.16        66.86295
767.58        66.91239
768.00        66.87286
768.41        66.78257
768.83        66.86114
769.24        67.03583
769.66        67.15238
770.07        67.16563
770.49        66.95636
770.90        66.66325
771.32         66.8791
771.73         67.5033
772.15        67.68307
772.56        67.36503
772.97        67.25074
773.39        66.97149
773.80        66.95407
774.22        67.06236
774.63        67.34159
775.05        67.63385
775.46        67.77972
775.88        67.70353
776.29        67.47671
776.70        67.19281
777.12        67.02924
777.53        67.04225
777.95           67.17
778.36        67.34711
778.77        67.45671
779.19        67.46683
779.60        67.44548
780.02        67.41952
780.43        67.50974
780.84        67.72235
781.26        67.90449
781.67        68.06216
782.09         68.4136
782.50        68.84189
782.91        68.86151
783.33        68.47948
783.74        68.16921
784.15         67.9733
784.57        67.64397
784.98        67.26972
785.39        67.11913
785.81        67.23223
786.22        67.53677
786.63        67.95778
787.04        68.36514
787.46        68.70737
787.87         68.9866
788.28        69.20847
788.70        69.38372
789.11        69.50421
789.52        69.56618
789.93        69.55597
790.35        69.45737
790.76         69.2933
791.17        69.08677
791.58        68.89529
792.00        68.77335
792.41        68.75574
792.82        68.84687
793.23        69.01039
793.65         69.1092
794.06        69.16193
794.47        69.34009
794.88        69.57876
795.29        69.64477
795.71        69.49824
796.12        69.28613
796.53        69.11018
796.94        69.12055
797.35        69.35882
797.76         69.7749
798.18        70.22224
798.59        70.50747
799.00         70.5523
799.41        70.42038
799.82        70.18683
800.23        69.98462
800.64        69.86716
801.06         69.7735
801.47        69.74465
801.88        69.77039
802.29        69.83848
802.70         69.9524
803.11        70.07613
803.52        70.13699
803.93        70.12593
804.34        70.06828
804.75        69.98398
805.17         69.9466
805.58        70.00714
805.99        70.00673
806.40        69.99423
806.81        70.32711
807.22        70.87181
807.63        70.97413
808.04        70.65285
808.45        70.51837
808.86        70.61416
809.27        70.57968
809.68        70.40701
810.09        70.28201
810.50        70.22517
810.91        70.18543
811.32         70.2019
811.73        70.33302
812.14         70.5731
812.55        70.90718
812.96        71.22526
813.37        71.32154
813.78        71.15307
814.19        70.79832
814.60        70.38865
815.01        70.11021
815.42           70.01
815.83        70.03224
816.24         70.1478
816.65        70.29406
817.05        70.42918
817.46         70.5343
817.87        70.59449
818.28        70.52998
818.69        70.33968
819.10        70.05016
819.51        69.73742
819.92        69.55388
820.33        69.55402
820.74        69.68925
821.14        69.93398
821.55        70.25327
821.96        70.60848
822.37        71.01179
822.78        71.36763
823.19        71.50385
823.60        71.37524
824.00        71.01524
824.41        70.56467
824.82        70.28734
825.23        70.24623
825.64        70.39056
826.04         70.6035
826.45        70.59473
826.86        70.32826
827.27        69.90955
827.68        69.49971
828.08        69.36719
828.49        69.53267
828.90         69.9344
829.31        70.47489
829.72        70.98814
830.12        71.42334
830.53         71.7398
830.94        71.96567
831.35        72.10995
831.75        72.19659
832.16        72.14235
832.57        71.97488
832.97        71.71896
833.38        71.41108
833.79        71.11676
834.20        70.85506
834.60        70.61723
835.01        70.44162
835.42        70.30882
835.82         70.3268
836.23        70.60002
836.64        71.14771
837.04        71.95162
837.45        72.70724
837.86         73.0672
838.26        72.93478
838.67        72.41048
839.08        71.74818
839.48        71.33073
839.89        71.30251
840.29         71.5507
840.70        71.92413
841.11        72.18997
841.51        72.29552
841.92        72.27672
842.33        72.23814
842.73        72.33218
843.14        72.54303
843.54        72.84238
843.95        73.11701
844.35        73.25793
844.76        73.20895
845.17        72.99127
845.57        72.71114
845.98         72.5058
846.38        72.43279
846.79        72.46046
847.19          72.453
847.60        72.13467
848.00         71.5007
848.41         70.6778
848.81        69.95696
849.22        69.75883
849.62        70.19859
850.03        71.10185
850.43        72.25268
850.84        73.06338
851.24          73.384
851.65        73.24786
852.05         72.8558
852.46        72.50433
852.86        72.28992
853.27        72.20231
853.67         72.0535
854.07        71.76558
854.48        71.27669
854.88        70.65051
855.29         70.0149
855.69        69.82458
856.10        70.10488
856.50        70.81541
856.90        71.55326
857.31        71.74953
857.71        71.33601
858.12        70.44699
858.52        69.45464
858.92        68.94119
859.33        69.06309
859.73        69.68597
860.13        70.54008
860.54        71.19603
860.94        71.54266
861.34        71.61057
861.75        71.45831
862.15        71.23927
862.55        70.98791
862.96        70.70268
863.36        70.27253
863.76        69.55885
864.17        68.61625
864.57        67.56227
864.97         66.7067
865.38        66.46035
865.78         66.9218
866.18        67.95039
866.58        69.25512
866.99        70.20131
867.39        70.56989
867.79        70.48276
868.19        70.07157
868.60        69.55531
869.00        69.05093
869.40        68.48936
869.80         68.0769
870.21        68.16576
870.61        68.84078
871.01         69.9691
871.41        71.15831
871.81        71.76427
872.22        71.62478
872.62        70.91019
873.02        69.93813
873.42        69.26651
873.82        69.08201
874.22        69.25183
874.63        69.57076
875.03        69.71708
875.43        69.61481
875.83        69.38289
876.23        69.22279
876.63        69.45066
877.03        70.09888
877.44        70.95957
877.84        71.81541
878.24        72.22918
878.64        72.09787
879.04        71.61604
879.44        70.91689
879.84        70.18545
880.24        69.52235
880.64        68.86996
881.04        68.43188
881.44        68.54027
881.84        69.22807
882.24        70.41705
882.65        71.65298
883.05        72.25104
883.45        71.97395
883.85        71.07219
884.25        69.99998
884.65        69.46152
885.05        69.62121
885.45        70.21262
885.85        71.04751
886.25        71.80454
886.65        72.31056
887.05        72.68713
887.45        72.74236
887.85        72.15885
888.25        71.00367
888.65        69.46147
889.04        67.99693
889.44        67.28976
889.84        67.39699
890.24        68.17146
890.64        69.30029
891.04        70.09529
891.44        70.28516
891.84        70.06896
892.24        69.71063
892.64         69.5929
893.04        69.79833
893.44        70.16478
893.83        70.61447
894.23        70.95399
894.63        71.14104
895.03        71.26933
895.43        71.31805
895.83        71.23913
896.23        71.04472
896.63        70.71297
897.02        70.39716
897.42        70.42087
897.82        70.81029
898.22        71.51176
898.62        72.19762
899.01        72.32446
899.41        71.78044
899.81        70.74879
900.21         69.6767
900.61        69.25945
901.00        69.63087
901.40        70.55997
901.80        71.60353
902.20        72.03292
902.59        71.65022
902.99        70.69939
903.39        69.53731
903.79         68.6834
904.18        68.30317
904.58        68.29242
904.98        68.47124
905.38        68.57779
905.77        68.52156
906.17        68.37993
906.57        68.34294
906.96        68.72826
907.36        69.53342
907.76        70.64598
908.15        71.67899
908.55        71.88574
908.95        71.18431
909.34        69.81172
909.74        68.38464
910.14          67.718
910.53        68.04654
910.93        69.08842
911.33        70.50091
911.72        71.73447
912.12        72.49264
912.52        72.92635
912.91        73.13917
913.31        73.29268
913.70        73.44839
914.10        73.49513
914.49        73.32272
914.89        72.77773
915.29        71.90372
915.68        70.83143
916.08        69.87197
916.47        69.35646
916.87        69.40482
917.26        69.85981
917.66        70.55836
918.05         71.2375
918.45        71.72912
918.84        72.15285
919.24        72.35062
919.64        72.22186
920.03        71.78595
920.42        71.03254
920.82        70.27743
921.21        69.92201
921.61        70.05671
922.00        70.60889
922.40        71.26634
922.79        71.55832
923.19        71.33696
923.58        70.78503
923.98        70.18005
924.37        69.96995
924.77        70.24627
925.16        70.84357
925.55        71.55004
925.95        72.03017
926.34        72.18996
926.74        72.12958
927.13        71.91267
927.52        71.60201
927.92        71.26237
928.31        70.85401
928.70        70.48534
929.10        70.32619
929.49        70.40489
929.89        70.66354
930.28        70.98476
930.67        71.07053
931.07        70.84955
931.46        70.44031
931.85        69.96384
932.24        69.60842
932.64        69.45103
933.03        69.45318
933.42        69.61884
933.82        69.93564
934.21        70.38055
934.60        70.87915
934.99        71.40691
935.39        71.90457
935.78        72.37284
936.17        72.77991
936.56        72.86379
936.96        72.26275
937.35        71.00975
937.74        69.32691
938.13         67.7648
938.53        66.99614
938.92        67.10424
939.31        67.97552
939.70        69.20643
940.09        69.99279
940.49        70.04215
940.88        69.55427
941.27        68.96387
941.66        68.95721
942.05        69.67739
942.44        70.94006
942.84         72.2003
943.23        72.56841
943.62        71.77072
944.01        70.12077
944.40        68.40274
944.79        67.74833
945.18        68.38073
945.57        69.98592
945.97        71.75356
946.36         72.4978
946.75        71.78361
947.14        70.03733
947.53        68.07278
947.92        67.10613
948.31        67.44363
948.70        68.73265
949.09        70.35629
949.48        71.20872
949.87        70.93524
950.26        69.90137
950.65        68.69286
951.04        68.10474
951.43         68.3271
951.82        69.13457
952.21        70.08183
952.60        70.39697
952.99         69.8587
953.38        68.72046
953.77        67.57835
954.16        67.20497
954.55        67.74626
954.94        69.07501
955.33        70.54198
955.72         70.7893
956.11        69.44799
956.50        67.02992
956.89        64.70528
957.28        63.98895
957.66        65.17623
958.05        67.78011
958.44         70.8717
958.83        72.51934
959.22        72.06277
959.61        70.18246
960.00        67.88982
960.39        66.47411
960.78        66.19673
961.16        66.66734
961.55        67.47385
961.94        67.89484
962.33        67.66753
962.72        67.18263
963.11        66.63141
963.49        66.21392
963.88        66.00514
964.27        65.84309
964.66        65.92173
965.04        66.66586
965.43        68.01427
965.82         69.8865
966.21        71.66367
966.60        72.22181
966.98        71.36877
967.37         69.5709
967.76        67.59732
968.15        66.48257
968.53        66.42986
968.92        67.07273
969.31        68.23408
969.69        69.56728
970.08        70.76365
970.47        72.03051
970.86        72.89407
971.24        72.56776
971.63        70.98901
972.02         68.4642
972.40        66.01912
972.79        65.28962
973.17        66.54061
973.56        69.18147
973.95         72.3243
974.33        74.22813
974.72        74.22505
975.11        72.88674
975.49        70.91827
975.88        69.71029
976.26        69.62535
976.65        70.17765
977.04        71.06374
977.42        71.75406
977.81        71.89417
978.19        71.81852
978.58        71.60255
978.96        71.20842
979.35        70.75112
979.74        70.21514
980.12         69.8674
980.51        70.15392
980.89        71.19463
981.28        72.66467
981.66         74.3955
982.05        75.80597
982.43        76.77583
982.82        77.39214
983.20        77.39371
983.59        76.28003
983.97        74.18071
984.35        71.36025
984.74        68.90765
985.12        68.30686
985.51         69.7003
985.89        72.73495
986.28        76.15903
986.66        78.20771
987.04        78.14831
987.43        76.48169
987.81        73.96758
988.20        72.27708
988.58        71.88498
988.96         72.4015
989.35         72.9683
989.73        72.43081
990.12         70.5062
990.50        67.79706
990.88        65.16835
991.27        63.94017
991.65        64.38248
992.03        66.05798
992.42        68.36982
992.80        70.74138
993.18        72.79783
993.56        74.69427
993.95        76.18042
994.33        76.96586
994.71        76.89633
995.10         76.0877
995.48        74.92011
995.86        74.08081
996.24         73.7646
996.63        73.73368
997.01        74.06899
997.39        74.63334
997.77        75.28487
998.15        76.10179
998.54        76.66674
998.92        76.32015
999.30        74.97686
999.68        72.82211
1000.06        70.59234
1000.45         69.6796
1000.83        70.56868
1001.21        72.82148
1001.59        75.75097
1001.97        78.19424
1002.35        79.67542
1002.73         80.4465
1003.12        80.51745
1003.50        79.84697
1003.88        78.64107
1004.26        77.00736
1004.64        75.32845
1005.02        74.33404
1005.40        74.22657
1005.78        74.72741
1006.16        75.77853
1006.54        77.29803
1006.92        79.16595
1007.30        81.47506
1007.69         83.4488
1008.07        83.62177
1008.45        81.48441
1008.83        77.42518
1009.21        72.89215
1009.59        70.37767
1009.97        70.58266
1010.35        72.81628
1010.73        76.07286
1011.11        78.58311
1011.49        79.68998
1011.86        79.98018
1012.24        79.40065
1012.62        78.07485
1013.00        76.11604
1013.38        73.25892
1013.76        70.07497
1014.14        67.98431
1014.52        67.53008
1014.90        68.60401
1015.28        70.16521
1015.66        70.33205
1016.04        68.70921
1016.41        65.93224
1016.79        63.10188
1017.17        62.39742
1017.55        64.16177
1017.93        67.09019
1018.31         70.2711
1018.69        73.29366
1019.06        76.45035
1019.44        80.21306
1019.82        84.53419
1020.20        87.57765
1020.58        87.72719
1020.95        85.15315
1021.33        81.58106
1021.71        78.68386
1022.09         76.4973
1022.46        74.40466
1022.84        72.35697
1023.22        69.97206
1023.60        67.86063
1023.97        66.84245
1024.35        66.80109
1024.73        67.34865
