SpectraSmart Spectrum 2.9.0.0
--------- Device Information -----------
Spectrum Name :  反射率_0
Saving Time :  2024/04/30 00:06:44
Spectro-Module Model Name : SE2030-DUVN
Spectro-Module Serial Number : OS361AC55029948
Wavelength Start : 200
Wavelength End : 1025
Wavelength Unit : Wavelength(nm)
Spectrum Unit : Reflectance(%)
-----------Spectrum Setting ------------
Integration Time : 20ms
Average : 10
Boxcar : 0
Background removal :  enabled
linearity correction :  enabled
SC :  disabled
Intensity correction :  disabled
DWT denoise :  enabled
savitzky-golay :  disabled
FFT :  disabled
Running average :  disabled
Kalman :  disabled
High pass :  disabled
---------------BEGIN--------------------
Wavelength(nm)             Reflectance(%)
200.29               0
200.75        92.09095
201.21        84.72901
201.67        76.96086
202.13        72.06796
202.58        71.54896
203.04        74.29639
203.50        80.50506
203.96        90.38277
204.42        102.2973
204.88        114.9661
205.34        121.7554
205.80        115.1447
206.26        99.20872
206.72        81.03013
207.18          66.204
207.64        57.39694
208.10        53.15076
208.55        51.57433
209.01        51.27502
209.47        50.68618
209.93        49.48004
210.39         48.6082
210.85         47.9664
211.31        47.22377
211.77        46.22804
212.23        44.52339
212.69        42.81021
213.14        44.18922
213.60        48.43559
214.06        53.67015
214.52        57.51975
214.98        58.70237
215.44        57.81165
215.90        55.48776
216.36        52.99302
216.81        52.80722
217.27        56.34981
217.73        63.78508
218.19        74.58828
218.65        83.21061
219.11        84.93394
219.57        81.10696
220.02        75.65589
220.48        71.85979
220.94        69.15714
221.40        66.40289
221.86        62.21785
222.32        55.78181
222.77        49.25576
223.23        44.95523
223.69         42.6675
224.15        41.54221
224.61        41.03844
225.06        41.00587
225.52        41.60565
225.98        42.62439
226.44        43.74522
226.90         44.7619
227.36        45.57201
227.81        46.28049
228.27        47.00029
228.73        47.63686
229.19        48.28276
229.65         48.9623
230.10        49.50729
230.56        50.00889
231.02        50.14846
231.48        49.62893
231.93        48.46732
232.39        46.86986
232.85        45.36178
233.31        45.01319
233.77         46.1644
234.22         48.7044
234.68        51.80401
235.14        53.86388
235.60        54.42377
236.05        53.87143
236.51         53.4071
236.97        54.77848
237.43        58.60168
237.88        65.15609
238.34        73.64257
238.80        80.85747
239.26        83.99168
239.71         83.2907
240.17        80.65879
240.63        79.62123
241.08        81.64665
241.54        86.82481
242.00        96.09937
242.46        106.3776
242.91        112.0957
243.37        111.5209
243.83        108.4606
244.28        108.9142
244.74        114.0126
245.20        121.8001
245.66        131.1172
246.11        138.7144
246.57        141.9953
247.03        143.8026
247.48        140.4277
247.94        126.3175
248.40        107.9148
248.85        90.94656
249.31        81.69479
249.77        82.45817
250.22        92.99134
250.68          115.92
251.14        151.5862
251.59        173.3697
252.05        160.9996
252.51        134.7517
252.96        113.7763
253.42        104.9629
253.88        104.3257
254.33        108.1012
254.79        113.5797
255.25         115.066
255.70        111.7413
256.16        107.7251
256.62        104.9315
257.07        104.3589
257.53        106.1355
257.99        109.0266
258.44        111.3845
258.90        111.9758
259.35        110.2807
259.81        107.9473
260.27        105.8236
260.72        104.6538
261.18        104.6198
261.63        104.7251
262.09        104.5186
262.55        102.8563
263.00        99.78819
263.46        96.36382
263.91         92.9585
264.37        90.53278
264.83        88.93773
265.28        87.74669
265.74        86.89987
266.19        85.97353
266.65        84.99581
267.11        84.04726
267.56        83.02913
268.02        81.84106
268.47        80.40608
268.93        78.72026
269.38        76.98014
269.84        75.68475
270.30        74.92144
270.75        74.52837
271.21        74.14674
271.66        73.13752
272.12        71.42124
272.57          69.158
273.03        66.75883
273.48        64.76718
273.94        63.43458
274.39        62.51023
274.85        61.83379
275.31        61.01528
275.76        59.93365
276.22         58.7907
276.67         57.6328
277.13        56.69752
277.58         55.9301
278.04        55.29721
278.49        54.63784
278.95        53.91104
279.40        53.02471
279.86        52.12297
280.31        51.16592
280.77        50.27043
281.22        49.41306
281.68        48.63963
282.13        47.96643
282.59        47.52528
283.04         47.2631
283.50        47.16256
283.95        47.06712
284.41        46.79227
284.86        46.28906
285.32        45.69638
285.77        45.09585
286.22        44.71662
286.68        44.61884
287.13        44.67751
287.59        44.87353
288.04        45.09071
288.50        45.30555
288.95        45.48159
289.41        45.61914
289.86        45.64049
290.32        45.58356
290.77        45.47094
291.22        45.33524
291.68        45.22162
292.13         45.1606
292.59        45.21168
293.04        45.48087
293.50        46.17812
293.95        47.30548
294.40        48.80582
294.86        50.48898
295.31        52.06047
295.77        53.42206
296.22        54.61621
296.68        55.75971
297.13        57.01573
297.58        58.43692
298.04        59.93982
298.49         61.4257
298.95        62.77509
299.40        63.95096
299.85        65.02053
300.31        66.09776
300.76        67.25271
301.21        68.54549
301.67        69.97066
302.12        71.42887
302.58        72.92513
303.03        74.40091
303.48        75.84473
303.94        77.30412
304.39        79.01215
304.84        80.60258
305.30        82.35246
305.75        84.04681
306.20        85.62049
306.66        87.06702
307.11        88.34635
307.57        89.54346
308.02        90.63983
308.47        91.70199
308.93         92.7415
309.38        93.74362
309.83        94.77644
310.29        95.84828
310.74         96.9193
311.19        97.93084
311.65        98.77496
312.10        99.41215
312.55        99.89767
313.00        100.3439
313.46        100.9295
313.91        101.6745
314.36        102.5288
314.82        103.3829
315.27        104.0896
315.72        104.5839
316.18        104.9206
316.63         105.138
317.08        105.3095
317.53        105.4831
317.99        105.6688
318.44        105.8668
318.89        106.0973
319.35        106.3616
319.80        106.6494
320.25        107.0145
320.70        107.5367
321.16        108.1798
321.61        108.9607
322.06        109.6676
322.51        109.9784
322.97        109.8269
323.42        109.3193
323.87        108.7257
324.32        108.5025
324.78        108.7401
325.23        109.3813
325.68        110.1561
326.13        110.6014
326.59        110.5683
327.04        110.2333
327.49        109.8452
327.94        109.8596
328.39        110.3826
328.85        111.2161
329.30        112.1648
329.75        112.6809
330.20        112.6179
330.66        112.1461
331.11        111.5624
331.56        111.2595
332.01        111.3877
332.46        111.8336
332.92        112.4621
333.37        113.2051
333.82        113.9234
334.27        114.6377
334.72         115.315
335.17        115.8979
335.63        116.3338
336.08        116.6804
336.53        116.8605
336.98        116.8385
337.43        116.6464
337.88         116.326
338.34        116.0512
338.79        116.1076
339.24         116.544
339.69        117.2961
340.14        118.1546
340.59        118.7506
341.05        118.9881
341.50        118.9752
341.95        118.8695
342.40          118.95
342.85        119.2849
343.30        119.7509
343.75         120.264
344.20        120.6977
344.66        121.0159
345.11        121.2853
345.56        121.4536
346.01        121.4196
346.46        121.2067
346.91        120.8478
347.36        120.5684
347.81        120.7169
348.26        121.3259
348.72        122.2495
349.17         123.223
349.62        123.7257
350.07        123.6196
350.52        123.0898
350.97        122.3534
351.42        121.7429
351.87        121.3745
352.32        121.1405
352.77        121.0581
353.22         121.162
353.67        121.4016
354.13        121.7406
354.58        121.9966
355.03        121.8611
355.48        121.2628
355.93         120.289
356.38        119.0876
356.83        117.8961
357.28        116.8054
357.73        115.7769
358.18        114.8066
358.63        113.8795
359.08        112.9863
359.53        112.1457
359.98        111.3537
360.43        110.5872
360.88        109.8359
361.33        109.1015
361.78        108.3496
362.23        107.5343
362.68        106.6533
363.13        105.7181
363.58         104.802
364.03        104.0201
364.48         103.391
364.93        102.8781
365.38        102.3885
365.83         101.777
366.28         101.009
366.73        100.1234
367.18        99.20398
367.63        98.38112
368.08        97.67954
368.53        97.05717
368.98        96.43674
369.43        95.69031
369.88        94.80705
370.33        93.86263
370.78        92.93816
371.23        92.16339
371.68        91.57371
372.13        91.09746
372.58        90.73598
373.03        90.49275
373.48        90.31668
373.93        90.18558
374.38         89.9222
374.83        89.24954
375.28        88.15894
375.72        86.75942
376.17        85.37486
376.62        84.32605
377.07        83.68518
377.52        83.33804
377.97        83.18987
378.42         83.0831
378.87        82.93754
379.32        82.78683
379.77        82.57027
380.22        82.19235
380.67        81.63707
381.11        80.91353
381.56        80.10503
382.01         79.3875
382.46        78.82922
382.91        78.41127
383.36        78.06895
383.81        77.68578
384.26        77.23072
384.71        76.73578
385.15        76.25781
385.60        75.93709
386.05        75.76594
386.50        75.69097
386.95         75.6012
387.40        75.33496
387.85        74.87941
388.29        74.26713
388.74        73.70045
389.19        73.25907
389.64        72.95812
390.09        72.72819
390.54        72.55289
390.98        72.39828
391.43         72.2737
391.88        72.17837
392.33        72.00809
392.78        71.67636
393.23        71.19704
393.67        70.47758
394.12        69.72417
394.57        69.65446
395.02        69.28153
395.47        69.51614
395.91        69.65386
396.36        69.75196
396.81        69.66416
397.26        69.46455
397.71        69.19475
398.15        68.87241
398.60        68.60389
399.05        68.30933
399.50        68.00219
399.95        67.82918
400.39        67.52553
400.84         67.4632
401.29        67.48358
401.74        67.33949
402.18        67.00853
402.63        66.58919
403.08        66.23444
403.53        66.11146
403.97        66.23532
404.42        66.53896
404.87        66.83942
405.32         66.8203
405.76        66.41437
406.21         65.8352
406.66        65.23263
407.11        64.68098
407.55        64.39966
408.00        64.53987
408.45        65.01434
408.90        65.45111
409.34        65.66965
409.79        65.55009
410.24        65.22379
410.68        65.12041
411.13         65.2838
411.58         65.4483
412.03        65.53407
412.47        65.53895
412.92        65.41501
413.37        65.20696
413.81        64.92964
414.26         64.6748
414.71        64.43628
415.15         64.2048
415.60        64.00285
416.05        63.91333
416.49        63.95518
416.94        64.11858
417.39        64.29885
417.83        64.30553
418.28        64.11663
418.73        63.79039
419.17        63.49498
419.62        63.51167
420.07        63.86366
420.51        64.41924
420.96        65.01318
421.41        65.28825
421.85        65.14394
422.30        64.94711
422.74        64.70779
423.19        64.12814
423.64        63.42754
424.08        63.50929
424.53        64.26064
424.98        64.65977
425.42        64.63297
425.87        64.79871
426.31        65.11137
426.76        65.01289
427.21        64.45513
427.65        64.29645
428.10        64.46017
428.54        64.36343
428.99        64.03027
429.44         63.7662
429.88        63.67443
430.33        63.70658
430.77        63.84759
431.22        64.56949
431.66        65.55792
432.11        65.47044
432.56        64.43254
433.00        63.87253
433.45         64.1234
433.89        64.75856
434.34        65.19289
434.78        66.52806
435.23        64.96642
435.67        64.30239
436.12        63.82737
436.57         63.8848
437.01        64.32179
437.46        64.87731
437.90        65.06596
438.35        64.74856
438.79        65.78307
439.24        65.91541
439.68        65.77235
440.13        65.72514
440.57        65.84357
441.02        65.87586
441.46        65.77539
441.91        65.85563
442.35        66.05812
442.80         65.7599
443.24        66.22209
443.69        66.02076
444.13        65.62617
444.58         65.4446
445.02        65.45847
445.47        65.49576
445.91        65.52113
446.36        65.51898
446.80        65.43729
447.24        65.73773
447.69        65.61064
448.13        65.63953
448.58        65.60185
449.02        65.51083
449.47        65.42842
449.91        65.43204
450.36        65.55283
450.80        65.74172
451.25        65.93875
451.69        66.01656
452.13        65.95174
452.58         65.8063
453.02        65.63905
453.47        65.52534
453.91        65.47154
454.36        65.63966
454.80        65.69656
455.24        65.76923
455.69        65.73675
456.13        65.80663
456.58        66.04011
457.02        65.48746
457.46        65.73974
457.91        65.55299
458.35        65.39525
458.79        65.28909
459.24        65.27818
459.68        65.36324
460.13        65.50363
460.57        65.38112
461.01        65.45892
461.46        65.18828
461.90        64.83061
462.34         65.0345
462.79        65.59908
463.23         65.4753
463.68        64.73116
464.12        64.35764
464.56        64.40789
465.01        64.34282
465.45        64.11943
465.89        64.05882
466.34         64.1702
466.78        64.25641
467.22        64.47174
467.67         64.4547
468.11        64.26743
468.55        63.94674
468.99        63.59785
469.44        63.35207
469.88        63.24735
470.32        63.26278
470.77        63.33277
471.21        63.37187
471.65        63.33433
472.10        63.25845
472.54        63.17459
472.98        63.13836
473.42        63.15074
473.87        63.27432
474.31        63.41285
474.75        63.24777
475.20        62.88935
475.64        62.83418
476.08        63.04313
476.52        63.05284
476.97        62.83653
477.41        62.60746
477.85        62.48632
478.29        62.50097
478.74        62.72408
479.18        63.05131
479.62        62.08772
480.06        61.98756
480.50        62.35571
480.95        62.22934
481.39         62.5281
481.83        62.48364
482.27        62.95045
482.72        62.74475
483.16        62.64463
483.60        62.52979
484.04        62.61558
484.48        62.65522
484.93        62.48315
485.37        62.42207
485.81        62.40935
486.25        61.28609
486.69        62.36758
487.14        62.51271
487.58        61.69013
488.02        61.29544
488.46         62.1934
488.90        62.63948
489.34        61.60706
489.79        62.30404
490.23        61.71415
490.67        61.80268
491.11        61.72025
491.55         61.4157
491.99        60.99286
492.43        60.83344
492.88        60.99602
493.32         61.2895
493.76        61.60022
494.20        61.83483
494.64        61.93594
495.08        61.93728
495.52        61.87868
495.96        61.78658
496.41        61.67662
496.85        61.82311
497.29         61.5238
497.73        61.65715
498.17        61.32632
498.61        61.17564
499.05        61.03465
499.49        60.97515
499.93        60.94195
500.37        60.81527
500.82        60.67122
501.26        60.36185
501.70        60.62277
502.14        60.71371
502.58        60.81505
503.02        60.92364
503.46         61.0266
503.90        61.10859
504.34        61.15361
504.78        61.16193
505.22        61.12997
505.66        61.05433
506.10        60.95429
506.54        60.89972
506.98        60.90686
507.42        60.96406
507.86        60.76452
508.30        61.03656
508.74         60.5889
509.18        60.35698
509.62        60.10432
510.06        60.00949
510.50        60.09816
510.94        60.33696
511.38        60.62346
511.82        60.75817
512.26        60.69567
512.70        60.48262
513.14        60.22142
513.58        60.14234
514.02        60.29823
514.46        60.49291
514.90        60.57348
515.34        61.00533
515.78         60.6188
516.22        60.38196
516.66        60.08329
517.10        59.93889
517.54        59.98637
517.98        60.17707
518.42        60.41439
518.86        60.51311
519.30        60.43203
519.74        60.23192
520.18        60.00721
520.62        59.89885
521.06        59.94609
521.50        60.10857
521.93        60.31773
522.37        60.44432
522.81        60.45992
523.25        60.39417
523.69        60.32043
524.13        60.35187
524.57        60.50354
525.01        60.72899
525.45        60.92953
525.89        60.94881
526.32        60.75205
526.76        60.42483
527.20        60.06697
527.64        59.83684
528.08         59.7772
528.52        59.82433
528.96        59.93947
529.40        60.08762
529.83        60.21847
530.27        60.29454
530.71        60.30046
531.15        60.27053
531.59        60.20853
532.03        60.08362
532.46        59.92378
532.90        59.82083
533.34        59.78735
533.78          59.805
534.22        59.85096
534.66        59.88569
535.09        59.89044
535.53        59.88919
535.97        59.87889
536.41        59.86781
536.85         59.8569
537.28        59.83582
537.72        59.80283
538.16        59.75407
538.60        59.68898
539.04        59.61424
539.47        59.52081
539.91        59.44184
540.35         59.3696
540.79         59.3147
541.22        59.27417
541.66         59.2539
542.10        59.24982
542.54        59.25908
542.97        59.28857
543.41        59.36564
543.85         59.4793
544.29        59.63094
544.72        59.74493
545.16        59.73783
545.60         59.5962
546.04        59.32457
546.47         59.0381
546.91        59.01429
547.35        59.24932
547.79        59.48848
548.22        59.61937
548.66        59.78758
549.10        59.97182
549.53        59.88907
549.97        59.49416
550.41        59.94889
550.84        59.47929
551.28        59.41504
551.72        59.22899
552.15        59.44978
552.59        59.31317
553.03        59.45966
553.46        59.44976
553.90        59.48097
554.34        59.46976
554.77        59.45333
555.21        59.44844
555.65        59.34841
556.08        59.21389
556.52        59.33119
556.96        59.64128
557.39        59.77392
557.83        59.86777
558.27        59.82942
558.70        59.69778
559.14        59.69513
559.57        59.77942
560.01        59.92839
560.45        60.06413
560.88        59.82459
561.32        59.57826
561.75        59.45911
562.19        59.54987
562.63        59.44082
563.06        59.17658
563.50        59.18064
563.93         59.3912
564.37        59.49044
564.80          59.438
565.24        59.40351
565.68        59.38996
566.11        59.38418
566.55        59.39061
566.98         59.3213
567.42        59.26001
567.85        59.21941
568.29        59.20134
568.72        59.40011
569.16        59.89301
569.60        59.37445
570.03        59.63059
570.47        59.91123
570.90        59.83957
571.34        59.48048
571.77        59.81974
572.21        59.88482
572.64        59.99117
573.08          59.916
573.51        59.67134
573.95        59.86187
574.38        59.95595
574.82        59.66545
575.25        59.77149
575.69        59.66428
576.12        59.30987
576.56        59.21657
576.99        59.43232
577.42        59.52205
577.86        59.26441
578.29        59.18642
578.73        59.83303
579.16        59.70971
579.60        59.39537
580.03        59.31462
580.47        59.90446
580.90        60.02491
581.33        59.59296
581.77        59.03185
582.20        59.49002
582.64        59.92778
583.07        59.39626
583.51        59.13136
583.94        59.00977
584.37        58.76785
584.81        58.59502
585.24        59.04975
585.68        59.54338
586.11        60.00538
586.54        59.18237
586.98        59.15592
587.41        59.95439
587.85         59.8614
588.28        59.64079
588.71        59.79457
589.15        59.29476
589.58        59.36138
590.01        59.11681
590.45        59.13204
590.88        59.32366
591.31        59.51033
591.75        59.62312
592.18        59.72186
592.61        60.14486
593.05        58.41302
593.48        59.28534
593.91        60.08804
594.35        59.06095
594.78        58.82246
595.21        58.54238
595.65        59.00575
596.08        58.53413
596.51        59.23523
596.94        59.25954
597.38        59.47759
597.81        59.44224
598.24        59.11531
598.68        58.90283
599.11          58.845
599.54        59.29539
599.97        59.88263
600.41        58.56672
600.84        58.69714
601.27        58.94133
601.70        59.05649
602.14        59.31244
602.57        59.12087
603.00        58.74107
603.43        58.69889
603.87        58.87131
604.30        58.97438
604.73         58.9534
605.16        58.96735
605.60        58.97674
606.03        59.03759
606.46        59.07553
606.89        59.03012
607.32        58.90491
607.76         58.8526
608.19        58.92476
608.62         58.9319
609.05        58.87378
609.48        59.16922
609.92        59.03143
610.35        59.09082
610.78        59.22033
611.21         58.6921
611.64        58.84077
612.07        58.98455
612.50        58.83263
612.94        58.95914
613.37        59.22803
613.80        59.00473
614.23        59.36217
614.66        59.32528
615.09        59.22458
615.52        59.05558
615.96        58.85071
616.39        58.80555
616.82        58.48472
617.25        58.70329
617.68        58.46791
618.11        58.73286
618.54         59.1011
618.97        59.05021
619.40        58.65698
619.84         58.5079
620.27        58.68953
620.70        58.89352
621.13        59.03392
621.56        58.79312
621.99        58.93351
622.42        58.32501
622.85        58.77254
623.28        58.49423
623.71        59.00563
624.14        58.14078
624.57        58.71016
625.00        58.67464
625.43        58.80119
625.86        58.38105
626.29        58.60969
626.72        58.51875
627.15        58.43573
627.58        58.42613
628.01        58.47457
628.44         58.3707
628.87        58.17336
629.30        58.28539
629.73        58.65177
630.16        58.81303
630.59        58.72639
631.02        58.77102
631.45        58.70695
631.88        58.68413
632.31         58.6344
632.74        58.58152
633.17        58.52423
633.60        58.47011
634.03        58.42422
634.46        58.37803
634.89         58.3414
635.32        58.33687
635.75        58.36322
636.18        58.40343
636.61        58.44192
637.04        58.46619
637.47        58.48346
637.89        58.46233
638.32        58.37233
638.75         58.3427
639.18        58.40754
639.61        57.96475
640.04        58.09578
640.47         58.0127
640.90        58.03862
641.33        58.14431
641.76        58.28032
642.18        58.34452
642.61        58.28331
643.04        58.13683
643.47        57.98948
643.90        57.95908
644.33        58.06339
644.76        58.33654
645.18        58.65083
645.61        58.63715
646.04        58.20976
646.47        58.10253
646.90        58.26974
647.33        58.24936
647.75        58.03124
648.18        57.91364
648.61        57.92295
649.04        57.94429
649.47        57.98163
649.89        58.13012
650.32        58.30893
650.75        58.36259
651.18        58.33104
651.61        58.31295
652.03        58.37142
652.46        58.69092
652.89          59.037
653.32        58.86432
653.74        58.36678
654.17        57.75738
654.60        57.49042
655.03        58.85332
655.46        57.59568
655.88        58.34105
656.31        58.68645
656.74        60.02506
657.16        60.67336
657.59        59.01619
658.02         58.0056
658.45         58.4338
658.87        58.56351
659.30        58.36031
659.73        58.67604
660.15        59.07037
660.58        58.81292
661.01        58.60488
661.44        58.25197
661.86        57.93419
662.29        57.72901
662.72        57.95125
663.14        58.43946
663.57         58.2637
664.00        57.57463
664.42        57.37772
664.85        57.72653
665.27        58.01102
665.70         58.1277
666.13         58.2327
666.55         58.3037
666.98        58.28335
667.41        58.20429
667.83        58.12505
668.26        58.06002
668.69        58.00495
669.11        57.97126
669.54        57.97344
669.96        58.00945
670.39        58.09111
670.82        58.18504
671.24        58.20106
671.67         58.1363
672.09        58.09597
672.52        58.10284
672.94        58.16351
673.37        57.83493
673.80         58.1879
674.22        57.93652
674.65        58.04493
675.07        58.17427
675.50        58.33732
675.92        58.48957
676.35        58.54795
676.77        58.50819
677.20        58.38865
677.62         58.2543
678.05        58.16843
678.47         58.1428
678.90        58.32233
679.32        58.36017
679.75         58.4098
680.17        58.35907
680.60        58.25272
681.02        58.13057
681.45        58.05305
681.87        58.04203
682.30        58.09145
682.72        58.19127
683.15        58.20083
683.57        58.16783
684.00        58.31208
684.42        58.57096
684.85        58.69541
685.27        58.66808
685.70        58.51586
686.12        58.34972
686.54        58.58026
686.97        59.09554
687.39        59.31886
687.82        59.17192
688.24        59.08596
688.66        59.05769
689.09        58.80961
689.51        58.42715
689.94        58.19806
690.36        58.16062
690.78        58.23614
691.21        58.37111
691.63        58.48058
692.06        58.53169
692.48        58.56528
692.90        58.57986
693.33        58.56219
693.75        58.51942
694.17        58.44089
694.60        58.36794
695.02        58.36324
695.44        58.42936
695.87        58.62159
696.29        58.86652
696.71        58.83119
697.14        58.58229
697.56        58.56307
697.98         58.7654
698.41        58.82547
698.83        58.72885
699.25        58.69909
699.68        58.72562
700.10        58.72749
700.52        58.69032
700.94        58.65326
701.37        58.60448
701.79        58.53901
702.21        58.45461
702.64        58.36252
703.06        58.29772
703.48        58.32688
703.90        58.45725
704.33        58.67036
704.75        58.88625
705.17         59.0335
705.59         59.0682
706.01        59.02175
706.44        58.92283
706.86        58.83676
707.28        58.78828
707.70        58.72939
708.12        58.69336
708.55        58.80057
708.97        59.01269
709.39        59.12676
709.81        59.13989
710.23        59.23534
710.66        59.40491
711.08        59.53845
711.50        59.60681
711.92        59.65518
712.34        59.68404
712.76        59.68136
713.19        59.64181
713.61        59.59752
714.03         59.5443
714.45        59.49122
714.87        59.45558
715.29        59.45675
715.71        59.49562
716.13        59.56367
716.56        59.62981
716.98        59.71387
717.40        59.78223
717.82        59.83575
718.24        59.86252
718.66         59.8479
719.08        59.79202
719.50        59.69687
719.92         59.5918
720.34        59.52443
720.76        59.50609
721.19         59.5229
721.61        59.55216
722.03        59.52887
722.45        59.44286
722.87        59.31852
723.29        59.20151
723.71        59.15533
724.13        59.17709
724.55        59.28622
724.97        59.46512
725.39        59.50473
725.81        59.35013
726.23        59.73206
726.65        59.51081
727.07        59.45917
727.49        59.29993
727.91        59.31535
728.33        59.49801
728.75        59.61573
729.17        59.66296
729.59        59.79086
730.01         59.9327
730.43        59.89936
730.85         59.6821
731.27        59.34389
731.69        59.03494
732.10         58.9905
732.52        59.25685
732.94        59.76522
733.36        60.34927
733.78        60.72548
734.20        60.79802
734.62          60.599
735.04        60.29202
735.46        60.21162
735.88        60.38177
736.30        60.55753
736.72        60.62312
737.13        60.56686
737.55         60.3358
737.97        59.92096
738.39        59.48352
738.81        59.29345
739.23        59.40588
739.65        59.76462
740.06        60.17973
740.48         60.3929
740.90        60.33358
741.32        60.09584
741.74        59.78706
742.16        59.60729
742.57        59.63075
742.99        59.71097
743.41        59.82397
743.83        60.07952
744.25         60.3765
744.67        60.37675
745.08        60.13132
745.50        60.03101
745.92        60.11553
746.34        60.15357
746.75         60.1268
747.17        60.11096
747.59        60.10383
748.01         60.0928
748.42         60.0895
748.84        60.08655
749.26        60.09388
749.68        60.11196
750.09         60.1281
750.51        60.15268
750.93        60.17252
751.35        60.18577
751.76        60.19897
752.18        60.21561
752.60         60.2368
753.01        60.27116
753.43        60.28882
753.85        60.27023
754.27        60.22212
754.68        60.17036
755.10        60.14025
755.52        60.16936
755.93        60.25148
756.35        60.35894
756.77        60.50496
757.18        60.66436
757.60        60.82057
758.02        61.11877
758.43        61.42594
758.85        61.21209
759.26        60.62433
759.68        60.45779
760.10        60.72747
760.51        60.86813
760.93        60.82804
761.34        60.81627
761.76        60.80596
762.18        60.80913
762.59        60.78081
763.01        60.37482
763.42        59.77729
763.84         59.5619
764.26        59.80161
764.67        60.17544
765.09        60.56627
765.50        60.91132
765.92        61.12553
766.33        61.09365
766.75        60.83821
767.16        60.70301
767.58        60.71288
768.00         60.7591
768.41         60.7807
768.83         60.7502
769.24        60.66037
769.66        60.46416
770.07        60.25424
770.49        60.38927
770.90        60.79612
771.32        60.98562
771.73        60.94498
772.15        60.96245
772.56        61.04132
772.97        61.17918
773.39        60.96121
773.80        60.96976
774.22        61.06496
774.63        61.22838
775.05        61.36245
775.46        61.40414
775.88         61.3093
776.29        61.14172
776.70        60.94429
777.12        60.79974
777.53        60.74284
777.95        60.73856
778.36        60.79336
778.77         60.9052
779.19        61.06239
779.60        61.28898
780.02        61.50397
780.43        61.66515
780.84        61.74669
781.26        61.60733
781.67        61.37385
782.09        61.57374
782.50        62.08732
782.91        62.10899
783.33        61.64025
783.74        61.38039
784.15        61.36015
784.57        61.18354
784.98         60.9059
785.39        60.81463
785.81        60.93885
786.22        61.19494
786.63        61.52612
787.04         61.8396
787.46         62.0992
787.87        62.30638
788.28        62.47217
788.70        62.61158
789.11        62.71599
789.52        62.78141
789.93        62.78727
790.35        62.70062
790.76        62.54066
791.17        62.34203
791.58        62.15624
792.00        62.02695
792.41         61.9888
792.82        62.05652
793.23        62.23172
793.65         62.4084
794.06        62.61678
794.47        63.06402
794.88        63.58781
795.29        63.76194
795.71        63.52394
796.12        63.08972
796.53        62.62851
796.94        62.40537
797.35        62.51919
797.76         62.8995
798.18        63.36524
798.59         63.6543
799.00        63.66839
799.41        63.49732
799.82        63.23719
800.23        63.04907
800.64        62.99135
801.06        62.98579
801.47         63.0464
801.88        63.13146
802.29        63.21858
802.70        63.32085
803.11        63.41497
803.52        63.45148
803.93        63.42149
804.34        63.33496
804.75        63.21365
805.17        63.10633
805.58        63.05893
805.99        63.02029
806.40        63.00277
806.81        63.10418
807.22        63.28312
807.63        63.34557
808.04        63.31263
808.45        63.38541
808.86        63.57432
809.27        63.76573
809.68        63.89815
810.09        63.92851
810.50        63.84277
810.91        63.65084
811.32        63.45516
811.73        63.42219
812.14        63.58502
812.55        63.89925
812.96         64.2444
813.37        64.39323
813.78        64.28713
814.19        64.01479
814.60        63.68877
815.01        63.46595
815.42        63.38931
815.83        63.40262
816.24        63.49699
816.65        63.65432
817.05        63.84334
817.46         64.0316
817.87        64.17251
818.28        64.14547
818.69        63.93823
819.10        63.58606
819.51        63.18369
819.92        62.91892
820.33        62.86123
820.74         62.9587
821.14        63.16523
821.55        63.41019
821.96        63.65081
822.37        63.91427
822.78        64.14446
823.19        64.23953
823.60        64.17019
824.00        63.93935
824.41        63.64182
824.82         63.4699
825.23         63.4644
825.64        63.59531
826.04        63.74563
826.45        63.64302
826.86         63.2598
827.27        62.69195
827.68        62.14337
828.08        61.94726
828.49        62.14115
828.90        62.66383
829.31        63.34119
829.72         63.8687
830.12        64.16267
830.53         64.2188
830.94        64.19658
831.35        64.33517
831.75        64.70821
832.16        65.17301
832.57        65.56818
832.97        65.59869
833.38        65.22001
833.79        64.60052
834.20        63.94606
834.60        63.52822
835.01        63.44753
835.42        63.59492
835.82        63.95585
836.23         64.4398
836.64        64.99597
837.04        65.66088
837.45        66.20522
837.86        66.39669
838.26        66.18249
838.67        65.63262
839.08        64.95001
839.48        64.44266
839.89        64.24624
840.29        64.28951
840.70        64.49414
841.11         64.7349
841.51        64.97837
841.92        65.21794
842.33        65.48489
842.73        65.81131
843.14        66.13529
843.54        66.44942
843.95         66.6627
844.35        66.70133
844.76        66.53998
845.17        66.20803
845.57        65.82241
845.98        65.54358
846.38        65.43334
846.79        65.44463
847.19        65.48343
847.60        65.34255
848.00        64.99848
848.41        64.54331
848.81         64.1073
849.22        63.86949
849.62        63.90003
850.03        64.08955
850.43        64.42675
850.84        64.72746
851.24        64.97903
851.65        65.14799
852.05         65.2349
852.46        65.18734
852.86        64.99898
853.27        64.74325
853.67        64.41521
854.07        64.15932
854.48        63.95887
854.88        63.80852
855.29        63.65317
855.69        63.55575
856.10        63.44563
856.50        63.41519
856.90        63.38667
857.31        63.26932
857.71        63.09887
858.12        62.86359
858.52        62.68037
858.92        62.69907
859.33        62.92358
859.73        63.33675
860.13        63.80208
860.54        64.10947
860.94        64.24034
861.34        64.18237
861.75        63.96568
862.15        63.69725
862.55        63.40274
862.96         63.0923
863.36         62.7404
863.76        62.32114
864.17        61.86592
864.57        61.42712
864.97        61.09552
865.38        60.96434
865.78        61.07154
866.18        61.35641
866.58        61.76692
866.99        62.17403
867.39        62.54212
867.79        62.86763
868.19        63.06026
868.60        62.99363
869.00        62.67519
869.40        62.12942
869.80         61.6139
870.21        61.56319
870.61        62.10211
871.01        63.06528
871.41        64.05814
871.81        64.45416
872.22        64.09869
872.62        63.16684
873.02        62.02774
873.42        61.30105
873.82        61.18441
874.22        61.54357
874.63        62.05084
875.03        62.20166
875.43        61.88321
875.83        61.23825
876.23         60.6758
876.63        60.86068
877.03         61.8996
877.44        63.50555
877.84        65.12287
878.24        65.76315
878.64        65.22861
879.04        63.90281
879.44        62.35595
879.84        61.41962
880.24         61.2954
880.64        61.69151
881.04        62.40487
881.44        63.09905
881.84        63.61713
882.24        64.09444
882.65        64.35166
883.05         64.1958
883.45        63.58858
883.85        62.61728
884.25        61.66074
884.65        61.31326
885.05        61.67359
885.45        62.54031
885.85        63.61492
886.25        64.35915
886.65        64.57207
887.05        64.42947
887.45        63.94589
887.85        63.17247
888.25        62.25421
888.65        61.23512
889.04         60.3949
889.44         60.1669
889.84        60.55857
890.24        61.48429
890.64        62.66225
891.04        63.45412
891.44        63.61438
891.84        63.33095
892.24        62.85781
892.64        62.56298
893.04        62.54761
893.44        62.68352
893.83        62.97356
894.23        63.36297
894.63        63.81791
895.03        64.34903
895.43        64.84095
895.83         65.1065
896.23        65.10807
896.63        64.87039
897.02        64.49809
897.42        64.24728
897.82        64.17043
898.22        64.24526
898.62        64.35094
899.01        64.28735
899.41        64.00426
899.81        63.57203
900.21        63.19179
900.61        63.16624
901.00        63.53325
901.40        64.18901
901.80        64.82401
902.20        64.94263
902.59        64.43932
902.99        63.47523
903.39        62.40993
903.79        61.77427
904.18        61.70241
904.58        62.07962
904.98        62.61594
905.38        62.86617
905.77        62.69175
906.17        62.20071
906.57        61.68733
906.96        61.64292
907.36        62.12828
907.76        63.01979
908.15        63.85711
908.55        63.76755
908.95        62.66594
909.34        60.85894
909.74        59.12822
910.14        58.53224
910.53        59.32565
910.93        61.11521
911.33        63.34332
911.72        65.11488
912.12        66.04229
912.52        66.38172
912.91        66.34618
913.31        66.31328
913.70         66.4237
914.10        66.47276
914.49        66.38956
914.89        66.08668
915.29        65.57241
915.68        64.95463
916.08        64.33978
916.47        63.72516
916.87        63.19122
917.26        62.71018
917.66        62.36617
918.05         62.3075
918.45        62.50753
918.84        62.97161
919.24        63.46923
919.64        63.73069
920.03        63.68175
920.42        63.36647
920.82        62.99346
921.21        62.80859
921.61        62.88905
922.00        63.16877
922.40        63.51499
922.79        63.78514
923.19        63.89043
923.58        63.89404
923.98        63.85318
924.37        63.86526
924.77        63.94756
925.16        64.07922
925.55        64.18139
925.95        64.13579
926.34        63.94527
926.74        63.64128
927.13        63.34521
927.52        63.21535
927.92        63.29028
928.31        63.49137
928.70        63.71923
929.10         63.7983
929.49         63.6766
929.89        63.39375
930.28        63.01626
930.67        62.60491
931.07          62.213
931.46        61.85592
931.85         61.5818
932.24        61.46031
932.64        61.51639
933.03        61.75903
933.42        62.13148
933.82        62.50536
934.21        62.83379
934.60        63.06263
934.99         63.2904
935.39        63.68092
935.78        64.29286
936.17        65.05251
936.56         65.5843
936.96        65.30907
937.35        64.19273
937.74        62.51228
938.13        60.91545
938.53        60.22259
938.92        60.54326
939.31        61.69801
939.70        63.18662
940.09         64.0275
940.49        63.87694
940.88        63.02175
941.27        61.98831
941.66        61.56878
942.05        61.94497
942.44        62.91222
942.84        63.97292
943.23        64.29883
943.62        63.63728
944.01        62.28767
944.40         60.9463
944.79         60.6128
945.18        61.47845
945.57        63.24613
945.97        65.15454
946.36        66.10394
946.75        65.66682
947.14        64.20784
947.53        62.48183
947.92        61.62922
948.31        61.93695
948.70        63.08871
949.09        64.47198
949.48        64.99474
949.87        64.34889
950.26        62.93073
950.65        61.40398
951.04        60.65918
951.43        60.89185
951.82        61.84468
952.21        63.01289
952.60        63.49749
952.99        63.02333
953.38        61.87724
953.77        60.65639
954.16        60.14136
954.55        60.48105
954.94        61.51398
955.33        62.66796
955.72        62.76521
956.11        61.49929
956.50        59.35936
956.89        57.32414
957.28        56.63527
957.66        57.54582
958.05        59.63087
958.44         62.1979
958.83        63.78658
959.22        63.83454
959.61        62.80866
960.00        61.36933
960.39         60.3701
960.78        59.99815
961.16        59.98369
961.55        60.08647
961.94        59.94688
962.33        59.46871
962.72        58.91874
963.11        58.42582
963.49        58.08987
963.88        57.94336
964.27        57.92059
964.66        58.11246
965.04        58.73462
965.43        59.71338
965.82        60.98077
966.21        62.23352
966.60        62.91993
966.98        62.90748
967.37         62.3876
967.76        61.63908
968.15        61.04506
968.53        60.69548
968.92        60.42896
969.31        60.34991
969.69        60.65467
970.08        61.31882
970.47        62.44991
970.86        63.50927
971.24        63.56069
971.63          62.433
972.02        60.42408
972.40         58.5524
972.79        58.43246
973.17        60.30764
973.56        63.58276
973.95        67.14643
974.33         68.8969
974.72        68.13373
975.11        65.55083
975.49          62.337
975.88        60.65577
976.26        61.04302
976.65        62.84835
977.04        65.25251
977.42        66.74455
977.81        66.65513
978.19        65.59048
978.58        64.08655
978.96         62.8455
979.35        62.19736
979.74        61.88337
980.12        61.93358
980.51        62.40901
980.89         63.2947
981.28        64.46032
981.66         65.8185
982.05        66.90823
982.43        67.66728
982.82        68.11262
983.20        68.07678
983.59        67.27367
983.97        65.79712
984.35          63.798
984.74        62.06332
985.12        61.65582
985.51        62.65434
985.89        64.86514
986.28        67.25704
986.66        68.43613
987.04        67.83149
987.43        65.88062
987.81        63.34001
988.20        61.88223
988.58        61.92626
988.96        63.08287
989.35         64.3717
989.73        64.41874
990.12        62.84777
990.50         60.2522
990.88         57.5045
991.27        55.97045
991.65        55.99031
992.03        57.18983
992.42        59.03019
992.80        61.01673
993.18        62.79913
993.56         64.4791
993.95        65.96579
994.33        67.18923
994.71        67.97775
995.10        68.33784
995.48        68.14119
995.86        67.33636
996.24        66.01767
996.63        64.15217
997.01        62.43449
997.39        61.93032
997.77        62.87185
998.15        64.97015
998.54        67.20844
998.92        67.97862
999.30        66.90696
999.68        64.45891
1000.06        61.57119
1000.45        60.02628
1000.83        60.51305
1001.21        62.48091
1001.59        65.31655
1001.97        68.00362
1002.35        70.05927
1002.73        71.69785
1003.12        72.76772
1003.50         72.9549
1003.88        72.33831
1004.26        71.02237
1004.64        69.35813
1005.02        68.05455
1005.40        67.38464
1005.78        67.18263
1006.16         67.4424
1006.54         68.1173
1006.92        69.10398
1007.30        70.44508
1007.69        71.66668
1008.07        71.83952
1008.45        70.62593
1008.83        68.30429
1009.21        65.58836
1009.59        63.73264
1009.97        63.16052
1010.35        63.52406
1010.73        64.67049
1011.11         66.2732
1011.49        68.02473
1011.86        70.00833
1012.24        71.53156
1012.62        71.75817
1013.00        70.50989
1013.38        67.84248
1013.76        64.46336
1014.14        62.04993
1014.52        61.32316
1014.90         62.0393
1015.28        63.35403
1015.66        63.74972
1016.04        62.87544
1016.41        61.32304
1016.79        59.86105
1017.17         59.8657
1017.55         61.5288
1017.93        63.94924
1018.31        66.56955
1018.69        69.31549
1019.06        72.51401
1019.44         76.4818
1019.82        81.33697
1020.20        85.48412
1020.58        87.06311
1020.95        85.93857
1021.33        83.16183
1021.71        79.79652
1022.09        75.81461
1022.46        70.45837
1022.84         64.0922
1023.22        58.55652
1023.60        55.85829
1023.97        56.04966
1024.35        57.70689
1024.73        59.06713
