SpectraSmart Spectrum 2.9.0.0
--------- Device Information -----------
Spectrum Name :  反射率_0
Saving Time :  2024/04/30 00:27:46
Spectro-Module Model Name : SE2030-DUVN
Spectro-Module Serial Number : OS361AC55029948
Wavelength Start : 200
Wavelength End : 1025
Wavelength Unit : Wavelength(nm)
Spectrum Unit : Reflectance(%)
-----------Spectrum Setting ------------
Integration Time : 20ms
Average : 10
Boxcar : 0
Background removal :  enabled
linearity correction :  enabled
SC :  disabled
Intensity correction :  disabled
DWT denoise :  enabled
savitzky-golay :  disabled
FFT :  disabled
Running average :  disabled
Kalman :  disabled
High pass :  disabled
---------------BEGIN--------------------
Wavelength(nm)             Reflectance(%)
200.29               0
200.75        72.51315
201.21        60.52042
201.67         46.4194
202.13        32.62314
202.58        20.75172
203.04        10.48706
203.50        3.583496
203.96        3.887645
204.42        12.21723
204.88        26.85918
205.34        43.19716
205.80        53.31414
206.26        55.67758
206.72        53.97203
207.18        49.53592
207.64        42.72355
208.10        33.80858
208.55         22.1212
209.01        10.81779
209.47        8.386556
209.93        15.88377
210.39        28.74303
210.85        40.27229
211.31        45.12848
211.77        43.19757
212.23        34.64025
212.69        21.64322
213.14        16.67721
213.60        25.19146
214.06        39.71843
214.52        51.48493
214.98        55.02238
215.44        51.51064
215.90        43.45013
216.36        33.87008
216.81        28.48863
217.27        30.41907
217.73        39.09795
218.19        54.06457
218.65          68.008
219.11        73.55585
219.57        71.87437
220.02        67.19739
220.48        63.47221
220.94        60.34707
221.40        56.13633
221.86         49.1205
222.32        39.14287
222.77        30.12534
223.23        25.04475
223.69        22.67215
224.15        21.10151
224.61        19.75422
225.06        18.45981
225.52        18.87861
225.98        23.26247
226.44        30.23756
226.90           37.25
227.36        42.11438
227.81        43.73719
228.27        42.67721
228.73        39.45228
229.19        35.28574
229.65        32.99611
230.10        33.40724
230.56        35.30379
231.02        37.16855
231.48        37.63004
231.93        36.62307
232.39        34.74226
232.85        32.71518
233.31        31.89468
233.77        32.73312
234.22        34.94264
234.68        37.64035
235.14        39.17677
235.60         39.1454
236.05         38.1182
236.51        37.30847
236.97        38.42384
237.43        42.04367
237.88        48.27663
238.34        56.65785
238.80        64.60155
239.26        69.45235
239.71         71.2534
240.17        70.75344
240.63        70.06806
241.08        70.18095
241.54        70.32716
242.00        71.49352
242.46        76.31557
242.91        85.95438
243.37        98.22868
243.83        108.6749
244.28        114.7964
244.74        117.1354
245.20        115.1944
245.66        110.5353
246.11        107.6508
246.57         108.712
247.03        114.2372
247.48        119.8023
247.94        115.7881
248.40        104.2439
248.85        91.59263
249.31        83.97797
249.77         83.6553
250.22        90.49261
250.68          105.72
251.14        129.4606
251.59        143.9579
252.05        135.6766
252.51        118.2912
252.96        104.3885
253.42         98.6862
253.88        98.41667
254.33        100.9885
254.79        104.6118
255.25        105.3405
255.70        102.5584
256.16        99.25885
256.62         96.6944
257.07        95.42426
257.53        95.60635
257.99        96.33734
258.44        96.46068
258.90        95.45364
259.35        93.04446
259.81        90.47974
260.27        88.25342
260.72        86.76818
261.18        86.14201
261.63        85.63338
262.09        84.97169
262.55        83.35835
263.00        80.82209
263.46        78.11031
263.91        75.42966
264.37        73.43962
264.83        72.01099
265.28        70.83888
265.74        69.91908
266.19        68.97219
266.65         68.0285
267.11        67.10365
267.56         66.1201
268.02        64.98071
268.47        63.61533
268.93        62.05043
269.38        60.36623
269.84        58.85958
270.30        57.62318
270.75        56.60033
271.21        55.69854
271.66        54.68278
272.12        53.50536
272.57        52.19576
273.03        50.86188
273.48        49.58386
273.94        48.47225
274.39        47.43035
274.85        46.49474
275.31        45.59957
275.76        44.69742
276.22        43.86044
276.67        43.02083
277.13        42.20881
277.58        41.37704
278.04        40.58549
278.49        39.81322
278.95        39.15987
279.40        38.57422
279.86        38.09938
280.31        37.65019
280.77        37.24385
281.22        36.82389
281.68        36.43993
282.13        36.07557
282.59        35.78354
283.04        35.53642
283.50        35.33209
283.95        35.12885
284.41        34.89513
284.86        34.61867
285.32        34.37509
285.77        34.15184
286.22        34.01802
286.68         33.9987
287.13        34.01963
287.59         34.1343
288.04        34.35518
288.50        34.67459
288.95         35.0238
289.41        35.31751
289.86        35.37181
290.32        35.21306
290.77        34.93269
291.22        34.65751
291.68        34.57373
292.13         34.7526
292.59        35.19262
293.04        35.94982
293.50        37.15219
293.95         38.7725
294.40         40.7592
294.86        42.91405
295.31        44.92505
295.77        46.69497
296.22        48.28362
296.68        49.80239
297.13        51.41561
297.58        53.18983
298.04        55.03812
298.49        56.94379
298.95        58.90803
299.40        60.89404
299.85        62.91551
300.31        64.92841
300.76        66.76262
301.21        68.44235
301.67        70.05396
302.12        71.65296
302.58        73.48125
303.03        75.53364
303.48        77.71479
303.94        79.99528
304.39        82.45235
304.84        84.73077
305.30        87.10092
305.75        89.34852
306.20        91.37917
306.66        93.18704
307.11        94.71459
307.57        96.11264
308.02        97.46336
308.47        98.85464
308.93        100.2811
309.38        101.6398
309.83        102.8578
310.29        103.9285
310.74        104.8699
311.19        105.7454
311.65        106.6281
312.10         107.518
312.55        108.4181
313.00        109.3406
313.46        110.3084
313.91        111.2927
314.36        112.2771
314.82        113.2226
315.27        114.1002
315.72        114.8639
316.18        115.5217
316.63        116.0127
317.08        116.2616
317.53        116.2957
317.99        116.1909
318.44         116.069
318.89        116.1379
319.35        116.4507
319.80        116.9483
320.25           117.6
320.70        118.3453
321.16        119.1001
321.61        119.9218
322.06        120.6448
322.51        121.0277
322.97         121.021
323.42        120.6932
323.87         120.263
324.32         120.117
324.78        120.3325
325.23        120.8939
325.68        121.5749
326.13         121.984
326.59        121.9959
327.04        121.7648
327.49        121.5297
327.94        121.7365
328.39        122.4735
328.85        123.5349
329.30        124.6823
329.75         125.268
330.20        125.1264
330.66        124.4571
331.11        123.6329
331.56        123.1651
332.01        123.2445
332.46         123.733
332.92         124.473
333.37        125.3637
333.82        126.2437
334.27         127.159
334.72        128.0534
335.17        128.8264
335.63        129.4126
336.08         129.867
336.53        130.1664
336.98        130.3851
337.43        130.5616
337.88        130.6911
338.34        130.8314
338.79         131.088
339.24        131.4767
339.69        132.0016
340.14        132.5625
340.59         132.972
341.05        133.2014
341.50        133.3151
341.95        133.4291
342.40        133.7562
342.85         134.327
343.30         135.022
343.75        135.7493
344.20        136.3649
344.66        136.8259
345.11        137.2067
345.56        137.4156
346.01        137.3009
346.46        136.8987
346.91        136.2689
347.36        135.7704
347.81        135.9467
348.26        136.8601
348.72        138.3123
349.17        139.8689
349.62        140.7033
350.07        140.6001
350.52        139.8334
350.97        138.8097
351.42        138.1557
351.87        138.0522
352.32        138.2948
352.77        138.7478
353.22        139.1874
353.67        139.4896
354.13        139.7253
354.58         139.834
355.03        139.5472
355.48        139.0784
355.93        138.2508
356.38        137.1984
356.83        136.0282
357.28        134.8111
357.73        133.5721
358.18        132.3623
358.63        131.2482
359.08        130.2527
359.53         129.368
359.98        128.5963
360.43        127.9281
360.88        127.3343
361.33        126.7961
361.78        126.2265
362.23        125.4946
362.68        124.5791
363.13         123.523
363.58        122.4171
364.03         121.412
364.48        120.5516
364.93        119.7897
365.38        119.0991
365.83         118.435
366.28        117.7737
366.73        117.1327
367.18        116.4714
367.63        115.7193
368.08        114.8602
368.53        113.9016
368.98        112.9119
369.43        112.0064
369.88        111.2295
370.33        110.5825
370.78         109.989
371.23        109.3225
371.68        108.5527
372.13        107.6885
372.58        106.8779
373.03        106.3576
373.48        106.1382
373.93        106.1236
374.38        106.0225
374.83        105.3713
375.28        104.1171
375.72        102.4425
376.17        100.7723
376.62        99.54198
377.07        98.85207
377.52         98.5384
377.97        98.47108
378.42        98.44151
378.87        98.34221
379.32        98.22033
379.77        98.00553
380.22        97.58498
380.67        96.94484
381.11        96.10105
381.56        95.15623
382.01         94.3254
382.46        93.69588
382.91        93.24731
383.36        92.91234
383.81        92.56758
384.26        92.17095
384.71         91.7426
385.15        91.33091
385.60        91.07207
386.05        90.94523
386.50        90.89512
386.95        90.77574
387.40        90.37731
387.85         89.6953
388.29        88.78562
388.74        87.94082
389.19        87.32224
389.64        86.96133
390.09        86.76793
390.54         86.6705
390.98         86.5368
391.43        86.35427
391.88         86.1429
392.33        85.85076
392.78        85.45883
393.23        84.98891
393.67        84.34025
394.12        83.64964
394.57        83.51868
395.02         82.8274
395.47        82.85376
395.91        83.13556
396.36        83.16035
396.81         82.8631
397.26        82.51121
397.71         82.1768
398.15        81.75006
398.60        81.33825
399.05        81.07146
399.50        80.89666
399.95         80.4565
400.39        79.63195
400.84        79.86938
401.29         80.8254
401.74        81.00452
402.18        80.26429
402.63        79.37595
403.08        78.67966
403.53         78.3549
403.97        78.46525
404.42        78.90567
404.87        79.42758
405.32        79.56071
405.76        79.17587
406.21        78.69579
406.66        78.19618
407.11        77.27021
407.55        76.28367
408.00        76.35562
408.45        77.32855
408.90        77.92365
409.34        77.87511
409.79        77.51537
410.24        77.06075
410.68         76.8982
411.13        77.08528
411.58        77.33513
412.03        77.48148
412.47        77.41189
412.92        77.05602
413.37        76.49494
413.81        75.86917
414.26        75.46792
414.71        75.31141
415.15        75.33385
415.60         75.4285
416.05        75.46375
416.49        75.40248
416.94        75.29926
417.39        75.16931
417.83         75.0152
418.28        74.86015
418.73        74.68773
419.17        74.57837
419.62        74.68224
420.07        74.98428
420.51         75.4044
420.96        75.80791
421.41        75.88975
421.85          75.578
422.30        75.18935
422.74        74.75778
423.19        74.15126
423.64        73.52439
424.08        73.50626
424.53        74.00591
424.98        74.26671
425.42         74.1915
425.87        74.38953
426.31        74.73921
426.76        74.33591
427.21        73.23518
427.65        73.08365
428.10        73.71181
428.54        73.62347
428.99        72.88502
429.44        72.56704
429.88        72.73109
430.33        72.74907
430.77        72.62162
431.22        73.27387
431.66        74.39211
432.11        74.13892
432.56        72.68468
433.00         72.2436
433.45        73.14423
433.89        73.25636
434.34        73.70966
434.78        74.93742
435.23        72.49811
435.67        71.97831
436.12        72.08467
436.57         72.2355
437.01        72.32647
437.46        72.46377
437.90        72.66695
438.35        73.04223
438.79        73.48784
439.24        73.59857
439.68         73.3942
440.13        73.26357
440.57        73.30454
441.02        73.33066
441.46        73.31134
441.91        73.56241
442.35        73.93166
442.80        73.59846
443.24        73.98948
443.69        73.53306
444.13        72.82677
444.58        72.66118
445.02        72.49096
445.47         72.6096
445.91        72.79973
446.36        72.84653
446.80        72.63706
447.24        73.32227
447.69        73.00866
448.13        73.06693
448.58        72.99109
449.02        72.97258
449.47         73.0326
449.91         73.0677
450.36        73.11143
450.80        73.20916
451.25         73.3332
451.69        73.35625
452.13        73.26655
452.58        73.12751
453.02        72.98331
453.47        72.88544
453.91        72.82811
454.36        72.98206
454.80        72.95857
455.24        72.97645
455.69        72.91192
456.13        72.82209
456.58        72.72545
457.02        72.42251
457.46         72.0437
457.91        72.00777
458.35        72.16425
458.79        72.15538
459.24        72.01261
459.68        71.71377
460.13          71.268
460.57        71.77759
461.01        71.40643
461.46        71.41587
461.90        71.20968
462.34        71.61452
462.79        71.51952
463.23        71.29632
463.68        70.72682
464.12        70.35922
464.56        70.22033
465.01         69.8719
465.45        69.46857
465.89        69.61126
466.34        70.07811
466.78        70.75084
467.22         70.6924
467.67         69.8278
468.11        69.99791
468.55        69.61293
468.99        69.31992
469.44        68.99077
469.88        68.68249
470.32         68.5502
470.77        68.53543
471.21        68.49784
471.65        68.39439
472.10        68.28857
472.54        68.23122
472.98        68.29315
473.42        68.46224
473.87        68.80741
474.31        69.15675
474.75         69.0075
475.20        68.45834
475.64        68.24383
476.08        68.40906
476.52        68.18397
476.97         67.5237
477.41        67.68685
477.85        67.55147
478.29        66.94117
478.74        67.74236
479.18        67.57397
479.62        67.21709
480.06        67.12737
480.50        67.34787
480.95        67.35629
481.39        68.19176
481.83        67.23815
482.27         68.1165
482.72        67.74574
483.16        67.78883
483.60        67.75404
484.04        67.83874
484.48        68.19477
484.93        68.57178
485.37        68.07934
485.81        67.16674
486.25        66.40118
486.69        67.88011
487.14        67.65382
487.58        67.05629
488.02        66.70877
488.46        67.50117
488.90        66.85567
489.34        66.90078
489.79        67.40712
490.23        66.94073
490.67        66.93679
491.11        66.79026
491.55        66.52126
491.99        66.19496
492.43        65.99603
492.88        65.95063
493.32        66.30669
493.76        66.42626
494.20        66.64426
494.64        66.75063
495.08        66.77554
495.52        66.74197
495.96         66.7044
496.41        66.71075
496.85         66.7618
497.29        66.74123
497.73        66.77634
498.17        66.29082
498.61        65.86505
499.05        65.49739
499.49        65.53233
499.93        65.87183
500.37        66.03535
500.82        65.98145
501.26        65.96029
501.70        65.92628
502.14        66.09022
502.58        65.70112
503.02        65.68897
503.46        65.84292
503.90        66.10345
504.34        66.36822
504.78        66.49324
505.22        66.43411
505.66        66.23797
506.10        66.01417
506.54        65.92058
506.98        65.94557
507.42        66.35835
507.86        66.00135
508.30        66.37394
508.74        65.92206
509.18        65.70593
509.62        65.49632
510.06        65.14581
510.50        65.39762
510.94        65.62018
511.38        65.91065
511.82        66.03857
512.26        65.96275
512.70        65.72282
513.14        65.40812
513.58        65.27269
514.02        65.37957
514.46        65.35809
514.90        65.50725
515.34         65.7852
515.78        65.57738
516.22        65.47228
516.66        65.33332
517.10         65.2756
517.54        65.31256
517.98        65.42073
518.42        65.53127
518.86        65.51966
519.30        65.36591
519.74        65.11559
520.18         64.8595
520.62        64.73173
521.06        64.76786
521.50        64.93539
521.93        65.15965
522.37        65.29562
522.81        65.31126
523.25        65.23547
523.69        65.15105
524.13        65.18819
524.57        65.36458
525.01        65.62882
525.45        65.86584
525.89        65.89318
526.32        65.66941
526.76        65.28912
527.20        64.87515
527.64        64.61703
528.08        64.56374
528.52         64.6549
528.96        64.82373
529.40        64.96285
529.83        65.02688
530.27        65.05464
530.71        65.04765
531.15        65.01372
531.59        64.95926
532.03         64.8733
532.46        64.76218
532.90        64.66966
533.34        64.60125
533.78        64.56017
534.22        64.53542
534.66        64.50432
535.09        64.45688
535.53         64.4117
535.97        64.38024
536.41        64.39502
536.85        64.45631
537.28        64.54439
537.72        64.62253
538.16        64.62962
538.60        64.55322
539.04        64.41678
539.47         64.2439
539.91        64.12421
540.35        64.06104
540.79        64.04637
541.22        64.05745
541.66        64.06763
542.10        64.06528
542.54         64.0667
542.97        64.07991
543.41        64.13546
543.85        64.22365
544.29        64.33596
544.72        64.42362
545.16        64.44554
545.60        64.39218
546.04        64.26875
546.47        64.12079
546.91        64.10856
547.35        64.22126
547.79        64.24387
548.22        64.16355
548.66        64.31647
549.10        64.68171
549.53        64.79904
549.97        64.52286
550.41        65.09286
550.84        64.55995
551.28         64.2551
551.72        63.72098
552.15        63.95506
552.59        64.08846
553.03        64.20284
553.46        64.05544
553.90        64.04632
554.34        64.14816
554.77        64.17427
555.21        64.14079
555.65        64.02805
556.08        63.88756
556.52        64.03733
556.96        64.40087
557.39        64.50727
557.83        64.31204
558.27        64.52837
558.70        64.23897
559.14          64.317
559.57        64.43583
560.01        64.52256
560.45        64.54322
560.88        64.38741
561.32        64.38711
561.75         64.2672
562.19        64.15494
562.63        63.99408
563.06        63.83698
563.50        63.90604
563.93        64.10744
564.37        64.16706
564.80        64.04634
565.24        63.91522
565.68        63.80424
566.11        63.77372
566.55        63.84541
566.98        63.82151
567.42        63.79705
567.85        63.98382
568.29        64.27056
568.72        64.43964
569.16        64.66708
569.60        63.99233
570.03        64.36842
570.47        64.83744
570.90        64.96242
571.34        64.39077
571.77        64.91848
572.21        64.85185
572.64        64.75523
573.08        64.89871
573.51        64.23024
573.95        64.72323
574.38        65.07304
574.82        64.80172
575.25        64.84156
575.69        64.63036
576.12        64.39886
576.56        64.21991
576.99        64.33617
577.42        64.35551
577.86         64.1839
578.29        64.28436
578.73        65.15417
579.16        64.44833
579.60        64.30318
580.03        64.01771
580.47        64.94116
580.90        64.92119
581.33        64.45518
581.77         64.1492
582.20         64.6803
582.64        65.13253
583.07        64.55847
583.51        64.12746
583.94        63.83266
584.37        63.59881
584.81        63.63068
585.24        64.24547
585.68        64.72082
586.11        65.25688
586.54        64.14745
586.98        63.91275
587.41        64.56147
587.85         64.7118
588.28        64.49498
588.71         65.0286
589.15        64.31111
589.58         64.3058
590.01        63.78243
590.45        63.76714
590.88        64.05505
591.31        64.43065
591.75        64.63603
592.18        64.54181
592.61        64.40522
593.05        63.61646
593.48        64.24117
593.91         65.0398
594.35         63.9876
594.78        63.73524
595.21        63.45907
595.65        64.20338
596.08        63.58088
596.51        63.86377
596.94        64.22993
597.38        64.44473
597.81        64.32475
598.24        64.25973
598.68        63.88828
599.11        63.46828
599.54         64.2477
599.97         64.8251
600.41        63.46174
600.84        63.53926
601.27        63.79113
601.70        63.96294
602.14        64.34916
602.57        63.78991
603.00        63.35771
603.43        63.22044
603.87        63.36272
604.30        63.95425
604.73        63.48769
605.16         63.4215
605.60        63.35376
606.03         63.5477
606.46        63.82497
606.89        63.94368
607.32         63.5812
607.76        63.49882
608.19        63.67759
608.62        63.65938
609.05        63.39145
609.48        63.80439
609.92        63.32438
610.35        63.25974
610.78        63.90773
611.21        63.38168
611.64        63.30973
612.07        63.65061
612.50        63.35403
612.94         63.5082
613.37        63.71381
613.80        63.59982
614.23        63.92051
614.66        63.89637
615.09        63.77111
615.52        63.71807
615.96         63.7437
616.39        63.52301
616.82        63.07971
617.25        63.33913
617.68        63.10583
618.11        63.32822
618.54        63.52945
618.97         63.4215
619.40        63.09731
619.84         62.9551
620.27        63.06499
620.70        63.38417
621.13        63.76385
621.56        63.18636
621.99        62.99371
622.42        62.38353
622.85        63.29812
623.28        63.29557
623.71        63.77956
624.14        62.52477
624.57        63.38532
625.00        63.30344
625.43        63.32254
625.86        63.09887
626.29        62.73655
626.72        63.08784
627.15        62.76046
627.58        62.94518
628.01        63.13089
628.44        62.99493
628.87        62.63171
629.30        62.64839
629.73         63.0191
630.16        63.31563
630.59        63.13663
631.02        63.26945
631.45        63.32033
631.88        63.35674
632.31        63.28466
632.74        63.17673
633.17        63.04106
633.60        62.86604
634.03         62.6817
634.46        62.53148
634.89        62.44147
635.32        62.41358
635.75        62.44791
636.18        62.55012
636.61         62.6763
637.04         62.7512
637.47        62.76911
637.89        62.71145
638.32        62.56567
638.75        62.50611
639.18         62.5806
639.61        62.13191
640.04        62.30827
640.47        62.24939
640.90        62.29622
641.33        62.42319
641.76        62.58205
642.18        62.66916
642.61        62.62862
643.04        62.50021
643.47         62.3676
643.90        62.35028
644.33        62.46297
644.76        62.73907
645.18        63.05526
645.61        63.03595
646.04        62.60013
646.47        62.54329
646.90        62.77943
647.33        62.77369
647.75        62.50879
648.18        62.23441
648.61         62.0699
649.04        62.19848
649.47        62.54186
649.89        62.81047
650.32        62.88072
650.75        62.70755
651.18        62.42091
651.61        62.40277
652.03        62.68585
652.46        62.94137
652.89        62.96671
653.32        62.92097
653.74        62.99586
654.17        62.34785
654.60        61.84066
655.03        63.63977
655.46        61.94215
655.88        62.79433
656.31        65.61332
656.74        66.66665
657.16        66.30702
657.59        64.26775
658.02        62.67895
658.45        63.12072
658.87        62.90873
659.30        62.84881
659.73        62.85705
660.15        63.15043
660.58        63.02562
661.01        63.06995
661.44        63.00911
661.86        62.70306
662.29        62.25753
662.72        62.19997
663.14        62.49174
663.57        62.41579
664.00        62.04277
664.42        61.96786
664.85        62.21865
665.27        62.43604
665.70        62.55266
666.13        62.65473
666.55        62.72845
666.98        62.73519
667.41        62.68519
667.83        62.59978
668.26        62.48436
668.69        62.34436
669.11         62.2201
669.54        62.16065
669.96         62.1726
670.39        62.29457
670.82        62.46087
671.24        62.44168
671.67        62.26554
672.09        62.24853
672.52        62.40126
672.94        62.54757
673.37        62.20266
673.80        62.62105
674.22        62.41551
674.65        62.56813
675.07        62.71035
675.50        62.87117
675.92        63.01111
676.35        63.05799
676.77        63.01642
677.20        62.88707
677.62        62.73105
678.05        62.64934
678.47        62.66073
678.90        62.74021
679.32        62.83037
679.75         62.8486
680.17        62.77125
680.60          62.641
681.02        62.49726
681.45        62.40423
681.87        62.38339
682.30        62.40061
682.72        62.46498
683.15         62.5277
683.57        62.61142
684.00        62.78659
684.42        62.98342
684.85        63.07737
685.27        63.05672
685.70        62.84279
686.12        62.57411
686.54        62.82091
686.97        63.44272
687.39        63.66499
687.82        63.41861
688.24        63.31457
688.66        63.35472
689.09        63.15848
689.51        62.79313
689.94        62.56716
690.36        62.51581
690.78        62.55558
691.21        62.65031
691.63        62.74598
692.06        62.81652
692.48        62.89067
692.90        62.95416
693.33        62.97899
693.75        62.95846
694.17        62.87572
694.60        62.79031
695.02        62.76269
695.44        62.79387
695.87        63.04799
696.29        63.40033
696.71        63.18114
697.14         62.5708
697.56        62.59644
697.98        63.19815
698.41         63.4494
698.83        63.30668
699.25        63.31385
699.68        63.44412
700.10        63.44061
700.52        63.28057
700.94        63.05312
701.37        62.80427
701.79        62.62432
702.21        62.53521
702.64        62.52073
703.06        62.56231
703.48        62.64205
703.90        62.74789
704.33        62.89136
704.75        63.03146
705.17        63.16727
705.59        63.27032
706.01        63.33706
706.44        63.37374
706.86        63.41272
707.28        63.45906
707.70        63.47707
708.12        63.47736
708.55        63.53657
708.97        63.62118
709.39        63.55688
709.81        63.39083
710.23        63.37947
710.66        63.54007
711.08         63.7537
711.50        63.94637
711.92        64.08339
712.34        64.14288
712.76        64.13503
713.19         64.0726
713.61        64.02342
714.03        63.99089
714.45        63.96372
714.87        63.95346
715.29        63.97579
715.71        64.02778
716.13        64.10736
716.56        64.16926
716.98        64.21224
717.40        64.20233
717.82        64.15277
718.24        64.08512
718.66        64.03699
719.08        64.01925
719.50        64.01611
719.92        64.02882
720.34         64.0582
720.76        64.09878
721.19        64.14682
721.61        64.18269
722.03        64.14921
722.45        64.03809
722.87        63.86084
723.29        63.67625
723.71        63.58051
724.13        63.59646
724.55        63.70348
724.97        63.83223
725.39        63.86509
725.81        63.77962
726.23        63.61641
726.65        63.45479
727.07        63.42241
727.49        63.54242
727.91        63.75908
728.33        64.00498
728.75        64.16794
729.17        64.21164
729.59        64.18372
730.01        64.08997
730.43        63.94091
730.85        63.76371
731.27        63.55651
731.69        63.41016
732.10        63.47316
732.52        63.76529
732.94        64.24671
733.36        64.77077
733.78        65.09475
734.20        65.14316
734.62        64.90981
735.04        64.55778
735.46        64.49943
735.88         64.7335
736.30        64.83591
736.72        64.73573
737.13        64.72501
737.55         64.7281
737.97        64.39759
738.39         63.8904
738.81        63.76025
739.23        64.02612
739.65         64.3396
740.06        64.53017
740.48        64.58739
740.90        64.45931
741.32        64.12316
741.74        63.72311
742.16        63.56775
742.57        63.73766
742.99        64.05373
743.41        64.41816
743.83        64.81831
744.25         65.1264
744.67        65.04574
745.08        64.67752
745.50        64.49105
745.92        64.55558
746.34        64.61606
746.75         64.6426
747.17        64.68885
747.59        64.74022
748.01        64.80415
748.42        64.86723
748.84        64.85759
749.26        64.79193
749.68        64.71304
750.09        64.63387
750.51        64.61381
750.93        64.62653
751.35        64.57613
751.76        64.47618
752.18        64.44025
752.60        64.47565
753.01        64.49752
753.43        64.49626
753.85        64.57355
754.27        64.71262
754.68        64.79793
755.10        64.81664
755.52        64.86269
755.93        64.91409
756.35        64.87846
756.77        64.85918
757.18        64.95757
757.60         65.1708
758.02        65.75885
758.43        66.42424
758.85        66.01346
759.26        64.79332
759.68        64.45322
760.10        65.02973
760.51        65.19331
760.93        64.90777
761.34        65.06983
761.76        65.53758
762.18        65.52628
762.59        65.05482
763.01        64.56181
763.42         64.2291
763.84        64.06549
764.26        64.13944
764.67        64.35984
765.09        64.68006
765.50        65.17973
765.92        65.70367
766.33        65.74641
766.75        65.28623
767.16        65.05386
767.58        65.10094
768.00        64.91357
768.41        64.56317
768.83        64.72276
769.24         65.2326
769.66        65.15051
770.07        64.57993
770.49        64.54299
770.90        65.00777
771.32        65.18876
771.73         65.0612
772.15        64.98662
772.56        64.97758
772.97        65.07053
773.39        64.84369
773.80        64.89826
774.22        65.08101
774.63        65.38356
775.05        65.66547
775.46        65.78677
775.88        65.68543
776.29        65.45382
776.70        65.16416
777.12        64.94642
777.53        64.85033
777.95        64.83018
778.36        64.90312
778.77        65.02676
779.19        65.16589
779.60        65.51093
780.02        65.93802
780.43        65.90051
780.84        65.53089
781.26        65.71526
781.67        66.38258
782.09        66.66662
782.50        66.51052
782.91        66.35667
783.33        66.22253
783.74        65.98459
784.15        65.66758
784.57        65.32256
784.98        65.03376
785.39        64.93736
785.81        65.06197
786.22        65.38544
786.63        65.78564
787.04        66.21161
787.46        66.59591
787.87        66.92595
788.28        67.17874
788.70        67.32386
789.11        67.35417
789.52         67.2929
789.93        67.16391
790.35        67.00915
790.76        66.86466
791.17        66.72845
791.58        66.65463
792.00        66.67211
792.41        66.79207
792.82        67.08275
793.23        67.44097
793.65        67.45488
794.06        67.20636
794.47        67.26524
794.88        67.55801
795.29        67.54031
795.71        67.17388
796.12        66.79582
796.53        66.53314
796.94         66.4767
797.35        66.67572
797.76        67.10756
798.18         67.5979
798.59         67.9008
799.00        67.92675
799.41        67.74461
799.82        67.46706
800.23        67.29562
800.64        67.29626
801.06        67.38418
801.47        67.54599
801.88        67.68664
802.29        67.76821
802.70        67.81239
803.11        67.83214
803.52        67.84081
803.93        67.85135
804.34        67.86141
804.75          67.841
805.17        67.78446
805.58         67.7281
805.99        67.54174
806.40        67.32152
806.81        67.52668
807.22        68.03147
807.63        68.08287
808.04        67.71838
808.45        67.65109
808.86        67.92309
809.27        68.11907
809.68          68.166
810.09        68.15878
810.50        68.09007
810.91        67.93079
811.32        67.78525
811.73        67.82513
812.14        68.07697
812.55        68.49197
812.96        68.93101
813.37        69.12932
813.78        69.01642
814.19        68.69476
814.60        68.28516
815.01         67.9538
815.42        67.75167
815.83        67.62286
816.24        67.58528
816.65        67.67381
817.05        67.87523
817.46         68.1446
817.87        68.40011
818.28        68.46181
818.69        68.30242
819.10         67.9713
819.51        67.57804
819.92        67.34079
820.33        67.33427
820.74         67.4836
821.14         67.7377
821.55         68.0239
821.96        68.29395
822.37        68.58097
822.78        68.80263
823.19        68.80891
823.60        68.57317
824.00        68.12822
824.41        67.63184
824.82        67.36948
825.23        67.40585
825.64        67.68737
826.04        68.06399
826.45        68.18912
826.86        67.99992
827.27        67.59962
827.68        67.18212
828.08        67.07569
828.49        67.31384
828.90        67.82194
829.31        68.44258
829.72        68.90713
830.12        69.14888
830.53        69.16879
830.94        69.09821
831.35        69.11971
831.75         69.2999
832.16        69.50256
832.57         69.6581
832.97        69.61916
833.38        69.36536
833.79        69.02203
834.20        68.64011
834.60        68.26012
835.01        67.94766
835.42        67.66097
835.82        67.56625
836.23        67.87254
836.64        68.61475
837.04        69.75756
837.45        70.88216
837.86        71.42773
838.26        71.24109
838.67        70.47574
839.08        69.52097
839.48        68.98016
839.89        69.04448
840.29        69.52791
840.70        70.16595
841.11        70.54017
841.51         70.5508
841.92        70.30736
842.33        69.99129
842.73        69.88258
843.14        70.01444
843.54         70.3083
843.95        70.64477
844.35         70.9056
844.76        71.01389
845.17        70.99948
845.57        70.89737
845.98        70.72343
846.38        70.51899
846.79        70.28774
847.19        69.99964
847.60        69.57169
848.00        69.04135
848.41        68.46054
848.81        68.03101
849.22        68.03775
849.62         68.5479
850.03        69.43092
850.43        70.46143
850.84         71.0413
851.24        71.04993
851.65        70.54757
852.05        69.83221
852.46        69.36346
852.86        69.26585
853.27        69.45319
853.67        69.66403
854.07        69.72539
854.48        69.54693
854.88        69.21458
855.29        68.79937
855.69        68.63103
856.10        68.71104
856.50        69.04045
856.90        69.34156
857.31        69.23812
857.71        68.71645
858.12        67.87013
858.52        67.02998
858.92        66.69701
859.33         66.9776
859.73        67.74519
860.13        68.69763
860.54         69.3471
860.94        69.57928
861.34        69.45593
861.75        69.05485
862.15        68.57977
862.55        68.09871
862.96        67.57972
863.36        67.02357
863.76        66.45655
864.17        65.91961
864.57        65.47397
864.97        65.15329
865.38        64.94288
865.78        64.86056
866.18        64.86269
866.58        64.98914
866.99        65.29915
867.39        65.81788
867.79        66.47799
868.19        67.04671
868.60        67.18712
869.00        66.86076
869.40        66.15529
869.80        65.43266
870.21        65.30782
870.61        65.95715
871.01        67.14657
871.41        68.40705
871.81        68.99805
872.22        68.72936
872.62        67.82217
873.02         66.6587
873.42        65.87879
873.82        65.69347
874.22        65.94714
874.63        66.35459
875.03        66.48049
875.43        66.21931
875.83        65.70699
876.23         65.2628
876.63        65.39265
877.03        66.18265
877.44        67.40715
877.84        68.65359
878.24        69.16666
878.64        68.79311
879.04        67.81509
879.44        66.68647
879.84         66.0721
880.24        66.12183
880.64        66.60104
881.04        67.29868
881.44        67.86523
881.84        68.16193
882.24        68.31791
882.65        68.26172
883.05        68.00338
883.45        67.54739
883.85        66.93119
884.25        66.37791
884.65        66.24239
885.05        66.57082
885.45         67.2212
885.85        68.01808
886.25        68.63969
886.65        68.94269
887.05        69.02918
887.45        68.79171
887.85        68.08311
888.25        67.00584
888.65        65.69238
889.04        64.52721
889.44        64.07573
889.84        64.36703
890.24        65.27497
890.64        66.48088
891.04        67.28182
891.44        67.41021
891.84        67.08256
892.24        66.57737
892.64        66.29133
893.04        66.32808
893.44        66.54075
893.83        66.91471
894.23        67.36301
894.63        67.84406
895.03        68.38409
895.43        68.87273
895.83        69.13092
896.23        69.12591
896.63        68.87128
897.02        68.49421
897.42        68.28925
897.82        68.30464
898.22        68.49841
898.62        68.68737
899.01        68.56796
899.41        68.07753
899.81        67.33933
900.21        66.61996
900.61        66.32012
901.00        66.51038
901.40        67.05603
901.80        67.66765
902.20        67.87307
902.59        67.55798
902.99        66.88656
903.39        66.11414
903.79        65.61502
904.18        65.49383
904.58        65.65633
904.98        65.97154
905.38        66.25438
905.77        66.41324
906.17        66.49215
906.57        66.54865
906.96        66.69695
907.36        66.92435
907.76        67.21484
908.15        67.41742
908.55        67.18282
908.95        66.54118
909.34        65.61095
909.74         64.8172
910.14        64.67086
910.53        65.29461
910.93        66.47034
911.33        67.89438
911.72        69.08345
912.12        69.77843
912.52        70.11178
912.91        70.17185
913.31        70.12344
913.70        70.04351
914.10        69.82948
914.49        69.48218
914.89        68.99625
915.29        68.41645
915.68        67.82573
916.08        67.31418
916.47        66.86462
916.87        66.54564
917.26        66.31747
917.66        66.28635
918.05        66.64118
918.45        67.33202
918.84        68.32468
919.24        69.25829
919.64        69.66491
920.03         69.4274
920.42        68.65863
920.82        67.71775
921.21         67.0692
921.61        66.86705
922.00        67.02132
922.40         67.3531
922.79        67.62902
923.19        67.73746
923.58         67.7767
923.98         67.8554
924.37        68.14677
924.77        68.65595
925.16        69.28706
925.55        69.85394
925.95        70.08102
926.34        69.92042
926.74        69.45107
927.13        68.83208
927.52        68.28694
927.92        67.90854
928.31        67.63014
928.70        67.42982
929.10        67.24461
929.49         67.0493
929.89        66.86195
930.28        66.68835
930.67        66.45736
931.07        66.17075
931.46        65.86891
931.85        65.59883
932.24        65.44408
932.64        65.43381
933.03        65.54945
933.42         65.7826
933.82        66.09311
934.21        66.46136
934.60        66.83974
934.99        67.21665
935.39        67.56232
935.78        67.90556
936.17        68.21568
936.56        68.33439
936.96        68.05183
937.35        67.37945
937.74        66.43455
938.13        65.55736
938.53        65.16033
938.92         65.2832
939.31        65.87112
939.70        66.63332
940.09        67.00761
940.49        66.80431
940.88        66.17383
941.27        65.47506
941.66        65.25915
942.05        65.63916
942.44        66.49786
942.84        67.37257
943.23        67.50232
943.62        66.67294
944.01        65.15062
944.40        63.66368
944.79        63.26888
945.18         64.1597
945.57        66.03719
945.97        68.07946
946.36        69.07159
946.75        68.56078
947.14        66.95298
947.53        65.08148
947.92        64.20761
948.31        64.65253
948.70        66.06812
949.09        67.79488
949.48        68.64628
949.87        68.26035
950.26        67.03551
950.65        65.65826
951.04         65.0667
951.43        65.46748
951.82        66.58833
952.21        67.86852
952.60        68.31273
952.99        67.64304
953.38         66.2095
953.77        64.71408
954.16        64.06523
954.55        64.43906
954.94        65.64523
955.33        67.06825
955.72        67.41602
956.11        66.30621
956.50         64.2328
956.89        62.18974
957.28        61.45039
957.66        62.28097
958.05        64.24165
958.44        66.61923
958.83         67.9404
959.22        67.68054
959.61        66.35397
960.00        64.68857
960.39        63.60554
960.78        63.29232
961.16        63.45832
961.55        63.81641
961.94        63.90593
962.33        63.57347
962.72        63.10926
963.11        62.63386
963.49        62.24584
963.88        61.99619
964.27        61.80843
964.66        61.85061
965.04        62.48468
965.43        63.65881
965.82        65.26472
966.21        66.87193
966.60        67.69225
966.98        67.53481
967.37        66.69299
967.76        65.55247
968.15        64.63291
968.53        64.06594
968.92        63.64563
969.31        63.49844
969.69        63.87111
970.08        64.72504
970.47         66.1478
970.86        67.51331
971.24        67.71974
971.63        66.55351
972.02        64.38158
972.40         62.2524
972.79        61.83701
973.17        63.40424
973.56        66.31432
973.95        69.59233
974.33        71.37719
974.72        70.99808
975.11        69.09907
975.49        66.54546
975.88        64.96913
976.26        64.79687
976.65        65.49489
977.04        66.66939
977.42        67.60456
977.81        67.86684
978.19         67.8316
978.58        67.57133
978.96        67.04671
979.35        66.39043
979.74        65.57501
980.12        64.92701
980.51        65.01801
980.89        66.00241
981.28        67.54772
981.66        69.42834
982.05        70.95882
982.43        71.98087
982.82         72.6173
983.20        72.62894
983.59        71.57483
983.97        69.58039
984.35        66.84932
984.74        64.45063
985.12        63.86416
985.51        65.21159
985.89        68.15073
986.28        71.36165
986.66        72.95471
987.04        72.20715
987.43        69.69946
987.81        66.34264
988.20        64.09666
988.58         63.5229
988.96        64.15111
989.35        65.06917
989.73        64.99938
990.12        63.56606
990.50        61.38222
990.88        59.11671
991.27         57.7826
991.65        57.62919
992.03        58.32255
992.42        59.59608
992.80        61.40129
993.18        63.48958
993.56        65.89336
993.95        68.15066
994.33         69.4847
994.71        69.58484
995.10         68.7457
995.48         67.4593
995.86        66.58292
996.24        66.38018
996.63        66.50384
997.01        67.15815
997.39        68.45063
997.77        70.20958
998.15        72.41275
998.54        74.21627
998.92        74.31448
999.30        72.48256
999.68        69.02146
1000.06         65.1172
1000.45        63.07828
1000.83        63.72148
1001.21         66.4346
1001.59        70.07943
1001.97        72.69314
1002.35        73.61649
1002.73        73.40813
1003.12        72.48415
1003.50        71.43143
1003.88        70.56673
1004.26         69.6595
1004.64        68.85263
1005.02        68.48447
1005.40        68.60217
1005.78        69.15544
1006.16        69.91481
1006.54        70.50327
1006.92         70.8058
1007.30        70.87193
1007.69        70.67404
1008.07        70.28961
1008.45        69.76597
1008.83        69.18331
1009.21        68.59721
1009.59        68.10145
1009.97        67.75332
1010.35         67.4764
1010.73         67.5887
1011.11         68.5692
1011.49        70.34457
1011.86        72.73367
1012.24        74.70994
1012.62        74.93565
1013.00        73.10133
1013.38         69.4371
1013.76        64.93398
1014.14        61.82936
1014.52        61.08437
1014.90        62.29547
1015.28        64.29021
1015.66        65.05241
1016.04        64.04575
1016.41         61.9348
1016.79        59.63916
1017.17         58.9127
1017.55        60.11044
1017.93        62.24357
1018.31         64.5156
1018.69        66.49884
1019.06        68.37582
1019.44        70.37713
1019.82        72.76082
1020.20        75.14038
1020.58        76.67168
1020.95        76.94529
1021.33        76.09653
1021.71        74.31879
1022.09        71.57829
1022.46        67.48485
1022.84        62.51878
1023.22         58.3513
1023.60        56.64765
1023.97        57.20036
1024.35        58.99817
1024.73        60.93697
