SpectraSmart Spectrum 2.9.0.0
--------- Device Information -----------
Spectrum Name :  反射率_0
Saving Time :  2024/04/30 00:05:15
Spectro-Module Model Name : SE2030-DUVN
Spectro-Module Serial Number : OS361AC55029948
Wavelength Start : 200
Wavelength End : 1025
Wavelength Unit : Wavelength(nm)
Spectrum Unit : Reflectance(%)
-----------Spectrum Setting ------------
Integration Time : 20ms
Average : 10
Boxcar : 0
Background removal :  enabled
linearity correction :  enabled
SC :  disabled
Intensity correction :  disabled
DWT denoise :  enabled
savitzky-golay :  disabled
FFT :  disabled
Running average :  disabled
Kalman :  disabled
High pass :  disabled
---------------BEGIN--------------------
Wavelength(nm)             Reflectance(%)
200.29               0
200.75        78.94565
201.21         62.2559
201.67        44.05323
202.13        30.09936
202.58        23.36041
203.04        22.58023
203.50        28.39393
203.96        41.30079
204.42        59.34645
204.88        80.79208
205.34        97.16422
205.80        97.64773
206.26        85.30732
206.72        68.35294
207.18        53.19728
207.64        43.20512
208.10        37.23349
208.55        33.12258
209.01        30.68781
209.47        30.83423
209.93        33.16589
210.39        37.12298
210.85        40.43731
211.31        41.05074
211.77        38.78954
212.23        33.14529
212.69        25.39781
213.14        23.19907
213.60        29.24093
214.06        38.96491
214.52         46.9211
214.98        49.79488
215.44        48.45244
215.90        44.47908
216.36        39.61871
216.81        37.20141
217.27        39.06406
217.73        44.60904
218.19        53.91438
218.65        63.32825
219.11        68.29916
219.57        69.05477
220.02        66.71969
220.48        62.76483
220.94        56.79853
221.40        47.24022
221.86         34.7901
222.32        26.44871
222.77        26.29867
223.23        31.33764
223.69        35.89839
224.15        36.31017
224.61        32.94263
225.06        26.59148
225.52        20.35915
225.98        20.63121
226.44        27.52768
226.90        36.55959
227.36        43.51662
227.81        45.75174
228.27        43.86813
228.73        39.00443
229.19        33.05677
229.65        30.21824
230.10        31.51543
230.56        34.77187
231.02         37.8667
231.48        39.00786
231.93        38.12051
232.39        36.04424
232.85         33.4227
233.31         31.4347
233.77        30.60908
234.22        30.71192
234.68        31.35951
235.14        31.87909
235.60        32.09052
236.05        32.22786
236.51        32.88343
236.97        34.89832
237.43        38.62346
237.88        44.37235
238.34        51.48032
238.80        57.27275
239.26        59.41449
239.71        58.03934
240.17        54.81491
240.63        52.66901
241.08        52.53579
241.54        54.27964
242.00        58.17443
242.46         62.2208
242.91        63.81094
243.37        62.88808
243.83        62.07684
244.28        64.82958
244.74         71.8648
245.20        82.43358
245.66        95.28427
246.11        106.4947
246.57        113.0484
247.03        116.6854
247.48        115.2503
247.94        105.8835
248.40        93.32654
248.85        81.15491
249.31        73.84616
249.77        72.51714
250.22        76.59281
250.68        87.32263
251.14        104.3477
251.59        113.3009
252.05        104.9352
252.51        90.45849
252.96        79.72992
253.42        76.39725
253.88        78.07212
254.33        82.46963
254.79        87.59148
255.25        88.75624
255.70        85.46732
256.16        81.31069
256.62           77.77
257.07        75.46443
257.53        74.48911
257.99        73.96802
258.44        73.40681
258.90        73.01574
259.35        72.29637
259.81        71.72112
260.27        71.03509
260.72        70.02525
261.18        68.93425
261.63        67.49856
262.09        65.97543
262.55        64.32803
263.00        62.58452
263.46        61.03483
263.91         59.4774
264.37        58.00308
264.83        56.50794
265.28        54.93827
265.74        53.57455
266.19        52.60098
266.65         52.1058
267.11        51.92992
267.56         51.7765
268.02        51.23711
268.47        50.18935
268.93        48.75344
269.38        47.12578
269.84        45.78891
270.30        44.86896
270.75        44.22268
271.21        43.64986
271.66        42.79945
272.12        41.60815
272.57         40.1986
273.03        38.74789
273.48         37.4426
273.94        36.43007
274.39        35.60077
274.85        34.98812
275.31        34.55805
275.76        34.23955
276.22        34.04484
276.67         33.8414
277.13        33.53798
277.58        33.06604
278.04        32.50065
278.49        31.85095
278.95        31.23953
279.40         30.6543
279.86         30.1419
280.31        29.65977
280.77        29.26571
281.22        28.92381
281.68        28.66089
282.13        28.46233
282.59        28.35634
283.04        28.30927
283.50        28.30778
283.95        28.28012
284.41        28.13575
284.86        27.86071
285.32        27.54125
285.77        27.21522
286.22        27.01284
286.68        26.97133
287.13        27.00553
287.59        27.14073
288.04        27.35213
288.50        27.62481
288.95        27.92275
289.41        28.16886
289.86        28.20445
290.32        28.05069
290.77        27.77162
291.22        27.50701
291.68        27.46968
292.13        27.71847
292.59        28.23388
293.04        28.98983
293.50        29.97629
293.95        31.17069
294.40        32.58779
294.86        34.15643
295.31        35.77198
295.77        37.38639
296.22        38.98093
296.68        40.60556
297.13        42.32573
297.58        44.15261
298.04         46.0274
298.49        47.86152
298.95        49.53733
299.40        51.03234
299.85        52.41016
300.31        53.78911
300.76        55.26301
301.21        56.90263
301.67        58.70513
302.12        60.59411
302.58         62.5991
303.03        64.66415
303.48        66.72833
303.94        68.81123
304.39        71.19964
304.84        73.36542
305.30        75.70123
305.75         77.9285
306.20        79.94276
306.66        81.73473
307.11        83.28212
307.57        84.73165
308.02        86.17113
308.47        87.68096
308.93        89.23788
309.38        90.75993
309.83         92.2001
310.29        93.53726
310.74        94.77309
311.19        95.89399
311.65         96.8611
312.10        97.66415
312.55        98.34288
313.00          99.005
313.46        99.82403
313.91        100.8134
314.36        101.9213
314.82         103.038
315.27        104.0121
315.72         104.767
316.18        105.3506
316.63        105.7664
317.08         106.037
317.53        106.2113
317.99        106.3271
318.44        106.4436
318.89        106.6734
319.35        107.0437
319.80        107.5173
320.25        108.1163
320.70        108.8681
321.16        109.7051
321.61        110.6439
322.06        111.4596
322.51        111.8096
322.97        111.6291
323.42        111.0463
323.87        110.3289
324.32        109.9308
324.78        109.9621
325.23        110.3749
325.68        110.9969
326.13        111.5236
326.59        111.8266
327.04         112.028
327.49         112.211
327.94        112.5622
328.39         113.115
328.85        113.7335
329.30        114.3514
329.75        114.6601
330.20        114.5947
330.66        114.2511
331.11        113.8571
331.56        113.6906
332.01        113.8646
332.46         114.323
332.92        114.9372
333.37          115.64
333.82        116.3103
334.27        116.9675
334.72         117.635
335.17        118.3574
335.63        119.0962
336.08        119.8695
336.53        120.5249
336.98        120.8974
337.43         120.964
337.88        120.7912
338.34        120.5566
338.79         120.562
339.24        120.8826
339.69        121.4605
340.14        122.1459
340.59        122.6699
341.05        122.9653
341.50        123.1243
341.95        123.2614
342.40        123.5761
342.85        124.1105
343.30        124.7607
343.75        125.4471
344.20        126.0528
344.66        126.5455
345.11        126.9774
345.56        127.3037
346.01        127.4437
346.46        127.4159
346.91        127.2396
347.36        127.1245
347.81         127.395
348.26         128.083
348.72        129.0623
349.17        130.0698
349.62        130.5798
350.07        130.4685
350.52        129.9318
350.97        129.2382
351.42        128.7966
351.87        128.7311
352.32        128.9035
352.77        129.2643
353.22         129.739
353.67         130.239
354.13        130.7493
354.58        131.1165
355.03        131.0836
355.48        130.5995
355.93        129.7387
356.38        128.6413
356.83        127.5366
357.28         126.516
357.73        125.5478
358.18         124.651
358.63        123.8401
359.08         123.107
359.53        122.4609
359.98         121.849
360.43        121.1719
360.88        120.4064
361.33        119.5749
361.78        118.7103
362.23        117.8738
362.68         117.086
363.13        116.3271
363.58        115.5983
364.03        114.9004
364.48        114.2257
364.93        113.5746
365.38        112.9267
365.83        112.2508
366.28        111.5437
366.73        110.8146
367.18        110.0809
367.63        109.3703
368.08        108.6827
368.53         108.003
368.98        107.3267
369.43        106.6416
369.88        105.9579
370.33        105.3118
370.78        104.6829
371.23          104.04
371.68        103.3802
372.13        102.6784
372.58        102.0491
373.03        101.6782
373.48        101.5605
373.93        101.6215
374.38        101.5779
374.83        100.9753
375.28        99.76518
375.72        98.12045
376.17        96.47527
376.62        95.28954
377.07        94.66542
377.52        94.43717
377.97         94.4453
378.42        94.42704
378.87        94.27264
379.32         94.0575
379.77        93.75592
380.22        93.32315
380.67        92.75456
381.11        92.02843
381.56        91.22851
382.01         90.5364
382.46        90.01588
382.91        89.66026
383.36        89.35371
383.81        88.89855
384.26        88.26104
384.71        87.49726
385.15        86.77267
385.60        86.40383
386.05        86.40643
386.50        86.66697
386.95        86.92953
387.40        86.80473
387.85        86.23481
388.29        85.32694
388.74        84.43195
389.19        83.80655
389.64        83.50471
390.09        83.40184
390.54         83.3945
390.98        83.30425
391.43        83.11108
391.88        82.86431
392.33        82.54002
392.78        82.16918
393.23        81.78242
393.67        81.20931
394.12        80.58197
394.57        80.60841
395.02         80.1441
395.47        80.14137
395.91        80.20582
396.36         80.1926
396.81        80.06532
397.26        79.87826
397.71         79.6651
398.15        79.36826
398.60        79.09107
399.05        78.89008
399.50        78.70963
399.95        78.39848
400.39        77.77566
400.84        77.74197
401.29        78.11439
401.74        78.36452
402.18        78.28635
402.63        77.63422
403.08        76.69368
403.53        76.31667
403.97        76.56866
404.42        76.89693
404.87        77.13927
405.32        77.30161
405.76        77.22308
406.21        76.89587
406.66        76.37184
407.11        75.53992
407.55        74.74127
408.00         74.7931
408.45        75.59092
408.90        76.25344
409.34        76.48795
409.79         76.2268
410.24        75.70355
410.68        75.62028
411.13        76.03783
411.58        76.48584
412.03        76.78722
412.47        76.88323
412.92        76.68815
413.37        76.27328
413.81        75.72618
414.26         75.2597
414.71        74.90005
415.15         74.6121
415.60        74.41612
416.05        74.39362
416.49        74.55066
416.94        74.87254
417.39        75.21809
417.83        75.33315
418.28        75.17519
418.73        74.81041
419.17        74.42323
419.62        74.33192
420.07        74.57709
420.51        75.02343
420.96        75.51749
421.41        75.71386
421.85        75.51186
422.30        75.28242
422.74        75.02573
423.19        74.44852
423.64        73.75795
424.08        73.84454
424.53        74.57759
424.98        74.94385
425.42        74.83318
425.87        74.90892
426.31        75.15569
426.76        74.98748
427.21        74.39211
427.65        74.49099
428.10         75.0556
428.54        75.04779
428.99        74.50443
429.44        73.92367
429.88        73.53742
430.33        73.67963
430.77        74.18016
431.22        74.79641
431.66        75.30222
432.11        75.13428
432.56        74.43804
433.00        74.16425
433.45        74.53242
433.89        75.02378
434.34        75.07251
434.78         76.4817
435.23        74.54241
435.67        73.90211
436.12        73.50044
436.57        73.69077
437.01        74.32867
437.46        74.69646
437.90        74.77068
438.35        75.07522
438.79        75.56281
439.24        75.78826
439.68        75.74567
440.13        75.71075
440.57        75.75797
441.02        75.79005
441.46        75.77327
441.91        76.05959
442.35        76.21027
442.80        76.06256
443.24        76.41092
443.69        76.07375
444.13        75.48671
444.58         75.2036
445.02        75.20773
445.47        75.32375
445.91         75.4707
446.36        75.44766
446.80        75.16154
447.24        75.57304
447.69        75.13414
448.13        75.15656
448.58        75.20354
449.02        75.27267
449.47        75.37426
449.91        75.51522
450.36        75.71456
450.80        75.93639
451.25        76.15013
451.69        76.26665
452.13        76.27407
452.58           76.22
453.02        76.14533
453.47        76.09959
453.91        76.07391
454.36        76.25329
454.80        76.24078
455.24        76.26157
455.69        76.19978
456.13        76.15285
456.58        76.11345
457.02        75.80074
457.46        75.36229
457.91        75.22523
458.35        75.33274
458.79        75.36215
459.24        75.34277
459.68        75.38412
460.13        75.46392
460.57        75.63835
461.01         75.8328
461.46        75.49506
461.90        75.37685
462.34        75.63224
462.79        75.66249
463.23        75.26951
463.68        74.42887
464.12        74.16432
464.56        74.40852
465.01        74.34337
465.45        73.98547
465.89        73.90961
466.34         74.0593
466.78        74.67946
467.22        74.53117
467.67        74.53835
468.11        74.36457
468.55        74.00444
468.99        73.56969
469.44        73.24493
469.88         73.0915
470.32        73.08074
470.77        73.14022
471.21        73.15982
471.65        73.09344
472.10        72.99536
472.54        72.90824
472.98        72.92539
473.42        73.04861
473.87        73.27181
474.31        73.48624
474.75        73.46129
475.20        73.22132
475.64        73.08848
476.08        73.12707
476.52        72.89238
476.97         72.3373
477.41         72.5382
477.85        72.47368
478.29        71.67617
478.74        72.83237
479.18        72.67672
479.62        72.24102
480.06        72.05936
480.50        72.16331
480.95        72.47935
481.39        72.75252
481.83        72.27415
482.27        72.88325
482.72        72.72375
483.16        72.79333
483.60        72.80927
484.04        72.95097
484.48        73.18025
484.93         73.2005
485.37        72.94901
485.81        72.14716
486.25        70.56767
486.69        72.03487
487.14        72.02538
487.58         71.4614
488.02        71.79426
488.46        72.47895
488.90         72.5349
489.34        71.89303
489.79        72.68119
490.23         71.9754
490.67        72.09941
491.11        72.12026
491.55        71.86967
491.99        71.42283
492.43        71.23354
492.88        71.35126
493.32        71.53014
493.76        71.71679
494.20        71.91515
494.64        72.06601
495.08        72.27882
495.52        72.49945
495.96         72.2974
496.41        71.74587
496.85        72.01966
497.29        71.81245
497.73        71.99022
498.17        71.40041
498.61        71.22047
499.05        71.24584
499.49        71.36883
499.93        71.49771
500.37        71.40011
500.82        71.14873
501.26        71.03733
501.70        71.24204
502.14        71.39046
502.58        71.47968
503.02        71.54471
503.46        71.57458
503.90        71.55652
504.34        71.51859
504.78        71.52099
505.22         71.5737
505.66        71.63827
506.10         71.6832
506.54        71.73969
506.98        71.81194
507.42        71.76033
507.86        71.50763
508.30        71.73833
508.74        71.14938
509.18        70.82304
509.62        70.49962
510.06        70.41438
510.50         70.5924
510.94        70.98547
511.38        71.43853
511.82        71.65611
512.26        71.57164
512.70        71.25646
513.14        70.84517
513.58        70.64934
514.02        70.75109
514.46        70.82433
514.90        70.91454
515.34        71.39246
515.78        71.08957
516.22        70.99801
516.66        70.84522
517.10         70.7685
517.54        70.78642
517.98        70.87515
518.42        70.97588
518.86        70.96869
519.30        70.83569
519.74        70.62007
520.18        70.40794
520.62        70.32584
521.06        70.40484
521.50        70.61201
521.93         70.8688
522.37        71.02209
522.81        71.04104
523.25        70.95953
523.69        70.86462
524.13         70.8949
524.57        71.07021
525.01        71.33241
525.45        71.57706
525.89        71.63851
526.32        71.47485
526.76        71.17799
527.20        70.83339
527.64        70.58836
528.08        70.48827
528.52        70.44627
528.96        70.45436
529.40        70.59662
529.83        70.79847
530.27        70.85519
530.71        70.76194
531.15        70.70473
531.59        70.69081
532.03        70.60159
532.46        70.45151
532.90        70.35646
533.34        70.32526
533.78        70.33225
534.22        70.36639
534.66        70.40743
535.09        70.43886
535.53        70.48219
535.97        70.51878
536.41        70.53255
536.85         70.5194
537.28        70.47626
537.72        70.41791
538.16        70.36408
538.60        70.31978
539.04        70.28373
539.47        70.23004
539.91        70.17551
540.35          70.104
540.79        70.03163
541.22        69.96752
541.66         69.9369
542.10        69.94163
542.54        69.97929
542.97        70.03687
543.41        70.11501
543.85        70.19627
544.29        70.28995
544.72        70.35436
545.16          70.355
545.60        70.28349
546.04        70.14842
546.47        70.00755
546.91        70.00497
547.35        70.14124
547.79        70.28653
548.22        70.36129
548.66        70.50476
549.10        70.70956
549.53        70.68679
549.97        70.33076
550.41        70.90585
550.84        70.29766
551.28        70.08614
551.72        69.70042
552.15        69.92333
552.59        69.86596
553.03        70.00927
553.46        70.06197
553.90        70.16113
554.34        70.27684
554.77        70.27888
555.21        70.21381
555.65        70.28161
556.08        70.42733
556.52        70.40723
556.96        70.24536
557.39        70.19985
557.83        70.30072
558.27        70.41946
558.70        70.53772
559.14        70.61666
559.57        70.61554
560.01        70.70511
560.45        70.84914
560.88        70.56659
561.32        70.30405
561.75        70.27599
562.19        70.51779
562.63        70.38078
563.06         69.9213
563.50        69.76073
563.93        69.90442
564.37         69.9284
564.80        70.09343
565.24        70.05986
565.68        69.94356
566.11        69.95161
566.55        70.08753
566.98        70.08822
567.42        70.03695
567.85        70.01851
568.29        70.02585
568.72        70.23816
569.16        70.75339
569.60         70.0766
570.03        70.33745
570.47        70.57533
570.90        70.54287
571.34        70.06789
571.77        70.46787
572.21        70.55456
572.64        70.70229
573.08        70.56607
573.51        70.21789
573.95        70.15932
574.38        70.76833
574.82         70.1284
575.25        70.46468
575.69        70.28526
576.12        69.76432
576.56        70.07366
576.99        69.65347
577.42        70.06342
577.86         69.7392
578.29        69.63264
578.73        70.62188
579.16        69.88988
579.60        70.19565
580.03         70.2016
580.47        70.44525
580.90        70.44403
581.33        69.94277
581.77        69.72392
582.20        69.87942
582.64        70.35339
583.07        69.76606
583.51        69.54138
583.94        69.48844
584.37         69.3577
584.81        69.40685
585.24        69.33283
585.68        70.00932
586.11        70.55768
586.54        69.94049
586.98        69.53222
587.41        70.40547
587.85        70.69451
588.28         70.3437
588.71        70.39678
589.15        70.19526
589.58        70.23273
590.01        69.92161
590.45        69.89008
590.88        70.06696
591.31        70.33328
591.75        70.43158
592.18        70.36202
592.61         70.4125
593.05        69.25359
593.48        70.10796
593.91        70.99982
594.35        69.53247
594.78        69.36087
595.21         69.5291
595.65        69.78109
596.08        69.49567
596.51        69.80691
596.94        70.27851
597.38        70.46609
597.81        70.14339
598.24        70.46281
598.68        70.03737
599.11        69.60737
599.54         70.2601
599.97        70.74105
600.41         69.1348
600.84        69.66734
601.27        69.63418
601.70        69.89572
602.14        70.42701
602.57        70.04922
603.00        69.19224
603.43        69.07063
603.87        69.50156
604.30        69.87931
604.73         69.6011
605.16        69.61275
605.60        69.73239
606.03        69.83997
606.46         69.8318
606.89        69.91634
607.32        69.71248
607.76        69.71395
608.19        69.85484
608.62        69.84714
609.05        70.04094
609.48        70.13405
609.92        70.02183
610.35        70.19749
610.78        69.99738
611.21        69.41898
611.64        69.84444
612.07        69.86598
612.50         69.9054
612.94        69.99351
613.37        70.17716
613.80        70.06902
614.23        70.22615
614.66        70.19386
615.09        70.12406
615.52        70.13017
615.96        70.19016
616.39        69.96295
616.82        69.48065
617.25        69.77299
617.68        69.53776
618.11        69.82499
618.54        70.11315
618.97        70.06966
619.40        69.73964
619.84        69.61292
620.27        69.79444
620.70        69.91001
621.13        69.87215
621.56        69.83241
621.99         70.0565
622.42        69.25852
622.85        69.89241
623.28        69.73161
623.71        70.17124
624.14        69.56285
624.57        69.82427
625.00        69.77753
625.43        69.88535
625.86        69.80853
626.29        69.54507
626.72        69.69294
627.15        69.51031
627.58        69.59972
628.01        69.69373
628.44        69.58161
628.87         69.3457
629.30         69.4197
629.73        69.87145
630.16        70.08075
630.59        70.03259
631.02        70.17624
631.45        70.19872
631.88        70.22807
632.31        70.16781
632.74        70.06118
633.17        69.92448
633.60        69.79265
634.03        69.68331
634.46        69.59317
634.89        69.52686
635.32        69.47301
635.75        69.44139
636.18        69.47676
636.61        69.56017
637.04        69.62124
637.47         69.6635
637.89        69.67927
638.32        69.62206
638.75        69.61431
639.18        69.69379
639.61        69.15345
640.04        69.29372
640.47        69.19163
640.90        69.23859
641.33        69.39208
641.76        69.59612
642.18        69.73418
642.61        69.73567
643.04        69.64255
643.47         69.5344
643.90        69.51459
644.33         69.5919
644.76        69.84372
645.18        70.14481
645.61        70.02375
646.04        69.37913
646.47        69.38702
646.90        69.46732
647.33        69.49236
647.75        69.28277
648.18        69.19943
648.61        69.26148
649.04        69.30618
649.47        69.33442
649.89        69.51272
650.32        69.72906
650.75        69.65306
651.18        69.39387
651.61        69.36174
652.03        69.62036
652.46        70.11058
652.89        70.49672
653.32        70.47191
653.74        69.76997
654.17        69.22945
654.60        68.88171
655.03        70.84138
655.46        68.48592
655.88        69.71639
656.31        70.00971
656.74        70.73729
657.16        71.19723
657.59        69.94589
658.02         68.8101
658.45        70.12819
658.87        70.02437
659.30        70.10507
659.73        70.42002
660.15        70.68613
660.58        70.19674
661.01        69.93034
661.44        69.70886
661.86         69.4436
662.29        69.19225
662.72         69.3314
663.14        69.73811
663.57        69.58282
664.00        69.00844
664.42        68.87128
664.85         69.2255
665.27        69.55894
665.70         69.7584
666.13        69.91454
666.55        69.99886
666.98        69.96827
667.41        69.86747
667.83        69.77275
668.26        69.70169
668.69        69.64486
669.11        69.59538
669.54        69.54593
669.96        69.49525
670.39        69.45286
670.82        69.41485
671.24         69.3822
671.67        69.34324
672.09         69.2939
672.52         69.2711
672.94         69.3939
673.37        69.12855
673.80        69.68726
674.22        69.49576
674.65        69.68053
675.07        69.82317
675.50        69.94701
675.92        70.03261
676.35        70.04298
676.77        69.99419
677.20        69.87616
677.62        69.74508
678.05        69.69231
678.47        69.72974
678.90        69.83617
679.32        69.94174
679.75        69.94379
680.17        69.81659
680.60        69.60931
681.02        69.38042
681.45        69.22977
681.87        69.18916
682.30        69.20586
682.72         69.2783
683.15        69.35889
683.57        69.45638
684.00        69.59306
684.42         69.7265
684.85        69.83353
685.27        69.91011
685.70        69.80589
686.12        69.64302
686.54         70.0286
686.97        70.79266
687.39        71.08079
687.82        70.81316
688.24        70.67051
688.66        70.66273
689.09        70.36834
689.51        69.89352
689.94        69.63094
690.36        69.62703
690.78        69.77396
691.21        69.99641
691.63        70.17233
692.06        70.25475
692.48        70.29777
692.90        70.30096
693.33        70.25007
693.75        70.15849
694.17        70.01723
694.60        69.88265
695.02        69.84105
695.44        69.89887
695.87        70.11765
696.29        70.41339
696.71        70.38958
697.14        70.11738
697.56         70.1326
697.98        70.41238
698.41        70.45787
698.83        70.27689
699.25        70.26494
699.68        70.38842
700.10        70.40532
700.52         70.2886
700.94        70.16653
701.37        70.05971
701.79        69.97873
702.21        69.92831
702.64        69.91314
703.06        69.93414
703.48        70.00696
703.90        70.12731
704.33        70.29375
704.75        70.44438
705.17        70.55086
705.59        70.57969
706.01        70.54877
706.44        70.48282
706.86        70.44223
707.28        70.44584
707.70        70.44189
708.12        70.45261
708.55        70.59475
708.97        70.81961
709.39        70.88741
709.81        70.82405
710.23         70.9031
710.66        71.12849
711.08        71.35365
711.50        71.50993
711.92        71.59667
712.34        71.60086
712.76        71.52478
713.19        71.38972
713.61        71.28178
714.03        71.21085
714.45        71.17477
714.87        71.17257
715.29        71.19478
715.71         71.2342
716.13           71.29
716.56        71.34353
716.98        71.44993
717.40        71.57256
717.82        71.69801
718.24        71.78683
718.66        71.77496
719.08        71.65501
719.50        71.47322
719.92        71.28227
720.34        71.11243
720.76        71.01419
721.19        71.07924
721.61        71.26122
722.03        71.34313
722.45        71.28949
722.87        71.19733
723.29        71.10028
723.71        71.01644
724.13        70.96539
724.55        70.94716
724.97        70.94704
725.39        70.94141
725.81        70.93048
726.23        70.92541
726.65        70.95759
727.07        71.07861
727.49        71.28413
727.91        71.53181
728.33        71.77129
728.75        71.92197
729.17        71.95567
729.59        71.90784
730.01         71.7656
730.43        71.51191
730.85        71.17967
731.27        70.79559
731.69        70.48671
732.10        70.44742
732.52        70.70886
732.94         71.2175
733.36        71.81946
733.78         72.2411
734.20        72.38544
734.62        72.28582
735.04        72.07592
735.46         72.0263
735.88        72.17004
736.30        72.33212
736.72        72.42129
737.13        72.42397
737.55        72.28857
737.97        71.98995
738.39        71.65351
738.81        71.56169
739.23        71.71906
739.65        71.90566
740.06         72.0084
740.48        72.05444
740.90        72.00279
741.32        71.81616
741.74        71.57289
742.16        71.47634
742.57        71.57968
742.99        71.72537
743.41         71.8801
743.83        72.14859
744.25        72.42482
744.67        72.34927
745.08        71.99863
745.50         71.8337
745.92        71.91245
746.34        71.97077
746.75        72.00151
747.17        72.10418
747.59         72.2656
748.01        72.47053
748.42        72.66561
748.84        72.71013
749.26        72.60429
749.68        72.42884
750.09        72.23926
750.51        72.11736
750.93         72.0791
751.35        72.12521
751.76         72.2141
752.18        72.25403
752.60        72.22332
753.01        72.15987
753.43        72.08307
753.85        72.05294
754.27        72.09879
754.68         72.2306
755.10        72.39272
755.52        72.50121
755.93        72.51219
756.35        72.41527
756.77        72.35473
757.18        72.46098
757.60        72.74807
758.02         73.4692
758.43        74.25417
758.85        73.87047
759.26        72.58244
759.68           71.98
760.10        72.34364
760.51        72.57237
760.93        72.60954
761.34        72.92897
761.76        73.35204
762.18        73.30401
762.59        72.84119
763.01        72.39622
763.42        72.09471
763.84        71.85036
764.26        71.74935
764.67        71.63998
765.09        71.64338
765.50        72.38177
765.92        73.56428
766.33        73.84175
766.75        73.14733
767.16        72.90313
767.58        73.16338
768.00        72.96619
768.41        72.40006
768.83        72.36061
769.24         72.7188
769.66        72.60373
770.07        72.10313
770.49        71.95628
770.90        72.23376
771.32        72.70994
771.73        73.20256
772.15        73.41409
772.56        73.30929
772.97         73.0921
773.39        72.36137
773.80        72.85792
774.22        72.76256
774.63        73.32959
775.05        73.82082
775.46        74.06647
775.88        73.95065
776.29         73.5799
776.70        73.12045
777.12        72.83406
777.53        72.80862
777.95        72.94179
778.36        73.17366
778.77        73.37864
779.19        73.50748
779.60        73.69118
780.02        73.86999
780.43        73.90411
780.84        73.84555
781.26        73.83506
781.67        73.93607
782.09        74.31008
782.50        74.80145
782.91        74.79966
783.33        74.32047
783.74         74.0083
784.15        73.90442
784.57        73.63007
784.98        73.26307
785.39        73.12772
785.81        73.26225
786.22        73.57045
786.63        73.97664
787.04        74.35706
787.46        74.66087
787.87        74.89069
788.28        75.06189
788.70        75.19049
789.11         75.2795
789.52        75.34809
789.93        75.36234
790.35        75.26691
790.76        75.07078
791.17        74.79189
791.58        74.57109
792.00        74.52638
792.41        74.68668
792.82        75.24154
793.23        75.96147
793.65        75.83801
794.06        75.09586
794.47        75.21548
794.88        76.03529
795.29         76.1881
795.71        75.61106
796.12        75.10728
796.53        74.87032
796.94        74.87321
797.35        75.17512
797.76        75.78403
798.18        76.46063
798.59        76.85789
799.00        76.85909
799.41        76.55218
799.82         76.0996
800.23        75.79626
800.64        75.73758
801.06         75.8107
801.47        75.97895
801.88        76.10089
802.29        76.12502
802.70        76.09222
803.11        76.03766
803.52        76.00763
803.93        76.02954
804.34        76.08974
804.75        76.13901
805.17        76.16776
805.58        76.21051
805.99        76.05566
806.40         75.8211
806.81        76.19611
807.22        76.96864
807.63        76.93096
808.04        76.19267
808.45        76.00002
808.86        76.44509
809.27        76.82569
809.68        76.98625
810.09        77.01405
810.50        76.87091
810.91        76.53254
811.32        76.17313
811.73        76.07325
812.14        76.29205
812.55        76.76193
812.96        77.29237
813.37        77.52242
813.78        77.35526
814.19        76.92366
814.60        76.41326
815.01        76.08118
815.42        75.99445
815.83        76.07165
816.24        76.25201
816.65        76.42086
817.05        76.52094
817.46        76.55318
817.87        76.54755
818.28        76.48298
818.69        76.37003
819.10        76.21571
819.51        76.05334
819.92        75.95876
820.33        75.95827
820.74        76.02081
821.14        76.15885
821.55        76.39697
821.96         76.7126
822.37        77.10392
822.78        77.44692
823.19        77.51952
823.60        77.27113
824.00        76.76549
824.41        76.18761
824.82        75.86324
825.23        75.87138
825.64        76.14097
826.04        76.52911
826.45        76.69017
826.86        76.55847
827.27        76.23428
827.68        75.88137
828.08        75.77679
828.49        75.94748
828.90        76.34636
829.31        76.84859
829.72        77.24594
830.12        77.49442
830.53        77.55595
830.94        77.58209
831.35        77.78078
831.75        78.20838
832.16         78.7164
832.57        79.11395
832.97        79.04789
833.38        78.46974
833.79        77.57806
834.20        76.62749
834.60        75.95784
835.01        75.69681
835.42        75.71906
835.82         76.0157
836.23        76.48996
836.64        77.08934
837.04        77.86093
837.45        78.53586
837.86        78.83236
838.26        78.67823
838.67         78.1369
839.08        77.44719
839.48        76.97948
839.89        76.88088
840.29        77.06125
840.70        77.38406
841.11        77.63274
841.51        77.76248
841.92        77.79576
842.33        77.84518
842.73        78.07662
843.14        78.45827
843.54        78.94772
843.95        79.38209
844.35        79.57955
844.76        79.47272
845.17        79.11492
845.57        78.65885
845.98        78.31747
846.38         78.1788
846.79        78.18529
847.19        78.21499
847.60        78.00339
848.00           77.53
848.41        76.91137
848.81        76.36416
849.22        76.19682
849.62        76.50325
850.03        77.12406
850.43        77.93227
850.84        78.49276
851.24        78.72523
851.65        78.63737
852.05        78.36105
852.46        78.06277
852.86        77.80312
853.27        77.61572
853.67        77.38787
854.07        77.16077
854.48         76.8839
854.88        76.59814
855.29        76.30988
855.69        76.25834
856.10        76.38276
856.50        76.70865
856.90        77.01004
857.31        76.99695
857.71        76.66178
858.12        76.05962
858.52         75.4006
858.92        74.97934
859.33        74.87562
859.73        75.05904
860.13        75.41405
860.54        75.75878
860.94        76.07205
861.34        76.31898
861.75        76.46604
862.15        76.51609
862.55         76.4285
862.96        76.21978
863.36        75.83263
863.76        75.21108
864.17        74.42269
864.57        73.55905
864.97        72.81229
865.38        72.41436
865.78        72.44255
866.18        72.79638
866.58        73.41207
866.99        74.10604
867.39        74.79967
867.79         75.4724
868.19        75.91396
868.60        75.82825
869.00         75.2132
869.40        74.14919
869.80        73.06982
870.21        72.72661
870.61        73.33559
871.01        74.62817
871.41        76.08005
871.81        76.84647
872.22        76.69582
872.62        75.87951
873.02        74.75596
873.42        73.92944
873.82        73.62336
874.22        73.69725
874.63        73.94687
875.03        74.06629
875.43        73.97343
875.83        73.75704
876.23        73.66393
876.63        74.07411
877.03         75.0175
877.44        76.28941
877.84         77.4772
878.24        77.82664
878.64        77.21463
879.04           75.95
879.44        74.53515
879.84        73.70314
880.24        73.62428
880.64        74.04902
881.04        74.78755
881.44        75.51283
881.84        76.07942
882.24        76.61597
882.65        76.94467
883.05        76.90223
883.45        76.43982
883.85        75.62315
884.25        74.83046
884.65        74.66371
885.05        75.21106
885.45        76.25834
885.85        77.45313
886.25        78.16786
886.65        78.18909
887.05        77.73492
887.45        76.88869
887.85        75.82153
888.25        74.72815
888.65        73.62714
889.04        72.78139
889.44        72.62128
889.84         73.1296
890.24         74.2356
890.64        75.60542
891.04        76.49297
891.44        76.61654
891.84        76.17533
892.24        75.51799
892.64        75.15427
893.04        75.19468
893.44        75.46249
893.83        75.86173
894.23        76.14685
894.63         76.2702
895.03        76.35661
895.43        76.39522
895.83        76.34635
896.23        76.22313
896.63        75.98394
897.02        75.78543
897.42        75.96532
897.82        76.53164
898.22        77.40061
898.62        78.19707
899.01        78.30464
899.41        77.60075
899.81        76.31648
900.21         74.9242
900.61        74.14992
901.00        74.16637
901.40        74.75671
901.80        75.57214
902.20        76.03008
902.59        75.94658
902.99        75.50199
903.39        74.91395
903.79        74.49165
904.18        74.33258
904.58        74.36921
904.98         74.4683
905.38        74.46304
905.77         74.2899
906.17        73.98898
906.57         73.7439
906.96        73.86165
907.36         74.3523
907.76        75.16267
908.15         75.9136
908.55        75.84915
908.95        74.91935
909.34        73.37234
909.74        71.93391
910.14        71.58252
910.53        72.54876
910.93        74.46708
911.33        76.78656
911.72        78.63085
912.12        79.60263
912.52        79.91927
912.91        79.82163
913.31         79.7277
913.70        79.78586
914.10         79.8033
914.49        79.59896
914.89        78.90875
915.29        77.75659
915.68        76.35862
916.08        75.05945
916.47        74.21189
916.87        73.97063
917.26        74.17989
917.66        74.73869
918.05        75.49784
918.45         76.2896
918.84        77.17313
919.24        77.89307
919.64        78.18167
920.03        77.98872
920.42        77.35049
920.82          76.559
921.21        75.98624
921.61         75.7597
922.00        75.82298
922.40        76.04932
922.79        76.29181
923.19        76.45078
923.58        76.59162
923.98        76.74046
924.37        76.94163
924.77        77.18684
925.16        77.44153
925.55        77.62322
925.95        77.61893
926.34        77.43829
926.74         77.1192
927.13        76.77282
927.52         76.5393
927.92        76.46806
928.31        76.49605
928.70         76.5929
929.10        76.68979
929.49        76.74756
929.89        76.74828
930.28        76.66347
930.67        76.36521
931.07        75.86157
931.46        75.24551
931.85        74.61796
932.24        74.12719
932.64        73.83673
933.03        73.73096
933.42        73.84924
933.82        74.22279
934.21        74.83563
934.60          75.591
934.99        76.38129
935.39        77.01857
935.78        77.47562
936.17        77.74569
936.56        77.67371
936.96        77.08223
937.35        76.04587
937.74         74.7282
938.13        73.55041
938.53        73.02239
938.92        73.18611
939.31        73.94315
939.70         75.0078
940.09        75.79417
940.49        76.05084
940.88        75.91393
941.27        75.56443
941.66        75.31567
942.05        75.27136
942.44        75.37455
942.84        75.44013
943.23        75.26727
943.62        74.78204
944.01        74.05996
944.40        73.50874
944.79        73.70659
945.18        74.71662
945.57          76.384
945.97        77.97796
946.36        78.47388
946.75         77.5241
947.14        75.49133
947.53        73.28315
947.92        72.27376
948.31        72.79913
948.70        74.51325
949.09        76.66059
949.48        77.84396
949.87        77.61677
950.26        76.39962
950.65        74.95951
951.04        74.37151
951.43        74.87421
951.82        76.15891
952.21        77.57187
952.60        77.96195
952.99        77.02731
953.38        75.19145
953.77        73.32079
954.16        72.52452
954.55        73.02486
954.94        74.61827
955.33        76.53383
955.72        77.13801
956.11        75.91682
956.50        73.42394
956.89        70.96004
957.28        70.22423
957.66        71.55009
958.05        74.40631
958.44        77.66801
958.83        79.06003
959.22        77.89407
959.61        75.03063
960.00        71.86629
960.39        70.16001
960.78        70.24094
961.16        71.61957
961.55        73.55627
961.94        74.64387
962.33        74.35065
962.72        73.24805
963.11         71.9203
963.49        71.12795
963.88        71.07521
964.27        71.45384
964.66        72.14507
965.04        73.04529
965.43        73.92876
965.82        74.85359
966.21         75.6314
966.60        75.88065
966.98        75.56543
967.37        74.88547
967.76        74.01758
968.15        73.19968
968.53        72.50607
968.92         71.7913
969.31        71.39887
969.69        71.96986
970.08        73.53609
970.47        76.05293
970.86        78.48547
971.24        79.04552
971.63        77.36432
972.02        74.07438
972.40        70.68404
972.79        69.51561
973.17         70.9818
973.56        74.25014
973.95        78.14537
974.33        80.44223
974.72        80.31646
975.11        78.53739
975.49        76.02206
975.88        74.46999
976.26        74.35008
976.65        75.05122
977.04        76.20899
977.42         77.1959
977.81        77.57131
978.19        77.69536
978.58         77.5681
978.96        77.02714
979.35        76.18027
979.74        75.06342
980.12        74.05446
980.51        73.79363
980.89        74.50684
981.28        75.86098
981.66        77.70293
982.05        79.44896
982.43        80.93993
982.82        82.19792
983.20        82.89913
983.59        82.41148
983.97        80.76868
984.35         78.2366
984.74        75.76328
985.12         74.6367
985.51        75.04605
985.89        76.74392
986.28        78.85288
986.66        80.23061
987.04         80.3192
987.43        79.48739
987.81        78.15382
988.20        77.33016
988.58        77.25063
988.96        77.64639
989.35        77.87721
989.73        77.20059
990.12        75.43131
990.50        72.99672
990.88        70.56277
991.27        69.15494
991.65        69.00846
992.03        69.88651
992.42        71.35664
992.80        73.04937
993.18        74.67558
993.56        76.30985
993.95        77.81137
994.33        79.08002
994.71        79.91019
995.10        80.29726
995.48        80.22717
995.86        79.83196
996.24        79.21352
996.63        78.27942
997.01        77.42809
997.39        77.14252
997.77        77.53544
998.15        78.53373
998.54        79.57156
998.92        79.75001
999.30        78.85783
999.68        77.10976
1000.06        75.18816
1000.45        74.36146
1000.83        75.07138
1001.21        76.90909
1001.59        79.11922
1001.97        80.45477
1002.35        80.54865
1002.73        79.80422
1003.12        78.64484
1003.50        77.64738
1003.88        77.08803
1004.26        76.78754
1004.64        76.77525
1005.02        77.11858
1005.40        77.76049
1005.78         78.6763
1006.16        79.69373
1006.54        80.56789
1006.92        81.24863
1007.30        81.76095
1007.69        82.08022
1008.07        82.33495
1008.45        82.48808
1008.83        82.51405
1009.21        82.39163
1009.59        82.12707
1009.97        81.71888
1010.35        81.11665
1010.73        80.47835
1011.11        80.04787
1011.49        79.84494
1011.86        79.90659
1012.24        79.67906
1012.62         78.4724
1013.00        76.17423
1013.38        72.96319
1013.76        69.59858
1014.14         67.7428
1014.52        68.04462
1014.90         70.0601
1015.28          72.877
1015.66        75.02018
1016.04        76.03198
1016.41        76.41998
1016.79        76.13268
1017.17        75.27621
1017.55        74.25586
1017.93        73.15518
1018.31        72.61589
1018.69        73.41875
1019.06        75.78785
1019.44        79.82022
1019.82        85.31767
1020.20        89.60853
1020.58        90.35741
1020.95        87.96894
1021.33        84.33819
1021.71        81.37029
1022.09        79.20452
1022.46        77.05044
1022.84        74.92093
1023.22        72.78228
1023.60        71.22737
1023.97        70.81842
1024.35        71.28728
1024.73        72.09148
