SpectraSmart Spectrum 2.9.0.0
--------- Device Information -----------
Spectrum Name :  反射率_0
Saving Time :  2024/04/30 00:35:01
Spectro-Module Model Name : SE2030-DUVN
Spectro-Module Serial Number : OS361AC55029948
Wavelength Start : 200
Wavelength End : 1025
Wavelength Unit : Wavelength(nm)
Spectrum Unit : Reflectance(%)
-----------Spectrum Setting ------------
Integration Time : 20ms
Average : 10
Boxcar : 0
Background removal :  enabled
linearity correction :  enabled
SC :  disabled
Intensity correction :  disabled
DWT denoise :  enabled
savitzky-golay :  disabled
FFT :  disabled
Running average :  disabled
Kalman :  disabled
High pass :  disabled
---------------BEGIN--------------------
Wavelength(nm)             Reflectance(%)
200.29               0
200.75         87.2313
201.21        71.03993
201.67         53.6351
202.13        41.11161
202.58        36.44082
203.04        39.03619
203.50        47.71408
203.96        58.83394
204.42        69.41784
204.88         79.0136
205.34        85.43385
205.80        86.48862
206.26        83.20472
206.72        77.67139
207.18        71.44733
207.64        64.97378
208.10        57.90021
208.55        49.70601
209.01        41.43787
209.47        37.23029
209.93        38.28642
210.39        42.86889
210.85        47.46344
211.31        48.94575
211.77         47.0242
212.23        41.59257
212.69        34.49623
213.14        34.28526
213.60        43.12259
214.06         55.2622
214.52        64.46751
214.98        67.21909
215.44        64.65132
215.90        58.50469
216.36         51.1106
216.81         46.9954
217.27        48.56994
217.73        55.40361
218.19        67.38153
218.65        79.04939
219.11        84.53802
219.57        84.53392
220.02        81.60369
220.48        78.64596
220.94        75.42829
221.40        70.49321
221.86        63.30938
222.32        56.25653
222.77        52.09721
223.23        51.16285
223.69        50.97786
224.15        49.29572
224.61        45.86942
225.06        40.98101
225.52        36.22094
225.98        35.12801
226.44        38.13897
226.90        42.82365
227.36        46.87232
227.81        48.91533
228.27        49.22998
228.73        48.27995
229.19        46.86982
229.65        46.53846
230.10        47.49923
230.56        49.05291
231.02        50.08651
231.48         49.6163
231.93        47.62983
232.39        44.55288
232.85        41.28476
233.31        39.59129
233.77        40.04713
234.22        42.34643
234.68        45.20608
235.14        46.21924
235.60        44.84406
236.05        41.96663
236.51        39.32755
236.97        39.23915
237.43        42.35308
237.88        48.59599
238.34        57.25378
238.80        65.08451
239.26        69.08668
239.71        69.56255
240.17        67.60493
240.63        65.55238
241.08        64.25465
241.54        62.65964
242.00        61.38105
242.46        63.28798
242.91        70.73216
243.37         82.4195
243.83        93.86098
244.28        101.9704
244.74        107.0938
245.20        108.9725
245.66        108.4214
246.11        107.8626
246.57        108.3277
247.03        110.6879
247.48         111.332
247.94        103.5711
248.40        90.80261
248.85        78.32095
249.31         71.3757
249.77        71.80022
250.22        79.42838
250.68        96.03518
251.14        121.2417
251.59        134.7745
252.05        123.0116
252.51         102.086
252.96        86.22388
253.42        80.19667
253.88        80.84187
254.33        85.28976
254.79         91.1722
255.25        93.14346
255.70        90.31741
256.16        86.32582
256.62        83.10256
257.07        81.68098
257.53        82.03316
257.99        83.01758
258.44        83.30976
258.90        82.11253
259.35        79.29707
259.81        76.29234
260.27        73.65757
260.72        71.80392
261.18        70.80605
261.63          69.987
262.09        69.20338
262.55        67.92241
263.00        66.11396
263.46        64.28905
263.91        62.43896
264.37        60.88686
264.83        59.53915
265.28        58.24217
265.74        57.14973
266.19        56.25943
266.65        55.63661
267.11        55.19343
267.56        54.76878
268.02        54.14511
268.47        53.22302
268.93        52.05859
269.38        50.71482
269.84        49.44321
270.30        48.33086
270.75        47.34571
271.21         46.4213
271.66        45.38772
272.12        44.21934
272.57        42.94447
273.03        41.72268
273.48        40.70877
273.94        40.00204
274.39        39.49411
274.85         39.0843
275.31        38.54057
275.76        37.80142
276.22        36.97032
276.67         36.1408
277.13        35.55935
277.58        35.19835
278.04        35.01363
278.49        34.79967
278.95        34.37729
279.40        33.67472
279.86        32.84969
280.31        32.00221
280.77        31.40863
281.22        31.07204
281.68        30.93059
282.13         30.8704
282.59        30.79304
283.04        30.63883
283.50        30.45911
283.95        30.22648
284.41        29.91715
284.86        29.53838
285.32        29.14746
285.77        28.78861
286.22        28.60678
286.68        28.63206
287.13        28.78004
287.59        29.02031
288.04        29.23743
288.50        29.40742
288.95        29.51641
289.41        29.57656
289.86        29.56149
290.32        29.51026
290.77        29.44081
291.22        29.38914
291.68        29.40082
292.13        29.50378
292.59        29.74623
293.04        30.20179
293.50        31.00897
293.95        32.17535
294.40        33.65902
294.86        35.33669
295.31        37.02117
295.77        38.63736
296.22        40.20395
296.68        41.76724
297.13        43.38273
297.58        45.07404
298.04        46.78219
298.49        48.48177
298.95        50.15644
299.40        51.79404
299.85        53.42467
300.31        55.07264
300.76        56.68532
301.21        58.30325
301.67        59.96667
302.12        61.68268
302.58        63.61041
303.03        65.71949
303.48        67.90746
303.94        70.12541
304.39        72.54088
304.84          74.631
305.30        76.81423
305.75        78.87802
306.20        80.80671
306.66        82.60977
307.11        84.22449
307.57        85.75975
308.02        87.24912
308.47        88.75665
308.93        90.28011
309.38        91.73825
309.83        93.08479
310.29        94.30807
310.74        95.41043
311.19        96.40669
311.65        97.30345
312.10        98.09694
312.55         98.8149
313.00        99.53444
313.46        100.3758
313.91        101.3424
314.36        102.4047
314.82        103.4715
315.27        104.4232
315.72        105.1914
316.18        105.8011
316.63        106.2649
317.08         106.624
317.53        106.9175
317.99        107.1754
318.44        107.3955
318.89        107.5911
319.35        107.7817
319.80        107.9731
320.25        108.2778
320.70        108.8687
321.16        109.7221
321.61        110.8166
322.06        111.8766
322.51        112.4667
322.97        112.4751
323.42        112.0391
323.87        111.4277
324.32        111.1008
324.78        111.1743
325.23        111.6022
325.68        112.1954
326.13        112.6297
326.59        112.7886
327.04        112.8115
327.49        112.8638
327.94        113.2593
328.39        114.0514
328.85        115.0646
329.30        116.1166
329.75        116.6851
330.20         116.638
330.66        116.1294
331.11        115.4771
331.56        115.1124
332.01        115.2016
332.46        115.6413
332.92        116.2907
333.37        117.0623
333.82        117.8158
334.27        118.5897
334.72        119.3674
335.17        120.1146
335.63        120.7815
336.08        121.4103
336.53        121.9132
336.98        122.2411
337.43        122.4064
337.88        122.4414
338.34        122.4838
338.79        122.7721
339.24        123.3477
339.69        124.1553
340.14        125.0341
340.59        125.6962
341.05        126.0713
341.50        126.2592
341.95        126.3631
342.40        126.5746
342.85        126.9453
343.30        127.3715
343.75        127.8551
344.20        128.4048
344.66        129.0059
345.11        129.6848
345.56        130.2555
346.01        130.4026
346.46        130.1182
346.91        129.5192
347.36             129
347.81        129.1625
348.26        130.0949
348.72        131.5668
349.17        133.1884
349.62        134.2148
350.07        134.4241
350.52        134.0609
350.97        133.4064
351.42        132.8935
351.87        132.6807
352.32        132.6359
352.77        132.7581
353.22        133.0612
353.67        133.4869
354.13        134.0029
354.58        134.4697
355.03        134.6343
355.48        134.4197
355.93        133.8871
356.38        133.0719
356.83        132.0488
357.28         130.892
357.73        129.6193
358.18        128.3819
358.63        127.4069
359.08        126.7372
359.53        126.3214
359.98        126.0047
360.43        125.5215
360.88        124.8015
361.33        123.9203
361.78        122.9739
362.23        122.1205
362.68        121.4059
363.13        120.7703
363.58        120.1709
364.03        119.5478
364.48        118.8746
364.93        118.1721
365.38         117.451
365.83        116.7247
366.28        116.0051
366.73        115.2937
367.18        114.5791
367.63        113.8437
368.08        113.0828
368.53        112.2989
368.98         111.537
369.43        110.8633
369.88        110.2997
370.33        109.8501
370.78        109.4297
371.23        108.9037
371.68        108.2397
372.13        107.4429
372.58        106.6706
373.03        106.1799
373.48        105.9917
373.93        106.0131
374.38        105.9552
374.83        105.3535
375.28        104.1541
375.72        102.5386
376.17        100.9349
376.62        99.78332
377.07        99.18275
377.52        98.96631
377.97        98.98608
378.42        99.00304
378.87        98.90574
379.32        98.75401
379.77        98.50298
380.22        98.07906
380.67        97.47604
381.11         96.6934
381.56        95.81944
382.01        95.04565
382.46        94.44601
382.91        94.00586
383.36        93.65047
383.81        93.24289
384.26        92.74921
384.71         92.2069
385.15        91.68608
385.60        91.35741
386.05        91.21108
386.50        91.17657
386.95        91.12023
387.40        90.84849
387.85        90.34052
388.29        89.63435
388.74        88.96262
389.19        88.40486
389.64        87.98958
390.09        87.65574
390.54        87.39745
390.98        87.21085
391.43        87.11268
391.88        87.03239
392.33        86.87681
392.78        86.66537
393.23         86.3523
393.67        85.65553
394.12        84.77943
394.57          84.588
395.02        83.97607
395.47        84.12312
395.91        84.54499
396.36        84.73023
396.81        84.59395
397.26        84.40246
397.71        84.20478
398.15        83.86642
398.60        83.50063
399.05        83.20323
399.50         82.9446
399.95        82.52734
400.39        81.78502
400.84        81.87627
401.29        82.52963
401.74        82.69994
402.18        82.24256
402.63        81.55026
403.08        80.90373
403.53        80.63181
403.97         80.7844
404.42        81.15961
404.87        81.55278
405.32         81.6432
405.76        81.33437
406.21           80.94
406.66        80.50801
407.11        79.78805
407.55        79.06674
408.00        78.99189
408.45        79.50528
408.90        80.13761
409.34        80.54211
409.79        80.11747
410.24         79.1622
410.68        78.88274
411.13        79.37019
411.58        79.90022
412.03        80.26511
412.47        80.46437
412.92        80.38702
413.37        80.07394
413.81        79.61342
414.26        79.22746
414.71        78.94104
415.15        78.72372
415.60        78.56167
416.05        78.48263
416.49        78.49216
416.94        78.59746
417.39        78.74219
417.83        78.80025
418.28          78.755
418.73        78.63875
419.17        78.52603
419.62        78.55919
420.07         78.7275
420.51        78.94024
420.96        79.15874
421.41        79.16743
421.85        78.89613
422.30        78.82761
422.74        78.82227
423.19        78.05101
423.64        76.79157
424.08        76.86857
424.53        77.72729
424.98        78.19233
425.42        77.98151
425.87        78.32567
426.31        79.02859
426.76        78.56286
427.21         77.1021
427.65        77.00075
428.10        78.03263
428.54        78.20673
428.99        77.53117
429.44        76.98162
429.88          76.728
430.33        76.87348
430.77        77.35238
431.22        77.55571
431.66        78.63995
432.11         78.4322
432.56        77.49803
433.00        77.34525
433.45        78.21729
433.89        78.39912
434.34        78.54867
434.78        79.79931
435.23        77.88319
435.67        77.04459
436.12        76.39054
436.57        76.64543
437.01        77.51167
437.46        78.33418
437.90        77.93758
438.35        78.00376
438.79        78.26894
439.24        78.46306
439.68        78.55595
440.13        78.58356
440.57        78.57689
441.02        78.58192
441.46        78.59365
441.91        78.75835
442.35        78.91096
442.80        78.93848
443.24        78.81247
443.69        78.73911
444.13        78.70329
444.58        78.58858
445.02         78.3104
445.47        78.14117
445.91         78.1759
446.36        77.99446
446.80        77.47893
447.24         78.8665
447.69        78.24416
448.13        78.54939
448.58        78.63612
449.02        78.60856
449.47        78.54015
449.91        78.58553
450.36        78.81308
450.80        79.10402
451.25        79.39059
451.69         79.5266
452.13        79.49097
452.58        79.37307
453.02        79.20493
453.47        79.05927
453.91        78.94861
454.36        78.92703
454.80        78.68686
455.24        78.92815
455.69          79.384
456.13        79.41737
456.58        79.07143
457.02        78.56686
457.46         78.3914
457.91        78.22551
458.35        78.14205
458.79        78.06103
459.24        78.02984
459.68         78.1084
460.13        78.27353
460.57        78.26717
461.01        78.68127
461.46        78.04373
461.90        78.22337
462.34        78.21987
462.79        78.42361
463.23        78.22009
463.68        77.67413
464.12        77.53323
464.56        77.73064
465.01        77.40063
465.45        76.67762
465.89        76.72424
466.34        77.41146
466.78        77.58819
467.22        77.46676
467.67        77.15932
468.11         77.1312
468.55        76.89618
468.99        76.60543
469.44        76.33966
469.88        76.13231
470.32         76.0515
470.77        76.04536
471.21        76.00655
471.65        75.89376
472.10        75.75433
472.54        75.66166
472.98        75.70303
473.42        75.86713
473.87         76.2963
474.31        76.76456
474.75        76.52746
475.20        75.78739
475.64        75.61583
476.08        75.97168
476.52        75.97258
476.97        75.62179
477.41        75.30491
477.85        75.12309
478.29        75.31158
478.74         75.7457
479.18        75.61419
479.62        75.02105
480.06        74.85838
480.50        75.19086
480.95        75.12366
481.39        75.52784
481.83        75.35185
482.27        76.13553
482.72         75.8375
483.16        75.94505
483.60        75.92006
484.04        76.12543
484.48        76.26681
484.93        76.15104
485.37        76.13789
485.81        75.31104
486.25        74.17329
486.69        75.65116
487.14        75.16492
487.58        74.41653
488.02          74.556
488.46         75.5107
488.90        75.57333
489.34         75.1068
489.79        75.37681
490.23        75.13157
490.67        75.08875
491.11        74.85498
491.55        74.61351
491.99         74.4126
492.43        74.32689
492.88         74.3764
493.32        74.54923
493.76        74.78565
494.20        75.01822
494.64        75.20599
495.08        75.34866
495.52        75.42691
495.96        75.40345
496.41        75.31937
496.85         75.2766
497.29        75.17671
497.73        75.18626
498.17        74.49284
498.61        74.25741
499.05        74.07303
499.49        74.30666
499.93        74.72894
500.37        74.81201
500.82        74.56124
501.26        74.50227
501.70        74.64405
502.14        74.62067
502.58        74.46986
503.02        74.44424
503.46        74.56271
503.90        74.75278
504.34         74.9624
504.78        75.07725
505.22        75.05567
505.66        75.03213
506.10        75.02249
506.54        74.86531
506.98         74.5434
507.42        74.82477
507.86        74.11979
508.30        74.42249
508.74        73.92506
509.18        73.78388
509.62        73.65506
510.06        73.67818
510.50         73.8739
510.94        74.22758
511.38        74.62568
511.82        74.81462
512.26        74.74153
512.70        74.48591
513.14        74.17053
513.58         73.9815
514.02        73.97146
514.46        74.08741
514.90        74.25271
515.34        74.34239
515.78        74.31911
516.22        74.22471
516.66        74.11543
517.10        74.07207
517.54        74.11259
517.98        74.20592
518.42        74.29568
518.86        74.29409
519.30        74.18369
519.74        74.00832
520.18        73.83443
520.62        73.73119
521.06        73.73862
521.50         73.8982
521.93        74.13731
522.37        74.25533
522.81        74.22528
523.25        74.11292
523.69        74.00922
524.13         74.0406
524.57        74.22544
525.01        74.51118
525.45        74.77882
525.89        74.83778
526.32        74.64011
526.76        74.28455
527.20        73.88145
527.64        73.60427
528.08        73.50175
528.52        73.51686
528.96        73.60983
529.40        73.71712
529.83        73.80075
530.27        73.88977
530.71        73.95022
531.15        73.93206
531.59        73.83321
532.03        73.66663
532.46        73.47644
532.90        73.36961
533.34        73.36362
533.78        73.43499
534.22        73.54911
534.66        73.64845
535.09        73.70828
535.53        73.76024
535.97        73.80244
536.41        73.84869
536.85        73.89845
537.28        73.93071
537.72        73.94354
538.16        73.93284
538.60        73.89445
539.04        73.83552
539.47        73.73081
539.91         73.5994
540.35        73.43247
540.79        73.25412
541.22        73.08978
541.66        72.99109
542.10        72.96774
542.54        73.01035
542.97        73.10299
543.41        73.24027
543.85        73.39654
544.29        73.58157
544.72        73.73087
545.16        73.77874
545.60        73.71011
546.04         73.5424
546.47        73.30996
546.91         73.3194
547.35        73.53544
547.79        73.67212
548.22        73.65535
548.66        73.76447
549.10        73.99706
549.53        73.97533
549.97        73.59393
550.41        74.22231
550.84        73.64776
551.28        73.49905
551.72        73.16033
552.15        73.44572
552.59        73.40074
553.03        73.49567
553.46        73.45317
553.90        73.47026
554.34        73.52435
554.77        73.53762
555.21        73.53308
555.65        73.49284
556.08        73.45069
556.52        73.58871
556.96        73.84528
557.39        73.99478
557.83        74.03101
558.27        74.05168
558.70        74.07138
559.14        74.08157
559.57        74.05465
560.01        74.00397
560.45        73.95782
560.88        73.77753
561.32        73.82099
561.75        73.80524
562.19        73.79128
562.63        73.49792
563.06        73.04237
563.50         72.9641
563.93        73.21332
564.37        73.38444
564.80        73.40762
565.24        73.46375
565.68        73.53476
566.11        73.60804
566.55        73.67743
566.98        73.59935
567.42        73.49654
567.85        73.45536
568.29        73.50072
568.72        73.79157
569.16        74.38919
569.60        73.80719
570.03        74.28574
570.47        74.23739
570.90        74.24638
571.34        73.77753
571.77        74.08472
572.21        74.12775
572.64        74.22798
573.08        74.17168
573.51        73.97162
573.95        74.08932
574.38        74.47832
574.82        73.92682
575.25        74.22517
575.69        74.04101
576.12        73.78023
576.56        73.47906
576.99        73.73846
577.42         73.5143
577.86        73.43656
578.29        73.57353
578.73        74.10807
579.16        73.59064
579.60        73.66792
580.03        73.63042
580.47         74.2616
580.90        74.12765
581.33        73.48219
581.77        73.45218
582.20        73.75049
582.64        74.06103
583.07        73.51435
583.51          73.275
583.94        73.36966
584.37        73.14778
584.81        72.90401
585.24        73.37221
585.68        73.72656
586.11        74.79095
586.54        73.69517
586.98        72.86651
587.41        74.19014
587.85        74.53574
588.28        74.08876
588.71        74.50502
589.15        73.74722
589.58         74.1125
590.01        73.21603
590.45        73.30671
590.88        73.81788
591.31        74.15468
591.75        74.02821
592.18        74.17575
592.61        73.95468
593.05        72.93755
593.48        74.11301
593.91        74.54472
594.35        73.15968
594.78        72.95644
595.21        73.34552
595.65        73.44958
596.08        73.28799
596.51        73.32486
596.94        73.93547
597.38        74.26474
597.81        74.27409
598.24        73.92655
598.68        73.69885
599.11        72.98658
599.54        73.92593
599.97        74.35207
600.41        73.11228
600.84        72.84523
601.27        73.35289
601.70        73.62794
602.14        73.88364
602.57        73.69256
603.00        73.25586
603.43         73.1659
603.87        73.21918
604.30        73.65312
604.73        73.36918
605.16         73.3695
605.60        73.34896
606.03        73.52013
606.46        73.73425
606.89        73.81615
607.32        73.51137
607.76        73.47327
608.19         73.7177
608.62         73.6048
609.05        73.47138
609.48        73.93975
609.92        73.78211
610.35        73.66192
610.78        73.91295
611.21        73.20905
611.64        73.45818
612.07        73.63279
612.50        73.80107
612.94        73.93712
613.37        74.39555
613.80        73.90671
614.23        74.35617
614.66        74.27933
615.09        74.25053
615.52        74.06805
615.96        73.69471
616.39        73.95549
616.82        73.65249
617.25        73.30191
617.68        73.24302
618.11        73.38199
618.54        73.77543
618.97        73.72174
619.40        73.30833
619.84        73.20676
620.27        73.51524
620.70        73.82626
621.13        73.92508
621.56        73.88568
621.99        73.91509
622.42        72.86255
622.85         73.3644
623.28        73.81117
623.71        74.42985
624.14        73.03757
624.57        73.97663
625.00        73.87166
625.43        74.06767
625.86        73.54591
626.29        73.21935
626.72        73.69142
627.15        73.27573
627.58        73.53808
628.01        73.79089
628.44        73.77135
628.87        73.39057
629.30        73.37971
629.73        73.71358
630.16        73.83259
630.59        73.69575
631.02        73.83901
631.45        73.93222
631.88        73.92262
632.31        73.66207
632.74        73.91318
633.17        73.49009
633.60        73.40939
634.03         73.3288
634.46        73.28389
634.89        73.26264
635.32        73.21171
635.75        73.17054
636.18        73.27186
636.61        73.47505
637.04        73.58672
637.47        73.60229
637.89        73.57489
638.32        73.48548
638.75         73.4875
639.18        73.62772
639.61        73.14599
640.04        73.38303
640.47        73.30886
640.90        73.32462
641.33        73.40401
641.76        73.50811
642.18         73.5491
642.61        73.46995
643.04        73.30807
643.47        73.15346
643.90        73.12733
644.33        73.24557
644.76        73.56594
645.18        73.93201
645.61        73.88393
646.04        73.32011
646.47        73.16183
646.90        73.36741
647.33         73.3816
647.75         73.1888
648.18        73.15222
648.61        73.27111
649.04         73.3327
649.47        73.32394
649.89        73.42612
650.32        73.56529
650.75        73.46982
651.18        73.25945
651.61        73.34734
652.03         73.7348
652.46        74.18376
652.89        74.40264
653.32        74.18028
653.74        73.76651
654.17         73.0532
654.60        72.45913
655.03        74.45819
655.46         72.7429
655.88        73.63824
656.31        75.78286
656.74        76.04343
657.16        75.00323
657.59         73.2011
658.02        72.76231
658.45        73.43881
658.87        74.00929
659.30        73.27098
659.73        74.40845
660.15        74.65281
660.58        74.21989
661.01        73.97495
661.44        73.80539
661.86        73.50591
662.29        73.15799
662.72        73.38177
663.14        74.00539
663.57        73.87289
664.00        73.13392
664.42        72.92218
664.85        73.29951
665.27        73.58816
665.70        73.69365
666.13        73.82168
666.55        73.95229
666.98          74.008
667.41        73.99847
667.83        73.94234
668.26        73.84285
668.69        73.71355
669.11        73.58002
669.54        73.48512
669.96        73.44138
670.39        73.44002
670.82        73.46051
671.24        73.47772
671.67        73.46712
672.09         73.4328
672.52        73.40997
672.94        73.51746
673.37        73.19263
673.80        73.72244
674.22        73.45506
674.65        73.60828
675.07        73.74825
675.50        73.89483
675.92        74.02106
676.35        74.07561
676.77        74.06811
677.20        73.98864
677.62        73.89178
678.05        73.86695
678.47        73.92618
678.90        74.05084
679.32        74.16991
679.75        74.17615
680.17        74.03727
680.60        73.82752
681.02        73.62857
681.45        73.49338
681.87        73.44048
682.30        73.74758
682.72        73.80182
683.15        73.95568
683.57         74.0284
684.00        74.06836
684.42        74.08795
684.85        74.13265
685.27        74.21616
685.70        74.25671
686.12        74.28909
686.54        74.56995
686.97        75.00259
687.39        75.27382
687.82        75.28666
688.24        75.23492
688.66        75.11182
689.09        74.77137
689.51        74.30968
689.94        74.01276
690.36        73.93139
690.78        73.82394
691.21        73.94771
691.63         74.0461
692.06        74.17717
692.48        74.35526
692.90        74.52921
693.33        74.60516
693.75         74.5616
694.17        74.39862
694.60        74.22225
695.02        74.17577
695.44        74.27543
695.87        74.65253
696.29        75.13014
696.71        74.95556
697.14        74.28686
697.56        74.16663
697.98        74.58856
698.41        74.72033
698.83        74.54002
699.25        74.55894
699.68        74.73763
700.10        74.81421
700.52        74.74979
700.94        74.63657
701.37         74.4964
701.79        74.38057
702.21        74.30141
702.64         74.2495
703.06        74.23406
703.48        74.28867
703.90        74.41383
704.33        74.60929
704.75        74.80441
705.17        74.95652
705.59        75.02254
706.01        75.01827
706.44        74.97577
706.86        74.96339
707.28        74.99792
707.70        75.03864
708.12        75.08429
708.55        75.17829
708.97          75.287
709.39        75.27003
709.81         75.1718
710.23        75.21756
710.66         75.4183
711.08        75.67049
711.50        75.89214
711.92        76.03713
712.34        76.08269
712.76        76.04144
713.19        75.93262
713.61        75.84363
714.03        75.78236
714.45        75.74132
714.87        75.72428
715.29        75.73179
715.71        75.75963
716.13        75.80876
716.56        75.85293
716.98        75.93906
717.40        76.03048
717.82         76.1188
718.24        76.18234
718.66        76.19225
719.08        76.14425
719.50        76.04617
719.92        75.92772
720.34        75.83714
720.76        75.78886
721.19        75.76598
721.61        75.76096
722.03        75.72897
722.45        75.66064
722.87         75.5695
723.29        75.48067
723.71        75.43312
724.13        75.43591
724.55        75.47671
724.97        75.53122
725.39         75.5583
725.81        75.55226
726.23        75.53413
726.65        75.52362
727.07        75.55442
727.49        75.63058
727.91        75.72204
728.33        75.83491
728.75        75.98032
729.17         76.1468
729.59        76.33871
730.01        76.47323
730.43        76.41454
730.85        76.16048
731.27        75.77164
731.69        75.40971
732.10        75.32635
732.52         75.5685
732.94        76.05997
733.36        76.65544
733.78         77.0669
734.20        77.19017
734.62         77.1614
735.04        77.06618
735.46        76.88171
735.88        76.72912
736.30        76.93283
736.72        77.35326
737.13        77.45143
737.55        77.10973
737.97        76.61012
738.39        76.14425
738.81        75.81612
739.23        75.76021
739.65        76.24464
740.06        76.98283
740.48        77.30093
740.90        77.09531
741.32        76.67846
741.74        76.23264
742.16        75.99448
742.57        76.07082
742.99        76.27775
743.41        76.54823
743.83        76.96615
744.25        77.38832
744.67        77.39597
745.08        77.07399
745.50         76.9566
745.92        77.10555
746.34        77.20685
746.75        77.23216
747.17           77.28
747.59        77.33935
748.01        77.39259
748.42        77.43582
748.84        77.42594
749.26        77.37275
749.68        77.29311
750.09        77.19492
750.51        77.12749
750.93        77.08862
751.35         77.0696
751.76        77.08065
752.18        77.12748
752.60         77.2039
753.01        77.31493
753.43        77.40798
753.85        77.42978
754.27        77.38587
754.68        77.32982
755.10         77.2824
755.52        77.27744
755.93        77.30419
756.35        77.31698
756.77        77.41187
757.18        77.64378
757.60        77.99492
758.02        78.73801
758.43        79.52821
758.85        79.14713
759.26         77.8761
759.68        77.39246
760.10        77.78908
760.51        78.02025
760.93        77.99002
761.34        78.04305
761.76        78.12447
762.18        78.23251
762.59        78.30019
763.01        77.85915
763.42        77.10813
763.84        76.77544
764.26        76.95992
764.67        77.20017
765.09        77.44648
765.50        77.88716
765.92        78.38634
766.33        78.49358
766.75        78.16849
767.16        78.04163
767.58        78.13234
768.00        78.00835
768.41        77.71878
768.83        77.82883
769.24        78.19109
769.66        77.99577
770.07        77.37339
770.49        77.24946
770.90        77.64255
771.32        77.99213
771.73        78.20461
772.15        78.30064
772.56        78.25396
772.97        78.30928
773.39        77.98698
773.80        77.98238
774.22        78.13342
774.63        78.43467
775.05        78.74477
775.46        78.94613
775.88        78.96404
776.29        78.87563
776.70        78.72536
777.12        78.60683
777.53          78.561
777.95        78.54266
778.36        78.55965
778.77        78.61198
779.19        78.69627
779.60        78.85403
780.02        79.01199
780.43        79.16959
780.84        79.30728
781.26        79.20955
781.67        79.01104
782.09         79.4003
782.50         80.1774
782.91        80.18748
783.33        79.47033
783.74        79.10243
784.15         79.1427
784.57        78.99707
784.98        78.69212
785.39        78.55951
785.81        78.63029
786.22        78.81435
786.63        79.10755
787.04         79.4981
787.46        79.95306
787.87        80.43208
788.28        80.87392
788.70        81.17285
789.11        81.29511
789.52        81.29437
789.93        81.17603
790.35         80.9511
790.76        80.65974
791.17         80.3043
791.58        80.01827
792.00        79.93113
792.41        80.07928
792.82         80.5833
793.23        81.22947
793.65        81.22829
794.06        80.70597
794.47        80.68806
794.88        81.11905
795.29        81.14559
795.71        80.73033
796.12        80.42385
796.53        80.31096
796.94         80.2906
797.35        80.38268
797.76         80.6189
798.18        80.92136
798.59        81.20262
799.00        81.40369
799.41        81.54543
799.82        81.61269
800.23        81.59919
800.64        81.51754
801.06        81.33607
801.47        81.18023
801.88        81.17737
802.29        81.34942
802.70        81.64717
803.11        81.96556
803.52        82.12111
803.93         82.0741
804.34        81.89173
804.75        81.62602
805.17        81.43255
805.58         81.4063
805.99        81.27676
806.40        81.12144
806.81          81.581
807.22        82.41417
807.63        82.41333
808.04        81.69201
808.45        81.52109
808.86        81.99472
809.27         82.3809
809.68        82.53526
810.09        82.58152
810.50        82.48617
810.91        82.21883
811.32        81.92425
811.73        81.83273
812.14        81.99699
812.55         82.3689
812.96        82.80195
813.37        83.01319
813.78        82.92474
814.19        82.63573
814.60        82.29086
815.01        82.09441
815.42        82.09464
815.83        82.22051
816.24        82.40391
816.65        82.51871
817.05        82.51383
817.46        82.40084
817.87        82.23589
818.28        82.02751
818.69        81.80019
819.10         81.5634
819.51        81.36943
819.92         81.3211
820.33        81.44051
820.74        81.67438
821.14        81.99835
821.55        82.38295
821.96        82.78981
822.37        83.23266
822.78        83.57427
823.19        83.58015
823.60        83.20597
824.00        82.51064
824.41        81.75407
824.82        81.37865
825.23        81.48104
825.64        81.97313
826.04        82.58865
826.45        82.74699
826.86        82.34054
827.27        81.54835
827.68        80.71445
828.08        80.40636
828.49        80.71491
828.90        81.49603
829.31        82.48491
829.72        83.22566
830.12        83.58955
830.53        83.61696
830.94        83.49878
831.35        83.50933
831.75        83.75477
832.16        84.04892
832.57        84.30332
832.97        84.33899
833.38        84.12016
833.79        83.79047
834.20        83.41297
834.60        83.03677
835.01        82.73622
835.42        82.45872
835.82         82.3599
836.23        82.62448
836.64        83.28013
837.04        84.29215
837.45        85.24763
837.86        85.62345
838.26        85.28535
838.67        84.40114
839.08        83.32362
839.48        82.58561
839.89        82.38422
840.29        82.56276
840.70        82.96808
841.11        83.36366
841.51         83.6796
841.92         83.9512
842.33        84.21092
842.73        84.48146
843.14        84.70651
843.54        84.88451
843.95        84.98746
844.35        85.06683
844.76        85.10027
845.17        85.05775
845.57        84.97359
845.98        84.85986
846.38        84.74603
846.79        84.64942
847.19        84.47271
847.60        83.98841
848.00        83.22614
848.41        82.29422
848.81         81.5173
849.22        81.37278
849.62        81.97842
850.03        83.13431
850.43        84.55316
850.84        85.47391
851.24        85.71218
851.65        85.33595
852.05        84.63284
852.46        84.04573
852.86        83.71861
853.27        83.60933
853.67        83.48937
854.07        83.26688
854.48        82.85075
854.88        82.32565
855.29        81.77185
855.69        81.59291
856.10        81.78523
856.50         82.3578
856.90        82.93922
857.31        83.02532
857.71        82.57024
858.12        81.66903
858.52          80.755
858.92        80.49517
859.33        81.02993
859.73         82.2001
860.13        83.53805
860.54        84.28757
860.94        84.27991
861.34         83.6248
861.75        82.63309
862.15        81.92771
862.55        81.67113
862.96        81.72794
863.36        81.77812
863.76        81.33951
864.17        80.37973
864.57        79.14655
864.97        78.03415
865.38        77.56187
865.78        77.87697
866.18         78.7704
866.58        80.01708
866.99        81.11946
867.39        81.87881
867.79        82.36298
868.19        82.48283
868.60         82.1249
869.00        81.34757
869.40        80.16837
869.80        79.02427
870.21        78.67909
870.61        79.33871
871.01        80.74786
871.41          82.311
871.81        83.05153
872.22        82.72534
872.62        81.63509
873.02        80.23869
873.42        79.31446
873.82        79.12386
874.22        79.44803
874.63        80.03509
875.03        80.50261
875.43        80.73125
875.83        80.84245
876.23        80.98756
876.63        81.39328
877.03        82.06767
877.44        82.82158
877.84        83.46421
878.24        83.61115
878.64        83.20352
879.04        82.44231
879.44        81.52706
879.84        80.73043
880.24        80.15522
880.64        79.71867
881.04        79.53613
881.44        79.78191
881.84        80.45399
882.24        81.53005
882.65        82.61493
883.05        83.15432
883.45        82.94632
883.85        82.17783
884.25        81.31539
884.65        81.09708
885.05        81.66074
885.45        82.71677
885.85        83.93456
886.25        84.74622
886.65        84.93149
887.05        84.70457
887.45        84.04153
887.85         82.9213
888.25        81.52248
888.65        79.95536
889.04        78.62096
889.44        78.13326
889.84        78.49996
890.24        79.59727
890.64         81.0523
891.04        82.03682
891.44        82.22966
891.84        81.86255
892.24        81.27589
892.64        80.96529
893.04        81.05243
893.44        81.36032
893.83        81.82758
894.23        82.27202
894.63        82.64123
895.03        83.00222
895.43        83.30588
895.83        83.46168
896.23         83.4551
896.63        83.26643
897.02        82.99065
897.42        82.85854
897.82        82.90417
898.22        83.12086
898.62        83.31737
899.01        83.17619
899.41        82.64173
899.81        81.82945
900.21        81.08437
900.61        80.93419
901.00        81.45679
901.40        82.46976
901.80        83.52654
902.20        83.89547
902.59        83.39656
902.99        82.27063
903.39        80.94809
903.79        80.07149
904.18        79.82033
904.58        80.05442
904.98        80.50223
905.38         80.7526
905.77        80.67139
906.17        80.37566
906.57         80.1099
906.96        80.28485
907.36        80.92541
907.76        81.89854
908.15        82.80466
908.55        82.86144
908.95        82.00392
909.34        80.52219
909.74        79.05862
910.14        78.45161
910.53        78.94019
910.93        80.20222
911.33        81.93096
911.72         83.6488
912.12        85.02615
912.52        86.16393
912.91        86.97455
913.31        87.28703
913.70        87.10309
914.10         86.4301
914.49        85.38982
914.89        84.19473
915.29        82.99881
915.68        81.84824
916.08        80.98192
916.47        80.59252
916.87        80.74921
917.26        81.34748
917.66        82.20439
918.05        83.02664
918.45        83.62343
918.84        84.08609
919.24        84.28388
919.64        84.20229
920.03        83.87669
920.42        83.28578
920.82        82.65527
921.21         82.2346
921.61        82.10322
922.00        82.24047
922.40         82.5039
922.79        82.72157
923.19        82.79461
923.58        82.79203
923.98        82.77048
924.37        82.83119
924.77        82.98441
925.16        83.18187
925.55        83.34904
925.95        83.37941
926.34        83.27363
926.74        83.06526
927.13        82.81758
927.52        82.59023
927.92        82.42191
928.31        82.28125
928.70        82.19982
929.10        82.20872
929.49         82.3059
929.89        82.44776
930.28        82.58578
930.67        82.54071
931.07        82.28605
931.46        81.90944
931.85        81.50415
932.24        81.21316
932.64         81.1032
933.03        81.16962
933.42        81.42415
933.82        81.85784
934.21        82.44997
934.60        83.08532
934.99        83.75834
935.39        84.44415
935.78        85.14823
936.17        85.84048
936.56        86.13055
936.96        85.45205
937.35        83.83122
937.74        81.58527
938.13        79.51548
938.53        78.63125
938.92        79.04426
939.31        80.52995
939.70        82.45596
940.09        83.57064
940.49        83.43138
940.88         82.3942
941.27        81.06288
941.66         80.3501
942.05         80.4847
942.44         81.2332
942.84        82.10309
943.23         82.3388
943.62        81.68361
944.01        80.41954
944.40        79.24472
944.79         79.1489
945.18        80.30995
945.57        82.44422
945.97        84.66708
946.36        85.70284
946.75        85.08015
947.14        83.20271
947.53        81.07171
947.92        80.20829
948.31        80.97671
948.70        82.98448
949.09        85.29604
949.48        86.22068
949.87        85.29395
950.26        83.09646
950.65         80.7266
951.04         79.6972
951.43        80.32582
951.82         82.1831
952.21        84.38535
952.60        85.31957
952.99        84.51678
953.38         82.5418
953.77        80.41738
954.16        79.48122
954.55        80.01035
954.94        81.68987
955.33        83.73522
955.72        84.49282
956.11        83.41044
956.50         81.0892
956.89        78.70963
957.28        77.77755
957.66         78.6354
958.05        80.79999
958.44        83.41772
958.83        84.75483
959.22        84.24138
959.61        82.48908
960.00        80.53088
960.39        79.69804
960.78        80.22904
961.16        81.74725
961.55        83.54017
961.94        84.32133
962.33        83.64685
962.72        82.08451
963.11        80.26466
963.49        78.99324
963.88         78.4937
964.27        78.48296
964.66        78.89842
965.04        79.70427
965.43        80.68462
965.82        81.88897
966.21        83.02593
966.60        83.52973
966.98         83.2922
967.37        82.53397
967.76        81.54221
968.15        80.73022
968.53        80.20168
968.92        79.76424
969.31        79.62658
969.69        80.18249
970.08        81.38927
970.47        83.30009
970.86        85.08129
971.24        85.30208
971.63        83.67165
972.02        80.66784
972.40        77.64629
972.79        76.71581
973.17        78.23246
973.56        81.49096
973.95        85.22721
974.33        87.06859
974.72        86.21954
975.11        83.47365
975.49        80.18052
975.88        78.73325
976.26        79.73426
976.65        82.42726
977.04        85.77533
977.42        87.88573
977.81        87.92273
978.19        86.57882
978.58        84.65009
978.96         83.2771
979.35        82.90034
979.74        83.18173
980.12        83.86962
980.51         84.5031
980.89        84.96284
981.28        85.23191
981.66        85.67413
982.05        86.53595
982.43        87.95233
982.82        89.71072
983.20         91.1029
983.59        90.81724
983.97        88.71944
984.35        85.34346
984.74        82.07851
985.12        80.79998
985.51        81.79916
985.89        84.59897
986.28         87.9351
986.66         90.0523
987.04        90.19513
987.43        88.87662
987.81        86.81542
988.20        85.53972
988.58         85.4604
988.96        86.14193
989.35        86.68062
989.73        85.90734
990.12        83.53796
990.50        80.20471
990.88        76.82196
991.27        74.79029
991.65        74.46708
992.03        75.48652
992.42        77.30267
992.80        79.38454
993.18         81.3632
993.56        83.34392
993.95        85.13995
994.33          86.572
994.71        87.40878
995.10         87.6813
995.48        87.40427
995.86         86.7737
996.24        85.93246
996.63        84.76145
997.01        83.80914
997.39        83.79871
997.77        84.84705
998.15        86.77411
998.54        88.70107
998.92        89.24599
999.30         88.1004
999.68        85.62851
1000.06        82.75388
1000.45        81.23069
1000.83         81.7492
1001.21        83.78775
1001.59        86.56404
1001.97        88.77302
1002.35        89.91507
1002.73        90.30349
1003.12        90.16725
1003.50        89.77821
1003.88        89.33998
1004.26        88.80466
1004.64        88.12727
1005.02          87.321
1005.40        86.48702
1005.78        85.69321
1006.16        85.31488
1006.54         85.8437
1006.92        87.30696
1007.30        89.60534
1007.69        91.99135
1008.07        93.06087
1008.45        92.17352
1008.83        89.67163
1009.21        86.50064
1009.59         84.3474
1009.97        83.74593
1010.35         84.2077
1010.73        85.30283
1011.11         86.2606
1011.49        86.76723
1011.86        87.21333
1012.24        87.26324
1012.62         86.5556
1013.00        85.06496
1013.38        82.69053
1013.76        80.15692
1014.14        79.12372
1014.52        80.07794
1014.90        82.55068
1015.28        85.19696
1015.66        85.83513
1016.04        83.97592
1016.41        80.43098
1016.79        76.10358
1017.17        73.12318
1017.55        72.37087
1017.93        72.95367
1018.31        74.46069
1018.69        76.79082
1019.06         80.1346
1019.44        84.96199
1019.82        90.97797
1020.20        95.10091
1020.58         94.8619
1020.95        90.75227
1021.33        85.47632
1021.71        81.68166
1022.09        79.47843
1022.46        78.04502
1022.84        76.93994
1023.22        74.71646
1023.60        71.58824
1023.97        68.95125
1024.35        67.45381
1024.73        67.32727
