SpectraSmart Spectrum 2.9.0.0
--------- Device Information -----------
Spectrum Name :  反射率_0
Saving Time :  2024/04/30 00:30:25
Spectro-Module Model Name : SE2030-DUVN
Spectro-Module Serial Number : OS361AC55029948
Wavelength Start : 200
Wavelength End : 1025
Wavelength Unit : Wavelength(nm)
Spectrum Unit : Reflectance(%)
-----------Spectrum Setting ------------
Integration Time : 20ms
Average : 10
Boxcar : 0
Background removal :  enabled
linearity correction :  enabled
SC :  disabled
Intensity correction :  disabled
DWT denoise :  enabled
savitzky-golay :  disabled
FFT :  disabled
Running average :  disabled
Kalman :  disabled
High pass :  disabled
---------------BEGIN--------------------
Wavelength(nm)             Reflectance(%)
200.29               0
200.75        74.68066
201.21        62.43268
201.67        50.05443
202.13          41.947
202.58        40.20585
203.04        44.45305
203.50        54.06921
203.96        66.74189
204.42        79.79919
204.88        92.11207
205.34        99.38999
205.80        97.21474
206.26        88.28813
206.72        77.18506
207.18        67.41746
207.64        60.59048
208.10        55.94408
208.55        52.34796
209.01        49.88186
209.47        49.84196
209.93        52.03596
210.39        55.58303
210.85        58.60406
211.31        59.54073
211.77        58.26237
212.23        54.47907
212.69        48.85399
213.14        46.34734
213.60        48.94434
214.06        54.38598
214.52        59.14089
214.98        60.86999
215.44        60.09293
215.90        57.82829
216.36        55.62625
216.81        56.46186
217.27        61.95984
217.73        72.22054
218.19        86.38138
218.65        97.04763
219.11        98.26499
219.57        92.31972
220.02        84.30468
220.48         78.0135
220.94        72.56405
221.40        66.20226
221.86        58.20821
222.32        50.69878
222.77        46.60758
223.23        46.21476
223.69        47.00373
224.15        46.99866
224.61        45.96483
225.06        43.97075
225.52        42.14503
225.98        42.55291
226.44        45.07764
226.90        48.21262
227.36        50.22515
227.81        49.85476
228.27        47.32422
228.73        42.98031
229.19        38.20501
229.65        36.16538
230.10        37.48316
230.56        40.48584
231.02        43.19794
231.48        43.89803
231.93        42.54491
232.39        39.88375
232.85        36.71304
233.31        34.58944
233.77        34.09938
234.22        34.86357
234.68         36.2121
235.14        36.92484
235.60        36.65765
236.05        35.88731
236.51        35.31727
236.97        35.82088
237.43        37.69836
237.88        41.00735
238.34         45.4124
238.80         49.6638
239.26        52.40165
239.71        53.66455
240.17        53.76817
240.63        53.90467
241.08        54.68863
241.54        55.86786
242.00        58.30513
242.46        63.48207
242.91        71.33524
243.37         79.8278
243.83        86.09753
244.28        89.05683
244.74         89.2383
245.20        86.22839
245.66        81.86234
246.11         80.9173
246.57         85.6673
247.03        96.15293
247.48        107.7527
247.94        109.1219
248.40        100.6674
248.85        89.13902
249.31        81.16726
249.77        79.35031
250.22        83.38359
250.68        93.40208
251.14         109.491
251.59        119.6762
252.05        114.2864
252.51        102.5427
252.96        92.33344
253.42        86.36743
253.88        82.61765
254.33        79.29929
254.79        76.19691
255.25        73.35081
255.70        71.03831
256.16        69.75071
256.62        68.88943
257.07        67.80901
257.53        66.69124
257.99        65.34545
258.44        63.51355
258.90        61.72525
259.35        59.86363
259.81        58.32272
260.27        56.97921
260.72        55.72617
261.18        54.64367
261.63        53.44464
262.09        52.24504
262.55        50.90628
263.00          49.441
263.46        48.12109
263.91        46.77774
264.37        45.45503
264.83         44.0852
265.28        42.61969
265.74        41.37122
266.19         40.6199
266.65        40.43046
267.11        40.60802
267.56        40.78971
268.02        40.45402
268.47        39.48014
268.93        38.04192
269.38        36.38278
269.84        35.05872
270.30        34.23772
270.75        33.76837
271.21         33.4692
271.66        33.04474
272.12        32.40513
272.57        31.62373
273.03        30.79795
273.48        29.99479
273.94        29.29991
274.39        28.64374
274.85        28.02727
275.31        27.39797
275.76        26.73296
276.22        26.07862
276.67         25.4545
277.13         24.9564
277.58         24.5575
278.04        24.26452
278.49         23.9677
278.95        23.58723
279.40        23.07987
279.86        22.53704
280.31        22.01725
280.77        21.70993
281.22        21.60323
281.68        21.65027
282.13        21.74557
282.59        21.77892
283.04        21.70608
283.50        21.55681
283.95        21.35541
284.41        21.13921
284.86        20.92781
285.32        20.75739
285.77        20.59039
286.22        20.43591
286.68        20.31021
287.13         20.1742
287.59        20.12842
288.04        20.27144
288.50        20.60442
288.95        21.05376
289.41        21.45392
289.86        21.52981
290.32        21.27881
290.77        20.81263
291.22        20.34488
291.68        20.20794
292.13        20.48529
292.59        21.09404
293.04        21.95127
293.50        22.95667
293.95        24.06098
294.40        25.30312
294.86        26.61448
295.31        27.89374
295.77         29.1154
296.22        30.28185
296.68         31.4854
297.13        32.86076
297.58        34.44165
298.04        36.15373
298.49        37.91453
298.95        39.59659
299.40         41.1628
299.85        42.66998
300.31        44.16739
300.76        45.65687
301.21        47.19431
301.67        48.79799
302.12        50.48139
302.58        52.41153
303.03        54.56281
303.48        56.79797
303.94        59.04551
304.39        61.56948
304.84        63.63816
305.30         65.8212
305.75        67.85766
306.20        69.73854
306.66        71.48034
307.11        73.05125
307.57        74.55122
308.02        76.01587
308.47        77.51273
308.93        79.03775
309.38        80.57124
309.83        82.14907
310.29         83.7543
310.74        85.35384
311.19        86.84062
311.65        88.03905
312.10        88.91273
312.55        89.53685
313.00        90.10551
313.46        90.93044
313.91        92.05959
314.36        93.40044
314.82        94.76453
315.27        95.87138
315.72        96.61287
316.18        97.07742
316.63        97.34767
317.08        97.56934
317.53         97.8195
317.99        98.09511
318.44        98.37859
318.89        98.66152
319.35        98.94648
319.80        99.24268
320.25        99.65019
320.70        100.3162
321.16        101.2143
321.61        102.3304
322.06        103.3855
322.51        103.9419
322.97        103.8992
323.42        103.3968
323.87        102.7559
324.32        102.5171
324.78        102.8028
325.23        103.5291
325.68        104.4244
326.13        105.0197
326.59        105.1537
327.04        105.0016
327.49        104.7809
327.94        104.8925
328.39        105.4285
328.85        106.2004
329.30        107.0386
329.75        107.4569
330.20        107.3359
330.66        106.8431
331.11        106.2581
331.56        105.9433
332.01        106.0435
332.46        106.4585
332.92        107.0923
333.37        107.9282
333.82        108.8414
334.27        109.8388
334.72        110.8238
335.17        111.6349
335.63        112.1932
336.08        112.5708
336.53        112.7703
336.98        112.8943
337.43        112.9991
337.88        113.0736
338.34        113.1886
338.79         113.469
339.24        113.9312
339.69         114.575
340.14        115.2746
340.59        115.7973
341.05         116.096
341.50        116.2355
341.95        116.3533
342.40        116.6994
342.85        117.3129
343.30        118.0684
343.75        118.8447
344.20        119.4492
344.66        119.8399
345.11         120.121
345.56        120.2556
346.01        120.1765
346.46        119.9319
346.91        119.5363
347.36        119.3043
347.81        119.7187
348.26         120.816
348.72        122.4158
349.17        124.0517
349.62        124.8552
350.07        124.6191
350.52         123.643
350.97        122.4073
351.42        121.6508
351.87        121.5823
352.32          121.97
352.77        122.6326
353.22        123.2785
353.67        123.7591
354.13        124.1391
354.58        124.3554
355.03        124.2875
355.48         123.915
355.93        123.2452
356.38        122.3529
356.83        121.3796
357.28         120.394
357.73        119.4065
358.18        118.4549
358.63         117.578
359.08        116.7865
359.53        116.0812
359.98         115.449
360.43        114.8529
360.88        114.2763
361.33        113.7286
361.78        113.1692
362.23        112.5401
362.68        111.8346
363.13        111.0575
363.58        110.2917
364.03        109.6735
364.48        109.2191
364.93        108.8798
365.38        108.5347
365.83        107.9931
366.28        107.2163
366.73        106.2691
367.18        105.2647
367.63        104.3789
368.08        103.6538
368.53        103.0336
368.98        102.4546
369.43        101.8068
369.88        101.0759
370.33        100.3387
370.78        99.62016
371.23        98.95637
371.68        98.36569
372.13        97.79725
372.58        97.33984
373.03        97.14306
373.48        97.18493
373.93        97.39739
374.38         97.4987
374.83        97.03576
375.28        95.95634
375.72        94.42738
376.17        92.87115
376.62        91.74307
377.07        91.14642
377.52        90.91624
377.97        90.91115
378.42         90.8967
378.87        90.76781
379.32        90.59515
379.77         90.3238
380.22        89.86185
380.67        89.20348
381.11         88.3511
381.56        87.43385
382.01        86.70573
382.46          86.249
382.91        86.03017
383.36        85.90312
383.81        85.62494
384.26         85.1423
384.71        84.51851
385.15        83.91029
385.60         83.6215
386.05        83.66692
386.50        83.93101
386.95        84.17274
387.40        84.03094
387.85        83.45466
388.29        82.54803
388.74        81.64909
389.19        80.99704
389.64         80.6474
390.09        80.49313
390.54        80.43663
390.98        80.30917
391.43        80.09158
391.88        79.82078
392.33        79.49508
392.78        79.15948
393.23        78.82351
393.67        78.36773
394.12        77.87302
394.57         77.7739
395.02        77.05785
395.47        77.12584
395.91        77.52292
396.36        77.54493
396.81        77.14076
397.26        76.70571
397.71        76.33041
398.15         75.9632
398.60        75.72526
399.05        75.50791
399.50        75.30466
399.95        75.34113
400.39        75.27665
400.84        75.29433
401.29        75.22726
401.74        75.12027
402.18        74.90695
402.63        74.29514
403.08        73.53918
403.53        73.26589
403.97        73.53021
404.42         74.0508
404.87        74.56483
405.32        74.71421
405.76        74.37856
406.21        73.75655
406.66        73.06294
407.11        72.47401
407.55        72.19942
408.00        72.55315
408.45        73.32633
408.90        73.71329
409.34          73.575
409.79        73.28965
410.24        73.04829
410.68        73.00694
411.13        73.21654
411.58        73.59318
412.03        73.97281
412.47        74.09656
412.92        73.87315
413.37        73.44041
413.81        72.90414
414.26         72.4939
414.71        72.23882
415.15        72.08523
415.60        72.02857
416.05        72.11243
416.49        72.32816
416.94        72.66965
417.39        73.00789
417.83        73.11378
418.28        72.95329
418.73         72.5822
419.17        72.19176
419.62        72.11095
420.07         72.3842
420.51        72.88078
420.96        73.42352
421.41        73.64348
421.85        73.43916
422.30        73.14655
422.74        72.81688
423.19        72.32194
423.64        71.84038
424.08        72.03596
424.53         72.7597
424.98        73.18678
425.42         73.2081
425.87        73.27132
426.31        73.40014
426.76        73.34163
427.21        72.98964
427.65        72.97495
428.10        73.13671
428.54        72.87161
428.99        72.31082
429.44        71.92612
429.88        71.84326
430.33        72.10381
430.77        72.52014
431.22        73.06297
431.66        73.57084
432.11        73.37743
432.56        72.61617
433.00        72.45732
433.45        73.19632
433.89        73.11711
434.34        73.83324
434.78        75.08046
435.23        72.60377
435.67        71.95935
436.12        71.94418
436.57        72.21779
437.01        72.61654
437.46        72.90636
437.90        73.07156
438.35        73.41261
438.79        73.86895
439.24        74.00017
439.68         73.8142
440.13        73.79323
440.57        74.01965
441.02        74.06812
441.46        73.85395
441.91        74.73033
442.35         74.4486
442.80        74.72163
443.24        74.84174
443.69        74.63619
444.13        74.17155
444.58         73.8693
445.02        73.72885
445.47        73.63577
445.91        73.62233
446.36        73.64629
446.80        73.64381
447.24        74.32276
447.69        74.35461
448.13        74.57497
448.58        74.60229
449.02        74.48848
449.47        74.33375
449.91        74.28491
450.36        74.40211
450.80        74.60747
451.25        74.84189
451.69        74.97379
452.13        74.97507
452.58        74.91807
453.02        74.83674
453.47        74.76328
453.91        74.69466
454.36        74.80965
454.80        74.74652
455.24        74.79923
455.69        74.84767
456.13        74.90987
456.58        74.96696
457.02        74.78269
457.46        74.42632
457.91        74.38142
458.35         74.2654
458.79        74.18739
459.24        74.09615
459.68        74.00277
460.13        73.88339
460.57        74.13395
461.01        74.05034
461.46        73.95567
461.90        73.64187
462.34        74.15263
462.79         74.2157
463.23          74.062
463.68        73.45133
464.12        73.10969
464.56         73.0964
465.01        73.02262
465.45        72.84518
465.89        72.87286
466.34        73.07655
466.78        73.10551
467.22        73.16482
467.67        73.04982
468.11        72.85748
468.55        72.51416
468.99        72.12023
469.44        71.84412
469.88        71.72397
470.32        71.73678
470.77        71.81448
471.21         71.8661
471.65        71.84282
472.10        71.78403
472.54        71.73066
472.98        71.74915
473.42        71.83459
473.87          72.071
474.31        72.33248
474.75        72.16404
475.20        71.68204
475.64        71.64461
476.08        72.03162
476.52        71.87926
476.97        71.31155
477.41        71.35835
477.85        71.03961
478.29        70.57847
478.74        71.40957
479.18        71.31417
479.62          70.883
480.06        70.79855
480.50        71.11629
480.95        70.93065
481.39        71.35757
481.83        71.05091
482.27        71.67126
482.72        71.64417
483.16        71.46359
483.60        71.46037
484.04        71.62508
484.48        71.94629
484.93        72.28509
485.37        71.93029
485.81        70.72549
486.25        70.69964
486.69         72.1487
487.14        71.41026
487.58        70.96088
488.02        70.65731
488.46        71.42041
488.90        71.21941
489.34         70.8763
489.79        71.07462
490.23        70.76829
490.67        70.68214
491.11        70.46387
491.55        70.28214
491.99        70.16759
492.43        70.13061
492.88        70.17422
493.32        70.41706
493.76        70.63235
494.20        70.88463
494.64        71.07478
495.08        71.27787
495.52        71.44942
495.96        71.30042
496.41        70.91908
496.85        70.87683
497.29        71.09084
497.73        70.79024
498.17        70.27619
498.61        69.98438
499.05        70.04979
499.49        70.27656
499.93          70.522
500.37        70.43299
500.82        70.06642
501.26        69.95715
501.70        70.12817
502.14        70.22364
502.58         70.2318
503.02        70.31132
503.46        70.45914
503.90        70.62731
504.34        70.77364
504.78        70.83176
505.22        70.76266
505.66        70.62241
506.10        70.48974
506.54        70.37014
506.98        70.21923
507.42        70.78381
507.86        70.13162
508.30        70.49181
508.74        70.02469
509.18        69.77406
509.62        69.47467
510.06        69.41623
510.50        69.64107
510.94        70.05785
511.38        70.51537
511.82        70.72569
512.26        70.62035
512.70        70.29175
513.14        69.87304
513.58        69.60021
514.02        69.54525
514.46        69.58265
514.90        69.64058
515.34        69.92219
515.78        69.88514
516.22        69.95813
516.66        70.00205
517.10        70.03738
517.54        70.06267
517.98        70.07508
518.42        70.05182
518.86         69.9521
519.30        69.77979
519.74        69.55788
520.18        69.36056
520.62        69.28246
521.06        69.35373
521.50        69.58557
521.93        69.87943
522.37        70.02013
522.81        69.97228
523.25        69.79175
523.69        69.61248
524.13        69.63881
524.57        69.90217
525.01        70.32771
525.45        70.74274
525.89        70.86905
526.32        70.63799
526.76        70.17287
527.20        69.64358
527.64        69.31321
528.08        69.24943
528.52        69.36887
528.96         69.5715
529.40        69.69895
529.83        69.69461
530.27         69.6195
530.71        69.50829
531.15        69.41682
531.59        69.36537
532.03        69.33046
532.46        69.28938
532.90        69.24283
533.34        69.18484
533.78        69.12949
534.22        69.09685
534.66        69.11147
535.09        69.16934
535.53        69.27204
535.97        69.38596
536.41        69.47456
536.85        69.52264
537.28        69.53077
537.72        69.51146
538.16        69.48093
538.60        69.44433
539.04         69.4006
539.47        69.32587
539.91        69.24162
540.35        69.13481
540.79        69.02087
541.22         68.9171
541.66        68.86105
542.10        68.85572
542.54        68.89599
542.97        68.95466
543.41         69.0088
543.85        69.04054
544.29        69.07006
544.72         69.0733
545.16        69.05149
545.60        69.00433
546.04        68.90295
546.47        68.80021
546.91        68.88932
547.35        69.13605
547.79        69.28491
548.22        69.27673
548.66        69.39193
549.10        69.62889
549.53         69.6171
549.97        69.26162
550.41          69.845
550.84        69.28265
551.28        69.16278
551.72        68.87334
552.15         69.0218
552.59        68.76069
553.03        68.78242
553.46        68.83624
553.90        68.90094
554.34        68.94535
554.77        69.05836
555.21        69.22692
555.65        69.12825
556.08        69.05458
556.52        69.06759
556.96        69.22687
557.39        69.33615
557.83        69.35526
558.27        69.47746
558.70        69.28403
559.14        69.37937
559.57        69.56844
560.01        69.75114
560.45        69.85454
560.88        69.56712
561.32        69.32702
561.75        69.21078
562.19        69.31735
562.63        69.22712
563.06        68.97683
563.50          68.994
563.93        69.20213
564.37        69.27639
564.80        69.17401
565.24        69.06559
565.68        68.98312
566.11        68.97032
566.55        69.04082
566.98        69.07056
567.42        69.11494
567.85        69.15054
568.29        69.16536
568.72        69.34863
569.16         69.8681
569.60        69.35636
570.03        69.52859
570.47        70.08665
570.90        70.00423
571.34        69.66958
571.77        70.04044
572.21        70.03404
572.64         69.9995
573.08        70.05511
573.51        69.61918
573.95        69.85321
574.38        70.26425
574.82        70.02747
575.25        70.12318
575.69         69.8748
576.12        69.43096
576.56        69.17126
576.99        69.37691
577.42         69.5342
577.86        69.31043
578.29        69.44936
578.73        70.13637
579.16        69.28064
579.60        69.70702
580.03        69.51975
580.47        70.09486
580.90        69.93031
581.33        69.36923
581.77        69.52541
582.20        69.75746
582.64        69.75218
583.07        69.52361
583.51         69.1701
583.94        69.04743
584.37        68.85982
584.81         68.8393
585.24        69.38542
585.68        69.73651
586.11        70.31527
586.54        69.43773
586.98        68.73896
587.41         69.5162
587.85        70.09624
588.28        69.64143
588.71        70.36384
589.15        69.52121
589.58        69.61139
590.01        68.98028
590.45        68.95061
590.88         69.2596
591.31         69.6407
591.75         69.8425
592.18        69.84913
592.61        69.91357
593.05        68.90452
593.48        69.92685
593.91        70.37423
594.35          68.993
594.78        68.75404
595.21        68.96788
595.65        69.28236
596.08        68.70724
596.51        68.77818
596.94        69.57465
597.38        69.76503
597.81        69.35196
598.24        69.55463
598.68        69.23645
599.11        68.90106
599.54        69.93969
599.97         69.9937
600.41        68.60586
600.84        68.98557
601.27        69.05132
601.70        69.16913
602.14        69.88707
602.57        69.25552
603.00        68.75876
603.43        68.65645
603.87        69.03922
604.30        69.34618
604.73        69.12463
605.16        69.06342
605.60        69.04642
606.03         69.2233
606.46        69.45893
606.89         69.5017
607.32        69.36824
607.76        69.33135
608.19        69.45796
608.62        69.52363
609.05        69.49912
609.48        69.47403
609.92        69.49212
610.35        68.86799
610.78        69.42976
611.21        68.82544
611.64        69.16029
612.07        69.15678
612.50        69.24137
612.94        69.31854
613.37        69.69514
613.80        69.15588
614.23        69.51316
614.66        69.43452
615.09        69.43957
615.52        69.48155
615.96        69.71011
616.39        69.52244
616.82        68.98572
617.25        69.09641
617.68        68.73811
618.11        68.87046
618.54        69.05526
618.97        69.01852
619.40        68.80467
619.84        68.76493
620.27        68.95351
620.70        69.23306
621.13        69.49186
621.56        69.22008
621.99        68.92503
622.42        68.53191
622.85        69.31947
623.28        68.89241
623.71        69.55148
624.14        68.63898
624.57        69.33086
625.00        69.24575
625.43        69.15019
625.86        68.98363
626.29        68.78773
626.72        68.85059
627.15        68.75681
627.58        68.93753
628.01        69.17389
628.44        69.06012
628.87        68.68079
629.30        68.68204
629.73         69.0555
630.16        69.17385
630.59        68.99508
631.02        69.09776
631.45        69.19735
631.88        69.04695
632.31        69.09933
632.74         69.0742
633.17        68.93606
633.60         68.8343
634.03        68.72337
634.46        68.59032
634.89        68.45895
635.32        68.39869
635.75        68.41852
636.18        68.49112
636.61        68.57885
637.04        68.63255
637.47         68.6515
637.89        68.60629
638.32        68.48328
638.75        68.47088
639.18        68.61555
639.61         68.1963
640.04        68.45198
640.47        68.40569
640.90        68.42787
641.33        68.49937
641.76        68.59755
642.18        68.66227
642.61        68.64363
643.04        68.56593
643.47        68.49361
643.90        68.51217
644.33         68.6256
644.76        68.89053
645.18        69.17589
645.61        69.07676
646.04        68.51308
646.47        68.35117
646.90        68.52793
647.33        68.50318
647.75        68.26228
648.18        68.09668
648.61        68.07799
649.04        68.23657
649.47        68.51505
649.89        68.79067
650.32        68.93259
650.75        68.81734
651.18        68.56483
651.61        68.46099
652.03        68.59659
652.46        68.98206
652.89        69.29823
653.32        69.15882
653.74        68.81985
654.17        67.88092
654.60        67.50159
655.03        69.62678
655.46        67.32609
655.88        68.83015
656.31        71.43215
656.74        72.29572
657.16        71.53387
657.59        69.52682
658.02        68.49481
658.45        69.44196
658.87        69.63341
659.30        69.28714
659.73        69.85886
660.15        69.46365
660.58        69.33188
661.01        69.00889
661.44        68.75462
661.86        68.48264
662.29        68.24564
662.72        68.36044
663.14        68.72986
663.57         68.7251
664.00         68.4091
664.42        68.35715
664.85         68.6039
665.27        68.77153
665.70        68.82188
666.13        68.91335
666.55        69.04482
666.98        69.15185
667.41        69.21616
667.83        69.21024
668.26        69.12314
668.69        68.97661
669.11        68.81257
669.54         68.6983
669.96        68.65179
670.39         68.6645
670.82        68.69943
671.24        68.68251
671.67         68.6005
672.09        68.52414
672.52        68.49644
672.94        68.59829
673.37        68.30552
673.80        68.83413
674.22        68.64127
674.65        68.84797
675.07        69.04111
675.50        69.24419
675.92        69.40154
676.35        69.41735
676.77        69.29913
677.20        69.05495
677.62        68.79711
678.05         68.7053
678.47        68.81213
678.90        69.07365
679.32        69.36057
679.75        69.47205
680.17        69.35521
680.60        69.08675
681.02        68.78539
681.45         68.6256
681.87        68.65407
682.30        68.85118
682.72        69.14502
683.15        69.22054
683.57         69.1292
684.00        69.27414
684.42        69.59043
684.85        69.70296
685.27        69.60252
685.70        69.36033
686.12        69.11641
686.54        69.39114
686.97        70.03281
687.39        70.25446
687.82        69.99749
688.24        69.92666
688.66        70.04601
689.09        69.93891
689.51        69.65429
689.94          69.489
690.36        69.46912
690.78        69.51221
691.21        69.58665
691.63        69.64561
692.06        69.66932
692.48        69.69498
692.90        69.70997
693.33        69.67795
693.75        69.60401
694.17        69.48901
694.60        69.39051
695.02        69.39356
695.44        69.49963
695.87        69.76016
696.29        70.08397
696.71        70.06479
697.14        69.77174
697.56        69.75789
697.98        69.99975
698.41        69.97168
698.83        69.69891
699.25        69.63769
699.68        69.76691
700.10        69.80625
700.52        69.72633
700.94        69.68545
701.37        69.66802
701.79        69.60748
702.21         69.4977
702.64        69.36738
703.06         69.2629
703.48        69.27206
703.90        69.40893
704.33        69.65067
704.75        69.90302
705.17        70.08142
705.59        70.13332
706.01        70.09277
706.44         70.0016
706.86        69.94848
707.28        69.95898
707.70        69.96687
708.12        69.98676
708.55        70.12508
708.97        70.33257
709.39        70.38367
709.81        70.30133
710.23        70.34941
710.66        70.53647
711.08        70.71912
711.50        70.85933
711.92        71.00457
712.34        71.14404
712.76        71.25849
713.19         71.3155
713.61        71.31047
714.03        71.22776
714.45        71.09327
714.87        70.94673
715.29        70.84185
715.71        70.79432
716.13        70.78932
716.56        70.80679
716.98         70.8983
717.40         71.0248
717.82        71.17682
718.24        71.30792
718.66        71.34582
719.08        71.27741
719.50        71.12377
719.92         70.9335
720.34        70.78832
720.76        70.71552
721.19        70.68884
721.61        70.70318
722.03        70.71963
722.45        70.72288
722.87        70.72125
723.29        70.71742
723.71        70.71278
724.13          70.708
724.55        70.70271
724.97        70.68722
725.39        70.64732
725.81         70.5897
726.23        70.52844
726.65        70.49443
727.07        70.53686
727.49        70.65968
727.91        70.83207
728.33        71.02924
728.75          71.209
729.17        71.34679
729.59        71.45579
730.01        71.49387
730.43        71.39765
730.85        71.17663
731.27        70.86312
731.69        70.57321
732.10         70.4896
732.52        70.65147
732.94        71.01172
733.36        71.45372
733.78        71.78447
734.20        71.93226
734.62        71.87751
735.04        71.72562
735.46        71.78553
735.88        72.03279
736.30        72.10512
736.72        71.96208
737.13        71.85775
737.55        71.76463
737.97        71.52849
738.39         71.2395
738.81        71.12743
739.23        71.21872
739.65        71.45352
740.06        71.68837
740.48        71.76479
740.90        71.63142
741.32        71.34314
741.74        71.02328
742.16        70.90628
742.57        71.06114
742.99        71.32277
743.41        71.59328
743.83        71.89029
744.25        72.08161
744.67        71.79823
745.08        71.21848
745.50        71.00156
745.92        71.24033
746.34        71.59831
746.75        71.94716
747.17        72.20306
747.59        72.30722
748.01        72.31831
748.42        72.28712
748.84        72.19083
749.26        72.10403
749.68        72.17424
750.09        72.32275
750.51        72.33013
750.93        72.15771
751.35        71.90865
751.76        71.67321
752.18        71.54395
752.60        71.51388
753.01        71.67307
753.43        71.98057
753.85        71.98405
754.27        71.57195
754.68        72.51324
755.10        71.87614
755.52        72.06062
755.93        72.19804
756.35        72.29543
756.77        72.39031
757.18        72.51696
757.60        72.69918
758.02        73.15199
758.43        73.62496
758.85        73.25393
759.26        72.12267
759.68        71.73804
760.10        72.44525
760.51        72.73078
760.93        72.62012
761.34        72.82295
761.76        73.20949
762.18        73.13045
762.59        72.62943
763.01        72.12517
763.42        71.78942
763.84        71.56979
764.26        71.53558
764.67        71.68873
765.09        71.99028
765.50        72.41093
765.92        72.83315
766.33        72.94695
766.75        72.70693
767.16        72.60745
767.58        72.65372
768.00        72.52718
768.41        72.27995
768.83        72.30762
769.24        72.52589
769.66        72.47542
770.07        72.20016
770.49        72.12045
770.90        72.27686
771.32        72.56159
771.73        72.88113
772.15        72.96243
772.56        72.77705
772.97        72.68791
773.39        72.30582
773.80          72.333
774.22        72.61308
774.63        73.05461
775.05        73.45534
775.46        73.65936
775.88        73.57499
776.29        73.26737
776.70        72.85337
777.12        72.57052
777.53        72.49281
777.95        72.53077
778.36        72.65402
778.77        72.79277
779.19        72.92045
779.60        73.12636
780.02        73.32716
780.43         73.4555
780.84         73.5213
781.26        73.39465
781.67        73.23347
782.09         73.7255
782.50        74.64323
782.91        74.75255
783.33        74.06862
783.74        73.71424
784.15        73.74313
784.57        73.50179
784.98         73.0683
785.39        72.89825
785.81         73.0369
786.22        73.35263
786.63        73.77117
787.04        74.16875
787.46        74.49368
787.87        74.75824
788.28        74.96348
788.70        75.10121
789.11        75.16766
789.52        75.17669
789.93        75.12971
790.35        75.03193
790.76        74.90736
791.17        74.76034
791.58        74.65182
792.00        74.62025
792.41        74.67599
792.82         74.8963
793.23        75.19987
793.65        75.13146
794.06        74.83574
794.47        75.09869
794.88         75.7351
795.29        75.84093
795.71        75.34396
796.12        74.75378
796.53        74.28785
796.94        74.13911
797.35        74.40565
797.76        75.03287
798.18        75.75831
798.59        76.19644
799.00        76.21559
799.41        75.92689
799.82        75.49635
800.23        75.21573
800.64        75.18072
801.06        75.27267
801.47        75.46239
801.88        75.62078
802.29         75.7015
802.70        75.75303
803.11        75.78053
803.52         75.7779
803.93        75.74924
804.34         75.6804
804.75        75.59521
805.17        75.53675
805.58        75.54604
805.99        75.61003
806.40        75.69444
806.81        75.74171
807.22        75.73869
807.63        75.68881
808.04        75.65482
808.45        75.74067
808.86        75.96533
809.27        76.30664
809.68        76.63364
810.09        76.72449
810.50        76.53194
810.91        76.11627
811.32         75.6765
811.73        75.53441
812.14        75.76128
812.55        76.26558
812.96        76.83846
813.37        77.09295
813.78        76.92346
814.19        76.47813
814.60        75.94539
815.01        75.58646
815.42        75.47318
815.83        75.51546
816.24        75.68573
816.65        75.93093
817.05        76.19744
817.46           76.46
817.87        76.66847
818.28        76.68657
818.69        76.50335
819.10        76.15517
819.51         75.7483
819.92        75.49753
820.33        75.47834
820.74        75.62531
821.14        75.89258
821.55        76.20949
821.96        76.52823
822.37         76.8798
822.78        77.17496
823.19        77.25178
823.60        77.07398
824.00        76.66858
824.41        76.19545
824.82        75.94989
825.23        75.99783
825.64         76.2843
826.04        76.64874
826.45        76.71267
826.86        76.42019
827.27        75.89267
827.68        75.35857
828.08         75.1978
828.49        75.45489
828.90        76.04299
829.31         76.7849
829.72        77.37576
830.12        77.73091
830.53        77.84191
830.94         77.8381
831.35        77.89635
831.75        78.08688
832.16        78.27077
832.57        78.37431
832.97         78.2427
833.38        77.86815
833.79        77.39095
834.20        76.91415
834.60        76.54966
835.01        76.37064
835.42        76.30344
835.82        76.44711
836.23        76.89074
836.64        77.63016
837.04        78.65504
837.45        79.57853
837.86        79.92091
838.26         79.5673
838.67        78.66369
839.08         77.5863
839.48        76.90915
839.89        76.82507
840.29        77.16738
840.70        77.71355
841.11         78.1086
841.51        78.25814
841.92        78.23396
842.33        78.15182
842.73        78.18284
843.14        78.32069
843.54        78.52297
843.95        78.70446
844.35         78.8111
844.76        78.79699
845.17         78.6814
845.57         78.5242
845.98        78.37782
846.38         78.2849
846.79        78.23218
847.19         78.1497
847.60        77.86904
848.00        77.40212
848.41        76.82556
848.81        76.35086
849.22        76.28307
849.62        76.71035
850.03        77.48923
850.43        78.44703
850.84        79.06067
851.24        79.22373
851.65        78.94607
852.05        78.45476
852.46        78.07833
852.86        77.90907
853.27        77.94086
853.67        77.91419
854.07        77.67162
854.48        77.13337
854.88        76.37729
855.29         75.5929
855.69        75.39269
856.10        75.83261
856.50        76.82888
856.90        77.85154
857.31        78.14545
857.71        77.60651
858.12        76.42641
858.52        75.09357
858.92        74.38379
859.33         74.5108
859.73        75.27977
860.13        76.34294
860.54         77.1394
860.94        77.51655
861.34        77.54949
861.75        77.30569
862.15        76.96254
862.55        76.57112
862.96        76.11448
863.36         75.5352
863.76         74.7827
864.17        73.92458
864.57        73.06268
864.97        72.41364
865.38        72.23601
865.78         72.5989
866.18        73.38752
866.58        74.43339
866.99        75.34413
867.39        75.97701
867.79        76.37009
868.19        76.45835
868.60        76.17425
869.00        75.57342
869.40        74.66393
869.80        73.82183
870.21        73.69504
870.61        74.44257
871.01        75.82344
871.41        77.27657
871.81        77.89122
872.22        77.44622
872.62        76.23026
873.02        74.68021
873.42        73.54251
873.82        73.08544
874.22        73.12032
874.63        73.44992
875.03        73.76633
875.43          73.964
875.83        74.14821
876.23        74.42072
876.63        74.91721
877.03        75.62944
877.44        76.40819
877.84        77.10137
878.24        77.39687
878.64        77.23722
879.04        76.75156
879.44        76.13321
879.84        75.66402
880.24        75.41932
880.64        75.30865
881.04        75.32005
881.44        75.41605
881.84        75.56847
882.24        75.83044
882.65        76.02116
883.05        75.96851
883.45        75.60004
883.85        74.99823
884.25        74.47399
884.65        74.51254
885.05        75.17308
885.45        76.25132
885.85        77.42144
886.25        78.12218
886.65        78.15895
887.05         77.7212
887.45        76.88718
887.85        75.82299
888.25        74.71726
888.65        73.59838
889.04        72.70992
889.44        72.44617
889.84        72.78271
890.24        73.65166
890.64        74.75771
891.04        75.44671
891.44        75.48196
891.84        75.05519
892.24        74.46315
892.64         74.1323
893.04        74.16649
893.44         74.4243
893.83        74.86404
894.23        75.33224
894.63        75.78205
895.03        76.26323
895.43        76.71126
895.83        77.02151
896.23        77.17056
896.63        77.13223
897.02        76.99952
897.42        77.00764
897.82        77.17972
898.22        77.49441
898.62        77.73779
899.01         77.5601
899.41        76.90502
899.81        75.91277
900.21        74.95197
900.61        74.57843
901.00        74.89357
901.40        75.72763
901.80        76.66637
902.20        77.02504
902.59        76.62948
902.99        75.69326
903.39        74.61126
903.79        73.97478
904.18        73.93089
904.58        74.32791
904.98        74.87009
905.38        75.11398
905.77        74.92722
906.17        74.45039
906.57        73.95377
906.96        73.88493
907.36        74.30151
907.76        75.07952
908.15        75.86404
908.55        75.94872
908.95        75.26045
909.34         74.0326
909.74        72.83882
910.14        72.41598
910.53        72.96312
910.93        74.19342
911.33        75.75775
911.72        77.11009
912.12        77.95444
912.52        78.44307
912.91        78.67574
913.31        78.80726
913.70        78.91218
914.10        78.88654
914.49         78.6684
914.89         78.1799
915.29        77.46056
915.68        76.60065
916.08        75.84113
916.47        75.39401
916.87        75.36013
917.26        75.64417
917.66        76.10957
918.05        76.54398
918.45        76.81241
918.84        77.01453
919.24        77.09497
919.64        77.12994
920.03        77.13942
920.42        77.03857
920.82        76.90683
921.21        76.78159
921.61        76.68963
922.00        76.67381
922.40        76.63238
922.79        76.47816
923.19        76.17769
923.58        75.78287
923.98        75.46397
924.37         75.4948
924.77        75.89644
925.16        76.57866
925.55        77.27375
925.95        77.53972
926.34        77.30397
926.74        76.70834
927.13        75.99908
927.52        75.54585
927.92         75.4703
928.31        75.62144
928.70        75.94324
929.10         76.3324
929.49        76.71427
929.89        77.09312
930.28        77.34554
930.67        77.16662
931.07        76.54158
931.46        75.62278
931.85        74.66347
932.24        74.05268
932.64        73.90206
933.03        74.11121
933.42        74.63041
933.82        75.32843
934.21        76.11697
934.60        76.94833
934.99        77.68805
935.39        78.10242
935.78         78.1897
936.17        77.96725
936.56         77.4129
936.96         76.5915
937.35        75.62249
937.74        74.56666
938.13        73.73653
938.53        73.48826
938.92         73.8245
939.31        74.72486
939.70        75.82738
940.09        76.41206
940.49        76.24746
940.88        75.51508
941.27        74.68312
941.66        74.48668
942.05        75.08098
942.44        76.29305
942.84        77.58211
943.23        78.05653
943.62        77.41891
944.01        75.96298
944.40        74.43977
944.79         73.9407
945.18        74.68275
945.57        76.36829
945.97        78.17435
946.36        78.91285
946.75         78.1534
947.14        76.31544
947.53        74.29507
947.92         73.4349
948.31        74.05711
948.70        75.78438
949.09        77.84004
949.48         78.8261
949.87        78.31796
950.26         76.7747
950.65        75.01131
951.04        74.14413
951.43        74.43432
951.82        75.58659
952.21         76.9746
952.60        77.48421
952.99        76.79726
953.38        75.27689
953.77        73.74845
954.16        73.29819
954.55        74.12631
954.94        76.01922
955.33        78.10458
955.72        78.55178
956.11        76.83707
956.50        73.66238
956.89        70.50681
957.28        69.26354
957.66        70.31238
958.05        73.06412
958.44        76.48895
958.83        78.44102
959.22        78.15913
959.61        76.38303
960.00        74.18354
960.39        72.93716
960.78         72.9288
961.16        73.73135
961.55        74.84388
961.94        75.41483
962.33        75.11404
962.72        74.35838
963.11        73.44895
963.49        72.72144
963.88        72.29601
964.27        72.02802
964.66        71.98702
965.04        72.38133
965.43        73.11932
965.82        74.17269
966.21        75.28523
966.60        75.95361
966.98        76.04196
967.37        75.73018
967.76        75.18626
968.15        74.65383
968.53        74.20722
968.92        73.70124
969.31        73.37632
969.69        73.69925
970.08        74.69237
970.47        76.39917
970.86        78.06561
971.24        78.37631
971.63        77.06554
972.02        74.58179
972.40        72.15041
972.79        71.70265
973.17         73.5377
973.56         76.9279
973.95         80.7084
974.33        82.68273
974.72        82.08289
975.11        79.68054
975.49        76.53358
975.88        74.56799
976.26           74.32
976.65        75.16734
977.04        76.65543
977.42        77.95052
977.81        78.51631
978.19        78.72761
978.58        78.64055
978.96         78.1951
979.35        77.52454
979.74        76.64503
980.12        75.80357
980.51        75.43408
980.89        75.73052
981.28        76.40405
981.66        77.59731
982.05        79.21818
982.43         81.2198
982.82         83.5098
983.20        85.30986
983.59        85.17331
983.97        82.93848
984.35        79.14627
984.74        75.28681
985.12        73.42427
985.51        73.91345
985.89        76.27453
986.28        79.26328
986.66        81.12813
987.04        81.13132
987.43        79.82781
987.81        77.93209
988.20        76.96374
988.58        77.30868
988.96        78.51442
989.35        79.66074
989.73        79.56075
990.12        77.90414
990.50        75.28456
990.88        72.53915
991.27        70.97602
991.65        70.90275
992.03        71.92273
992.42        73.59727
992.80        75.56065
993.18        77.49857
993.56        79.56758
993.95        81.34679
994.33         82.2217
994.71        81.94003
995.10        80.69386
995.48        79.16132
995.86        78.47279
996.24        78.91959
996.63        80.18355
997.01        81.93757
997.39        83.27733
997.77        83.82264
998.15        83.79314
998.54        83.41302
998.92        83.05811
999.30        82.84423
999.68        82.68417
1000.06        82.44805
1000.45        81.88085
1000.83        81.03463
1001.21        80.04578
1001.59        79.32818
1001.97        79.48172
1002.35        80.56722
1002.73        82.32198
1003.12        84.16374
1003.50        85.10605
1003.88         84.9588
1004.26        84.06422
1004.64        82.78788
1005.02        81.79128
1005.40         81.3559
1005.78         81.2585
1006.16         81.5617
1006.54        82.39282
1006.92        83.70414
1007.30        85.51748
1007.69        87.37136
1008.07        88.37563
1008.45        88.09777
1008.83        86.76478
1009.21        84.89193
1009.59         83.4483
1009.97        82.79422
1010.35        82.64078
1010.73        83.01665
1011.11        83.92543
1011.49        85.18318
1011.86         86.8184
1012.24         88.0946
1012.62        88.05572
1013.00        86.48824
1013.38        83.51804
1013.76        79.84055
1014.14        77.11725
1014.52        76.06612
1014.90         76.3749
1015.28        77.30242
1015.66        77.50815
1016.04         76.6112
1016.41        75.13635
1016.79        73.51254
1017.17        72.63507
1017.55        72.85028
1017.93        73.72735
1018.31         74.9974
1018.69         76.6775
1019.06        79.01301
1019.44        82.14383
1019.82        86.38797
1020.20        90.86105
1020.58        93.91435
1020.95         94.8922
1021.33        94.08108
1021.71        92.01233
1022.09        88.74827
1022.46        83.78291
1022.84        77.34469
1023.22         71.2335
1023.60          67.684
1023.97        66.87982
1024.35        68.04028
1024.73        70.04829
