SpectraSmart Spectrum 2.9.0.0
--------- Device Information -----------
Spectrum Name :  反射率_0
Saving Time :  2024/04/30 00:00:03
Spectro-Module Model Name : SE2030-DUVN
Spectro-Module Serial Number : OS361AC55029948
Wavelength Start : 200
Wavelength End : 1025
Wavelength Unit : Wavelength(nm)
Spectrum Unit : Reflectance(%)
-----------Spectrum Setting ------------
Integration Time : 20ms
Average : 10
Boxcar : 0
Background removal :  enabled
linearity correction :  enabled
SC :  disabled
Intensity correction :  disabled
DWT denoise :  enabled
savitzky-golay :  disabled
FFT :  disabled
Running average :  disabled
Kalman :  disabled
High pass :  disabled
---------------BEGIN--------------------
Wavelength(nm)             Reflectance(%)
200.29               0
200.75        83.61948
201.21        83.15594
201.67        83.55409
202.13        82.81565
202.58        80.20998
203.04        75.30157
203.50        70.89322
203.96        73.77678
204.42        85.44448
204.88        102.8873
205.34        116.4508
205.80        113.5294
206.26        97.46022
206.72        77.87866
207.18        61.40444
207.64        51.21709
208.10        45.80775
208.55        42.60857
209.01        40.86686
209.47        40.54095
209.93         41.2467
210.39         43.1992
210.85        44.59774
211.31        43.45874
211.77        39.43772
212.23        31.77302
212.69        22.28426
213.14        20.71455
213.60         30.2247
214.06        44.40615
214.52        56.26658
214.98        62.04138
215.44        63.01007
215.90         61.0503
216.36        58.14874
216.81        57.98726
217.27        62.54597
217.73        71.67096
218.19        85.02355
218.65        96.57318
219.11        100.5175
219.57        98.09662
220.02        93.04058
220.48        88.85178
220.94        84.95655
221.40        79.67979
221.86        72.21371
222.32        64.35696
222.77        59.04341
223.23        57.25984
223.69        56.36065
224.15        53.77572
224.61        49.11318
225.06        42.42497
225.52        35.86877
225.98        34.46979
226.44        38.63507
226.90        44.94713
227.36        49.91459
227.81        51.16643
228.27        49.07745
228.73        44.51582
229.19        39.08869
229.65        36.41209
230.10        37.43855
230.56        40.37433
231.02        43.26134
231.48        44.48031
231.93        43.93967
232.39        42.27661
232.85        40.26749
233.31        39.33488
233.77         39.9155
234.22        41.70864
234.68        43.54761
235.14        43.38478
235.60        40.91213
236.05        37.06471
236.51        33.65695
236.97        32.96419
237.43        35.61102
237.88        41.59815
238.34        50.30742
238.80        58.55889
239.26        63.32286
239.71          64.667
240.17        63.69257
240.63        63.06665
241.08        63.89841
241.54         65.5276
242.00        68.37797
242.46        72.24597
242.91        75.95005
243.37        78.99775
243.83        81.05059
244.28        82.16557
244.74        82.63081
245.20        82.05295
245.66         81.4697
246.11        83.42701
246.57        88.94041
247.03        98.27612
247.48        107.7666
247.94        108.5797
248.40        101.3979
248.85        91.40685
249.31        84.62909
249.77        83.49516
250.22        87.84289
250.68        98.18246
251.14         114.191
251.59        122.7444
252.05        114.8492
252.51        101.0522
252.96        90.02656
253.42        84.53693
253.88        82.30815
254.33        81.52341
254.79         81.2158
255.25          79.618
255.70         76.7803
256.16        74.24925
256.62        72.50689
257.07        71.66434
257.53        71.74937
257.99        72.16293
258.44        71.93064
258.90        70.62114
259.35         68.1579
259.81        65.60732
260.27        63.44051
260.72        62.03553
261.18         61.4116
261.63        60.97409
262.09        60.51219
262.55        59.44539
263.00        57.76823
263.46        55.99398
263.91        54.20025
264.37        52.76334
264.83        51.59779
265.28         50.5041
265.74        49.59592
266.19        48.83067
266.65        48.25447
267.11        47.83471
267.56        47.37911
268.02        46.60173
268.47        45.43074
268.93        43.94796
269.38        42.38711
269.84        41.28485
270.30        40.75746
270.75        40.64576
271.21        40.62875
271.66        40.19806
272.12        39.25499
272.57        37.93354
273.03        36.52312
273.48        35.39981
273.94        34.72225
274.39        34.30988
274.85        34.01199
275.31        33.54424
275.76        32.83361
276.22        32.01791
276.67        31.19009
277.13        30.56703
277.58        30.13653
278.04          29.857
278.49        29.57436
278.95        29.17015
279.40        28.58426
279.86        27.94324
280.31        27.30175
280.77        26.85409
281.22        26.59146
281.68        26.47067
282.13        26.41777
282.59        26.38004
283.04        26.31094
283.50        26.23404
283.95         26.1042
284.41        25.86274
284.86        25.51242
285.32        25.12297
285.77        24.74508
286.22        24.52422
286.68        24.49172
287.13        24.55772
287.59        24.71141
288.04        24.87609
288.50        25.02695
288.95        25.14831
289.41        25.20145
289.86        25.08617
290.32        24.83901
290.77        24.51901
291.22        24.23169
291.68        24.13773
292.13          24.283
292.59        24.64548
293.04          25.255
293.50        26.18102
293.95        27.39726
294.40        28.87858
294.86        30.43824
295.31        31.79125
295.77          32.871
296.22        33.74399
296.68        34.60477
297.13         35.7471
297.58        37.24812
298.04        38.97984
298.49        40.79746
298.95        42.48059
299.40        43.96206
299.85        45.33393
300.31        46.66911
300.76        47.99807
301.21        49.39013
301.67        50.85259
302.12        52.39765
302.58        54.19559
303.03        56.22034
303.48        58.34315
303.94        60.49316
304.39        62.91572
304.84        64.90273
305.30        67.00499
305.75        68.96723
306.20        70.78012
306.66        72.46083
307.11        73.97593
307.57        75.42355
308.02        76.83598
308.47        78.27791
308.93        79.74101
309.38        81.20789
309.83        82.72018
310.29        84.26108
310.74        85.79762
311.19         87.2101
311.65        88.30231
312.10        89.03941
312.55        89.50873
313.00        89.93114
313.46        90.65951
313.91        91.74959
314.36        93.09336
314.82        94.48205
315.27        95.60096
315.72        96.33038
316.18        96.77075
316.63        97.00372
317.08        97.17447
317.53        97.36496
317.99        97.57056
318.44        97.79842
318.89        98.07892
319.35        98.42254
319.80        98.83237
320.25        99.36893
320.70         100.115
321.16        101.0256
321.61        102.0924
322.06        103.0865
322.51         103.658
322.97         103.721
323.42        103.3873
323.87        102.8917
324.32        102.6411
324.78        102.7352
325.23        103.1355
325.68        103.6816
326.13        104.0915
326.59        104.2644
327.04        104.3342
327.49        104.4174
327.94        104.7457
328.39        105.3605
328.85        106.1075
329.30        106.9073
329.75        107.4324
330.20        107.5922
330.66        107.4867
331.11        107.2589
331.56        107.0646
332.01        107.0039
332.46        107.0463
332.92        107.2303
333.37        107.7722
333.82        108.6312
334.27        109.7601
334.72         110.981
335.17        111.9854
335.63        112.6407
336.08        113.0633
336.53        113.2901
336.98        113.4781
337.43        113.6963
337.88        113.8969
338.34        114.1213
338.79        114.4631
339.24        114.9292
339.69        115.5336
340.14        116.1702
340.59        116.6339
341.05        116.8922
341.50        117.0125
341.95        117.1227
342.40        117.4539
342.85        118.0456
343.30        118.7801
343.75        119.5602
344.20         120.234
344.66        120.7519
345.11        121.1801
345.56        121.4426
346.01        121.4117
346.46        121.1237
346.91        120.6371
347.36        120.2544
347.81         120.435
348.26        121.2384
348.72        122.4972
349.17        123.8819
349.62        124.7481
350.07        124.9148
350.52        124.5926
350.97         124.048
351.42        123.6985
351.87        123.6778
352.32        123.8394
352.77         124.151
353.22        124.5742
353.67        125.0349
354.13         125.521
354.58        125.8813
355.03        125.8534
355.48        125.3856
355.93        124.5601
356.38        123.5111
356.83        122.4555
357.28        121.4851
357.73        120.5719
358.18        119.7443
358.63        119.0346
359.08         118.433
359.53        117.9327
359.98        117.4727
360.43        116.9422
360.88        116.3093
361.33        115.6009
361.78        114.8264
362.23        114.0116
362.68        113.1792
363.13        112.3248
363.58        111.5049
364.03        110.8086
364.48        110.2442
364.93        109.7826
365.38        109.3465
365.83        108.8091
366.28        108.1414
366.73        107.3856
367.18          106.59
367.63        105.8317
368.08        105.1314
368.53        104.4578
368.98        103.8144
369.43        103.2046
369.88        102.6333
370.33        102.1288
370.78        101.6404
371.23        101.0841
371.68        100.4429
372.13         99.7073
372.58        99.00803
373.03        98.56062
373.48        98.37691
373.93        98.38068
374.38        98.30899
374.83        97.73737
375.28         96.6207
375.72         95.1256
376.17        93.65047
376.62        92.60825
377.07         92.0875
377.52        91.92435
377.97        91.98116
378.42        92.03447
378.87        91.97596
379.32        91.86364
379.77        91.63212
380.22        91.17789
380.67         90.4963
381.11        89.60141
381.56          88.631
382.01        87.85198
382.46        87.35528
382.91        87.10425
383.36         86.9629
383.81        86.70427
384.26        86.26775
384.71        85.70096
385.15        85.13348
385.60        84.82678
386.05        84.78973
386.50        84.93347
386.95         85.0277
387.40        84.72845
387.85        84.00888
388.29         82.9782
388.74        82.01646
389.19        81.42284
389.64        81.24628
390.09        81.34223
390.54        81.55132
390.98        81.59686
391.43        81.42938
391.88        81.12823
392.33        80.70228
392.78        80.23452
393.23        79.77398
393.67        79.13028
394.12         78.4465
394.57        78.45333
395.02        78.02627
395.47        78.04633
395.91        78.11278
396.36        78.09074
396.81        77.94424
397.26         77.7171
397.71        77.46144
398.15        77.17146
398.60        76.94655
399.05        76.78891
399.50        76.64941
399.95        76.41802
400.39        75.87496
400.84        75.87366
401.29        76.22215
401.74        76.23131
402.18        75.84171
402.63        75.39561
403.08        75.06046
403.53        74.91782
403.97        74.98888
404.42        75.22571
404.87        75.46338
405.32         75.4222
405.76        75.03934
406.21        74.51487
406.66        73.97337
407.11        73.46925
407.55        73.17405
408.00        73.32285
408.45        73.80901
408.90        74.23979
409.34         74.4248
409.79        74.20999
410.24        73.77749
410.68        73.67602
411.13        73.95962
411.58        74.30579
412.03         74.5779
412.47        74.68982
412.92        74.56156
413.37        74.27003
413.81        73.86658
414.26        73.50525
414.71        73.19963
415.15        72.92838
415.60        72.71882
416.05        72.66786
416.49        72.78925
416.94        73.06004
417.39        73.35381
417.83        73.44202
418.28        73.28539
418.73         72.9471
419.17        72.58286
419.62        72.46197
420.07        72.61715
420.51        72.93147
420.96        73.29193
421.41        73.41135
421.85        73.20871
422.30        73.05178
422.74        72.89864
423.19        72.37505
423.64        71.67564
424.08        71.73162
424.53        72.46867
424.98        72.88956
425.42        72.88857
425.87        73.25871
426.31        73.84303
426.76        73.54101
427.21        72.43399
427.65        72.33133
428.10        73.07312
428.54        73.10687
428.99        72.45949
429.44        72.12015
429.88        72.16876
430.33        72.13377
430.77        72.06066
431.22        72.72126
431.66        73.82199
432.11        73.90637
432.56        72.99167
433.00        72.46427
433.45        72.76453
433.89        72.98478
434.34        73.72797
434.78        75.46988
435.23        72.60088
435.67        71.86588
436.12        71.80785
436.57        72.13058
437.01        72.65263
437.46        72.99647
437.90        73.14769
438.35        73.51159
438.79        74.03297
439.24        74.22086
439.68        74.10705
440.13        74.11452
440.57        74.28616
441.02        74.35715
441.46        74.28848
441.91        74.37213
442.35        74.56751
442.80        74.28341
443.24        74.91598
443.69        74.61979
444.13        73.96024
444.58        73.63924
445.02        73.65697
445.47        73.65138
445.91        73.59865
446.36        73.67204
446.80        73.83408
447.24        74.10587
447.69        74.39022
448.13        74.39947
448.58        74.18025
449.02        74.00271
449.47         73.9697
449.91        73.99625
450.36        74.11913
450.80        74.40668
451.25        74.76315
451.69        74.93636
452.13        74.88688
452.58        74.71915
453.02        74.51614
453.47         74.3883
453.91        74.35083
454.36        74.56094
454.80        74.61201
455.24        74.71262
455.69        74.73759
456.13        74.74641
456.58         74.7403
457.02        74.53775
457.46        74.22084
457.91        74.07531
458.35        74.05972
458.79         73.9655
459.24        73.81964
459.68        73.78226
460.13         73.8886
460.57        73.77655
461.01        73.97163
461.46        73.91973
461.90        73.79841
462.34        73.97595
462.79        74.27982
463.23        74.01645
463.68        73.28632
464.12        72.85944
464.56        72.79909
465.01         72.7189
465.45        72.60045
465.89        72.65664
466.34        72.80877
466.78        73.27502
467.22        73.40174
467.67        73.12603
468.11         73.2463
468.55        72.90309
468.99        72.48571
469.44        72.16772
469.88        72.00857
470.32        71.95671
470.77        71.95592
471.21        71.96243
471.65        71.93994
472.10        71.92515
472.54        71.92419
472.98         71.9858
473.42        72.10373
473.87        72.24849
474.31        72.35392
474.75         72.3484
475.20        72.21091
475.64        72.05011
476.08        71.95254
476.52        71.65881
476.97        71.11868
477.41        71.60047
477.85        71.23164
478.29        70.83878
478.74        71.69732
479.18        71.59483
479.62        71.19198
480.06        71.03628
480.50        71.17094
480.95        71.03577
481.39        71.79526
481.83        70.69643
482.27        71.59335
482.72        71.50155
483.16        71.44251
483.60        71.46301
484.04        71.57943
484.48        71.77581
484.93        71.81897
485.37        71.60925
485.81        70.76717
486.25        69.81856
486.69        71.04333
487.14        70.90741
487.58        70.78907
488.02        70.64988
488.46        71.23097
488.90        71.22469
489.34        70.50806
489.79        71.22292
490.23        70.58078
490.67        70.68666
491.11        70.69195
491.55        70.54947
491.99        70.29838
492.43        70.20134
492.88        70.29462
493.32         70.4359
493.76        70.58012
494.20        70.74703
494.64        70.91056
495.08        71.03429
495.52        71.10088
495.96        71.12456
496.41        71.12154
496.85        71.06562
497.29        70.88478
497.73        70.90104
498.17        70.34845
498.61        70.08459
499.05        69.97007
499.49        70.10738
499.93        70.38309
500.37        70.49554
500.82        70.45388
501.26         70.2771
501.70        70.48386
502.14         70.4604
502.58        70.30019
503.02        70.28191
503.46        70.39966
503.90        70.58709
504.34        70.77428
504.78         70.8751
505.22        70.84795
505.66        70.71516
506.10        70.54424
506.54        70.45986
506.98        70.41792
507.42        70.67561
507.86        70.01196
508.30        70.29871
508.74        69.91219
509.18        69.79427
509.62        69.62415
510.06         69.6143
510.50        69.78195
510.94        70.07164
511.38        70.38048
511.82        70.50345
512.26        70.39581
512.70        70.11855
513.14        69.79288
513.58        69.61013
514.02        69.62617
514.46        69.76373
514.90        69.92547
515.34         70.0323
515.78        70.06155
516.22         69.7396
516.66        69.70117
517.10        69.61501
517.54        69.67252
517.98        69.81634
518.42        69.97894
518.86        70.04627
519.30        69.98569
519.74        69.84123
520.18        69.67726
520.62        69.58897
521.06        69.60549
521.50        69.70571
521.93        69.84307
522.37        69.91854
522.81        69.91711
523.25        69.85978
523.69        69.81161
524.13        69.87315
524.57        70.05492
525.01        70.31413
525.45        70.55298
525.89         70.6162
526.32        70.46201
526.76        70.16949
527.20        69.83369
527.64        69.60496
528.08        69.52605
528.52        69.55393
528.96        69.64042
529.40        69.70872
529.83        69.72395
530.27        69.71384
530.71        69.68746
531.15        69.66314
531.59        69.64552
532.03        69.62679
532.46        69.57748
532.90        69.48495
533.34        69.34888
533.78        69.18992
534.22        69.05742
534.66        69.02277
535.09         69.0897
535.53        69.24432
535.97        69.42873
536.41        69.56438
536.85        69.62309
537.28        69.61963
537.72         69.5703
538.16        69.49938
538.60        69.41972
539.04        69.32242
539.47        69.19479
539.91        69.11283
540.35        69.07343
540.79        69.01575
541.22        68.90693
541.66        69.05901
542.10        68.89681
542.54        68.88454
542.97        68.86945
543.41        68.91023
543.85        68.99709
544.29        69.13145
544.72        69.24715
545.16        69.26633
545.60        69.17365
546.04        68.96256
546.47        68.72057
546.91        68.72555
547.35        68.96729
547.79        69.11633
548.22        69.07507
548.66        69.33533
549.10        69.45309
549.53        69.42638
549.97        69.04984
550.41         69.6498
550.84        69.15213
551.28        69.09736
551.72        68.87312
552.15         69.1392
552.59        69.00076
553.03        69.02131
553.46        68.96924
553.90        68.94039
554.34        68.90777
554.77        69.06723
555.21        69.04358
555.65        68.96349
556.08        68.77834
556.52        68.82349
556.96        69.04707
557.39        69.18301
557.83        69.21374
558.27        69.17461
558.70        69.11607
559.14        69.18362
559.57         69.3298
560.01        69.40276
560.45        69.39835
560.88         69.2467
561.32        69.29588
561.75        69.25864
562.19        69.23123
562.63        69.03857
563.06        68.75925
563.50         68.7854
563.93        69.02905
564.37        69.10167
564.80        68.95928
565.24        68.84705
565.68        68.79298
566.11         68.7757
566.55        68.81367
566.98        68.83813
567.42         68.9072
567.85        68.95171
568.29        68.96245
568.72        69.16025
569.16        69.65613
569.60        69.06048
570.03        69.44617
570.47        69.63702
570.90        69.49893
571.34        69.05659
571.77        69.40331
572.21        69.46984
572.64        69.56838
573.08         69.4653
573.51        69.19502
573.95         69.2131
574.38         69.6161
574.82        69.11926
575.25        69.44831
575.69        69.43117
576.12        69.01927
576.56        68.97331
576.99        68.80282
577.42        68.95111
577.86        68.66472
578.29        68.58182
578.73        69.44779
579.16        68.99318
579.60        69.48721
580.03        69.21887
580.47        69.43767
580.90        69.15801
581.33        68.84331
581.77        68.77936
582.20        69.15979
582.64        69.71761
583.07        68.86935
583.51        68.58179
583.94        68.66653
584.37        68.50686
584.81        68.28889
585.24        68.60841
585.68        69.26801
586.11        69.61301
586.54        68.69586
586.98        68.50381
587.41        69.31976
587.85        69.50691
588.28        69.40685
588.71        69.88559
589.15         69.2333
589.58        69.35954
590.01          68.652
590.45         68.7145
590.88        69.21462
591.31        69.44347
591.75        69.42648
592.18        69.37284
592.61        69.67948
593.05        68.22494
593.48        69.02352
593.91         69.8588
594.35        68.48525
594.78        68.29095
595.21        68.22518
595.65        69.06825
596.08        68.32418
596.51        68.82343
596.94        69.18927
597.38        69.28759
597.81        68.89605
598.24         69.1484
598.68        68.84674
599.11        68.35223
599.54        69.17964
599.97        69.87462
600.41         68.4628
600.84        68.45742
601.27        68.65874
601.70        69.06159
602.14        69.28861
602.57        68.83035
603.00        68.02596
603.43        68.01102
603.87        68.58163
604.30        68.91948
604.73         68.6416
605.16        68.54414
605.60        68.53951
606.03        68.55518
606.46        68.55703
606.89        68.58957
607.32        68.61016
607.76        68.68006
608.19        68.85739
608.62        68.57064
609.05        68.69574
609.48        68.82195
609.92        69.09867
610.35        68.93147
610.78        69.08105
611.21        68.47363
611.64        68.44196
612.07        68.78369
612.50         68.7058
612.94        68.56237
613.37        69.08458
613.80        68.85987
614.23        69.28375
614.66        69.30396
615.09        69.25169
615.52        69.13786
615.96        69.00191
616.39        68.88557
616.82        68.56395
617.25        68.86686
617.68        68.45461
618.11        68.55224
618.54        68.72106
618.97        68.79963
619.40        68.81422
619.84         68.7165
620.27        68.88655
620.70        69.07791
621.13        69.31055
621.56         68.9016
621.99        68.56346
622.42        68.07918
622.85        69.06532
623.28        68.53192
623.71         69.0562
624.14        68.71451
624.57        68.90916
625.00        68.87685
625.43         68.8466
625.86        68.61089
626.29        68.38674
626.72        68.43034
627.15        68.34129
627.58        68.48298
628.01        68.63107
628.44        68.69729
628.87        68.48267
629.30        68.42837
629.73        68.51044
630.16        68.56968
630.59        68.53555
631.02        68.75323
631.45          68.863
631.88        68.91679
632.31        68.78557
632.74         68.8339
633.17        68.55273
633.60        68.43194
634.03         68.3368
634.46        68.25531
634.89        68.19816
635.32        68.20264
635.75        68.27074
636.18        68.37989
636.61        68.49529
637.04        68.57063
637.47        68.60622
637.89        68.57001
638.32        68.44439
638.75        68.41385
639.18        68.52614
639.61        68.06461
640.04        68.27785
640.47        68.20834
640.90        68.22821
641.33        68.31264
641.76        68.42556
642.18        68.48337
642.61        68.43148
643.04        68.30567
643.47        68.18096
643.90        68.15726
644.33        68.24802
644.76         68.5094
645.18        68.81474
645.61        68.76707
646.04         68.2779
646.47        68.19783
646.90        68.46109
647.33        68.50239
647.75        68.29634
648.18        68.19707
648.61        68.23791
649.04         68.2702
649.47        68.29198
649.89         68.4641
650.32         68.6823
650.75        68.60905
651.18        68.34337
651.61        68.34726
652.03        68.64299
652.46        68.94905
652.89        69.06456
653.32        68.89348
653.74          68.576
654.17        67.93184
654.60         67.7247
655.03        68.69285
655.46        67.60935
655.88        68.54962
656.31        68.92406
656.74         69.7647
657.16        70.18017
657.59        68.88412
658.02        67.71368
658.45        68.70084
658.87        68.80774
659.30         68.1564
659.73        68.94672
660.15        69.20073
660.58        69.00866
661.01        68.94571
661.44        68.85164
661.86        68.48473
662.29        67.98215
662.72        68.10523
663.14         68.7283
663.57        68.69326
664.00        68.09563
664.42        67.95094
664.85        68.30256
665.27        68.54213
665.70        68.59734
666.13        68.67346
666.55        68.75977
666.98        68.78271
667.41        68.74342
667.83        68.64586
668.26        68.49459
668.69        68.31339
669.11        68.14232
669.54        68.04394
669.96        68.03362
670.39        68.09197
670.82        68.18678
671.24         68.2736
671.67        68.31803
672.09        68.32484
672.52         68.3213
672.94        68.41169
673.37        68.07365
673.80        68.50608
674.22        68.18578
674.65        68.26562
675.07        68.35265
675.50        68.46606
675.92        68.57531
676.35        68.62038
676.77        68.60618
677.20        68.52357
677.62        68.43311
678.05         68.4326
678.47        68.53263
678.90        68.70927
679.32        68.86857
679.75         68.8723
680.17        68.69296
680.60        68.39306
681.02        68.08081
681.45        67.92955
681.87        67.98579
682.30        68.18516
682.72        68.46451
683.15        68.65263
683.57        68.73496
684.00        68.80317
684.42        68.86188
684.85          68.907
685.27        68.95024
685.70        68.90044
686.12        68.82261
686.54        69.10345
686.97        69.61344
687.39         69.8072
687.82        69.62108
688.24        69.49999
688.66        69.44901
689.09        69.19302
689.51        68.81114
689.94        68.57704
690.36        68.52602
690.78        68.58716
691.21        68.71375
691.63        68.83005
692.06        68.90392
692.48        68.97047
692.90         69.0183
693.33        69.01918
693.75        68.97544
694.17        68.87868
694.60        68.77657
695.02        68.74083
695.44        68.77809
695.87        68.95676
696.29        69.19954
696.71        69.13155
697.14        68.83517
697.56         68.8203
697.98        69.08102
698.41        69.20004
698.83        69.15655
699.25        69.20472
699.68        69.31111
700.10        69.35025
700.52        69.29585
700.94        69.20231
701.37        69.07494
701.79        68.93984
702.21        68.80517
702.64        68.67559
703.06         68.5883
703.48        68.61161
703.90        68.75401
704.33        69.00809
704.75        69.26909
705.17        69.43004
705.59        69.43172
706.01        69.30728
706.44        69.13885
706.86        69.04971
707.28        69.06813
707.70        69.20978
708.12        69.41035
708.55        69.43768
708.97         69.3256
709.39        69.37658
709.81        69.59631
710.23        69.75654
710.66        69.83659
711.08        69.98225
711.50        70.16451
711.92        70.30288
712.34        70.38773
712.76        70.44337
713.19        70.43777
713.61        70.36678
714.03        70.22166
714.45        70.01974
714.87        69.83037
715.29        69.75587
715.71        69.81265
716.13        69.97119
716.56        70.14455
716.98        70.26749
717.40        70.27728
717.82        70.20364
718.24        70.08791
718.66        69.99959
719.08        69.96126
719.50        69.94832
719.92        69.94992
720.34        69.95052
720.76        69.94297
721.19        69.93047
721.61        69.92019
722.03        69.89246
722.45         69.8451
722.87        69.77806
723.29          69.709
723.71        69.66832
724.13        69.66364
724.55        69.69138
724.97        69.72892
725.39        69.73554
725.81        69.70773
726.23        69.66378
726.65        69.63473
727.07        69.67289
727.49        69.78202
727.91         69.9255
728.33        70.08234
728.75        70.21807
729.17        70.31365
729.59        70.39071
730.01        70.39894
730.43        70.25854
730.85        69.98112
731.27        69.60486
731.69        69.27948
732.10        69.23753
732.52        69.52219
732.94        70.07073
733.36        70.70989
733.78        71.13796
734.20        71.25018
734.62        71.07867
735.04         70.7923
735.46        70.73049
735.88        70.92628
736.30        71.15202
736.72        71.27029
737.13        71.23509
737.55        70.98611
737.97        70.48746
738.39         69.9442
738.81        69.79523
739.23         70.0587
739.65        70.41734
740.06        70.68389
740.48        70.83035
740.90        70.79055
741.32        70.52374
741.74        70.15277
742.16        69.97755
742.57        70.07973
742.99        70.26747
743.41        70.48275
743.83        70.80872
744.25        71.11944
744.67        71.03473
745.08        70.65045
745.50        70.48382
745.92        70.59944
746.34        70.70634
746.75        70.76668
747.17        70.84654
747.59        70.93013
748.01        71.00682
748.42         71.0716
748.84         71.0948
749.26        71.08542
749.68        71.01894
750.09        70.91213
750.51        70.89925
750.93         70.9456
751.35        70.88413
751.76        70.74222
752.18        70.69415
752.60        70.75022
753.01        70.82244
753.43        70.87257
753.85        70.91227
754.27        70.94532
754.68        70.99597
755.10         71.0575
755.52        71.12047
755.93        71.16305
756.35        71.15761
756.77        71.19497
757.18        71.33549
757.60        71.57578
758.02        72.15273
758.43        72.77858
758.85        72.42146
759.26        71.32294
759.68        70.91002
760.10        71.26529
760.51        71.48556
760.93        71.50494
761.34        71.58804
761.76        71.92282
762.18        71.93654
762.59        71.70723
763.01        71.25443
763.42        70.76768
763.84        70.49865
764.26        70.52211
764.67        70.74855
765.09        71.09142
765.50        71.35749
765.92        71.50391
766.33        71.60741
766.75        71.62888
767.16        71.67092
767.58        71.70323
768.00        71.69434
768.41         71.6443
768.83        71.63334
769.24        71.62479
769.66        71.46992
770.07        71.22668
770.49        71.14647
770.90        71.25718
771.32        71.49628
771.73        71.79234
772.15        71.90838
772.56        71.81467
772.97        71.84856
773.39        71.57777
773.80        71.60945
774.22        71.78939
774.63        72.11076
775.05        72.41857
775.46        72.56886
775.88        72.48969
776.29        72.27137
776.70        71.98278
777.12        71.75546
777.53        71.64709
777.95        71.60706
778.36        71.65065
778.77         71.7879
779.19        71.99963
779.60        72.30906
780.02         72.6092
780.43        72.80365
780.84        72.84947
781.26        72.66755
781.67        72.39367
782.09        72.45803
782.50        72.80585
782.91        72.88342
783.33        72.64461
783.74        72.48103
784.15        72.39704
784.57        72.17171
784.98        71.88551
785.39        71.79172
785.81         71.9294
786.22        72.21387
786.63        72.59716
787.04        73.00405
787.46        73.39125
787.87        73.74474
788.28        74.03281
788.70        74.20322
789.11        74.23741
789.52         74.1609
789.93         73.9988
790.35        73.79399
790.76         73.5953
791.17         73.4144
791.58        73.29599
792.00        73.28356
792.41        73.40107
792.82        73.61182
793.23        73.88013
793.65        74.14663
794.06        74.37904
794.47        74.56963
794.88        74.66117
795.29        74.57564
795.71        74.28391
796.12        73.85011
796.53        73.42085
796.94        73.28294
797.35        73.51561
797.76        74.04116
798.18        74.66158
798.59        75.09346
799.00        75.22393
799.41        75.13339
799.82        74.91652
800.23        74.74243
800.64        74.67388
801.06         74.6317
801.47        74.63493
801.88        74.63979
802.29        74.62784
802.70        74.61487
803.11        74.60552
803.52        74.59153
803.93        74.58487
804.34        74.59904
804.75        74.60472
805.17        74.61249
805.58        74.66155
805.99        74.54616
806.40         74.3809
806.81        74.79375
807.22         75.5948
807.63        75.71772
808.04        75.20597
808.45        75.06562
808.86        75.36044
809.27        75.49596
809.68        75.41819
810.09        75.35122
810.50        75.29873
810.91         75.1934
811.32        75.10349
811.73        75.13702
812.14        75.30547
812.55        75.59312
812.96        75.87468
813.37        75.91228
813.78        75.66272
814.19        75.22371
814.60        74.76033
815.01        74.50289
815.42        74.50372
815.83        74.69192
816.24        74.99715
816.65        75.27323
817.05        75.44543
817.46        75.51316
817.87         75.4994
818.28        75.38434
818.69        75.18221
819.10         74.8948
819.51        74.59164
819.92        74.41378
820.33        74.40913
820.74        74.54594
821.14        74.77354
821.55        75.00992
821.96        75.21545
822.37        75.41464
822.78        75.58206
823.19        75.67677
823.60        75.68148
824.00        75.57904
824.41         75.4173
824.82        75.31676
825.23        75.30048
825.64        75.36091
826.04        75.41199
826.45        75.21923
826.86        74.78281
827.27        74.18523
827.68        73.63246
828.08        73.46336
828.49        73.70512
828.90         74.2966
829.31        75.04298
829.72        75.59993
830.12        75.87764
830.53        75.87134
830.94        75.75571
831.35        75.79369
831.75        76.07298
832.16        76.42975
832.57        76.72916
832.97        76.71109
833.38        76.33584
833.79        75.77562
834.20        75.17726
834.60        74.71777
835.01        74.49146
835.42        74.40945
835.82        74.55787
836.23        75.00742
836.64        75.74677
837.04        76.77186
837.45        77.71201
837.86        78.10611
838.26        77.83868
838.67        77.04505
839.08         76.0641
839.48        75.41785
839.89        75.29092
840.29        75.53207
840.70        75.96851
841.11        76.32533
841.51        76.52959
841.92        76.63804
842.33        76.71512
842.73        76.84097
843.14        76.98654
843.54        77.13382
843.95        77.25563
844.35         77.3933
844.76        77.51562
845.17        77.59655
845.57        77.63094
845.98        77.57118
846.38        77.43011
846.79        77.23132
847.19        76.93327
847.60        76.41785
848.00        75.73421
848.41        74.96012
848.81        74.33466
849.22        74.20048
849.62        74.64662
850.03        75.52112
850.43        76.62705
850.84        77.39004
851.24        77.67864
851.65        77.52117
852.05        77.11262
852.46        76.74197
852.86        76.50551
853.27        76.39689
853.67        76.25682
854.07        76.06403
854.48        75.75498
854.88        75.38586
855.29        75.00596
855.69        74.92516
856.10        75.11394
856.50        75.59021
856.90         76.0507
857.31         76.0863
857.71        75.67307
858.12        74.89255
858.52        74.08504
858.92        73.77076
859.33        74.06157
859.73        74.83428
860.13        75.77531
860.54        76.37816
860.94        76.53169
861.34        76.29901
861.75         75.7923
862.15        75.27747
862.55        74.83381
862.96        74.42498
863.36        73.98523
863.76        73.43414
864.17        72.80309
864.57        72.18539
864.97        71.71439
865.38        71.52737
865.78        71.67175
866.18        72.05265
866.58        72.60484
866.99        73.16701
867.39        73.68968
867.79        74.16792
868.19        74.43934
868.60        74.27275
869.00        73.67586
869.40        72.70683
869.80        71.78759
870.21        71.63502
870.61        72.43822
871.01        73.93856
871.41        75.53769
871.81        76.28291
872.22        75.93103
872.62        74.75021
873.02         73.2517
873.42        72.29575
873.82        72.15846
874.22        72.63644
874.63        73.31879
875.03        73.57027
875.43         73.2485
875.83        72.54578
876.23        71.93799
876.63         72.1921
877.03         73.4279
877.44        75.29517
877.84        77.15697
878.24        77.89587
878.64        77.28007
879.04        75.74834
879.44         73.9161
879.84        72.67315
880.24        72.25864
880.64        72.38445
881.04        72.89313
881.44        73.51781
881.84        74.12373
882.24        74.83974
882.65        75.44357
883.05         75.6675
883.45        75.40807
883.85        74.72536
884.25        73.99887
884.65        73.84861
885.05        74.37677
885.45        75.37539
885.85        76.48369
886.25        77.06705
886.65        76.92548
887.05        76.28294
887.45        75.31077
887.85        74.31439
888.25        73.48648
888.65        72.77785
889.04        72.28944
889.44           72.24
889.84        72.57851
890.24        73.28362
890.64        74.14625
891.04         74.6919
891.44        74.75092
891.84        74.45612
892.24        74.02503
892.64        73.78117
893.04         73.7995
893.44        73.96351
893.83        74.26674
894.23        74.61404
894.63         74.9774
895.03        75.39388
895.43        75.74223
895.83        75.83227
896.23        75.63423
896.63        75.15852
897.02        74.60977
897.42        74.39959
897.82        74.59522
898.22        75.13404
898.62        75.67888
899.01        75.66866
899.41        74.99628
899.81        73.86572
900.21         72.7663
900.61          72.447
901.00        73.04277
901.40        74.29829
901.80        75.69513
902.20        76.37672
902.59         76.1143
902.99        75.19041
903.39        74.02229
903.79        73.23895
904.18        73.01441
904.58        73.16508
904.98        73.49165
905.38        73.70795
905.77        73.69524
906.17        73.56466
906.57        73.38575
906.96        73.27306
907.36        73.23283
907.76        73.24979
908.15        73.24503
908.55          72.992
908.95        72.53595
909.34        71.94156
909.74        71.53239
910.14        71.65615
910.53        72.39601
910.93        73.59207
911.33        74.97466
911.72         76.1236
912.12        76.81122
912.52        77.14142
912.91        77.27302
913.31        77.48206
913.70          77.841
914.10        78.19261
914.49        78.36375
914.89          78.091
915.29        77.36982
915.68        76.36621
916.08        75.32873
916.47        74.48595
916.87        73.98623
917.26        73.73712
917.66        73.76746
918.05        74.13757
918.45        74.75513
918.84         75.6377
919.24        76.48902
919.64        76.94819
920.03         76.9146
920.42        76.44369
920.82        75.79478
921.21        75.29126
921.61        75.05476
922.00        75.03056
922.40         75.1238
922.79        75.25826
923.19        75.35796
923.58        75.47025
923.98        75.62081
924.37        75.84512
924.77        76.13044
925.16        76.45978
925.55        76.71227
925.95        76.71039
926.34        76.45214
926.74        75.97732
927.13         75.4854
927.52        75.26278
927.92         75.3806
928.31        75.73764
928.70        76.15212
929.10        76.30855
929.49        76.12074
929.89        75.64608
930.28        75.05013
930.67        74.54557
931.07        74.22161
931.46        74.04644
931.85        73.93282
932.24        73.74794
932.64        73.48753
933.03         73.2395
933.42        73.11433
933.82        73.26563
934.21        73.73461
934.60        74.37007
934.99        75.11615
935.39        75.87811
935.78        76.62555
936.17         77.3366
936.56        77.69009
936.96        77.21556
937.35        75.93505
937.74        74.11834
938.13        72.39882
938.53        71.56989
938.92        71.73515
939.31        72.73199
939.70         74.1543
940.09        75.17689
940.49        75.46549
940.88        75.22295
941.27         74.7695
941.66        74.62623
942.05        74.92864
942.44        75.53889
942.84        76.10741
943.23        76.13429
943.62        75.46426
944.01        74.30019
944.40        73.21543
944.79        73.02374
945.18         73.8575
945.57        75.48118
945.97        77.16564
946.36        77.87904
946.75         77.2326
947.14        75.59304
947.53        73.71651
947.92        72.74538
948.31        72.97337
948.70        74.08596
949.09        75.53355
949.48        76.31863
949.87        76.11347
950.26        75.23762
950.65        74.19628
951.04        73.67651
951.43        73.83269
951.82        74.45476
952.21        75.13994
952.60         75.2025
952.99          74.479
953.38        73.24628
953.77        72.03625
954.16        71.51646
954.55        71.81667
954.94        72.80904
955.33         74.0379
955.72        74.52763
956.11        73.95341
956.50        72.63052
956.89        71.29669
957.28        70.92593
957.66        71.74617
958.05        73.41776
958.44        75.31191
958.83         76.1532
959.22        75.54398
959.61        73.95235
960.00        72.16968
960.39        71.19116
960.78        71.19421
961.16        71.91524
961.55        72.87093
961.94         73.2062
962.33        72.64243
962.72        71.57314
963.11        70.42263
963.49        69.72888
963.88        69.62662
964.27        69.91738
964.66        70.51576
965.04        71.33833
965.43        72.18868
965.82        73.09954
966.21        73.90849
966.60        74.30216
966.98        74.22981
967.37        73.82789
967.76        73.23492
968.15        72.64591
968.53        72.12493
968.92        71.56034
969.31        71.21659
969.69        71.59461
970.08         72.7116
970.47        74.55212
970.86         76.3317
971.24        76.69164
971.63        75.35017
972.02        72.80515
972.40        70.20794
972.79        69.36636
973.17        70.59937
973.56          73.219
973.95        76.32733
974.33        78.20546
974.72        78.17886
975.11        76.84304
975.49        74.86785
975.88        73.56021
976.26        73.27298
976.65        73.53713
977.04        74.11585
977.42        74.60878
977.81        74.69569
978.19        74.66937
978.58        74.54942
978.96        74.20416
979.35        73.72289
979.74        73.14279
980.12        72.72607
980.51        72.90337
980.89         73.8191
981.28        75.14481
981.66        76.83913
982.05        78.53009
982.43        80.13941
982.82        81.69287
983.20        82.69756
983.59        82.22757
983.97        80.26719
984.35        77.15417
984.74        74.22314
985.12        73.32235
985.51         74.6851
985.89        77.88475
986.28         81.4563
986.66        83.27419
987.04        82.55183
987.43        79.93497
987.81        76.53044
988.20        74.59338
988.58        74.74852
988.96        76.38638
989.35        78.28314
989.73        78.67844
990.12        77.07294
990.50        74.24799
990.88        71.13369
991.27        69.19308
991.65        68.80753
992.03        69.47701
992.42        70.85403
992.80        72.75124
993.18        74.85809
993.56        77.30997
993.95        79.46112
994.33        80.23752
994.71        79.30934
995.10        77.07085
995.48        74.50081
995.86        73.16903
996.24        73.44322
996.63        74.79724
997.01        76.87624
997.39        78.71014
997.77        79.82528
998.15        80.54543
998.54        80.66008
998.92        79.84749
999.30        78.15746
999.68        75.61822
1000.06        73.06577
1000.45        72.11416
1000.83        73.28709
1001.21        76.15706
1001.59        79.73156
1001.97        82.28948
1002.35        83.26675
1002.73        83.10139
1003.12        82.19983
1003.50        81.16711
1003.88        80.34136
1004.26        79.56618
1004.64        78.96121
1005.02        78.79124
1005.40         79.0702
1005.78        79.70119
1006.16        80.58743
1006.54        81.56326
1006.92        82.54735
1007.30        83.59615
1007.69        84.29925
1008.07        84.02164
1008.45        82.54001
1008.83        80.06461
1009.21        77.42881
1009.59        76.03505
1009.97        76.25759
1010.35        77.69779
1010.73         79.7301
1011.11        81.26086
1011.49        81.87435
1011.86        81.92259
1012.24        81.32129
1012.62        80.15584
1013.00        78.50389
1013.38        76.24026
1013.76        73.73418
1014.14        71.90995
1014.52        71.18494
1014.90        71.52687
1015.28        72.42195
1015.66        72.88544
1016.04        72.66189
1016.41        72.06613
1016.79        71.50841
1017.17        71.77164
1017.55        72.95484
1017.93        74.57403
1018.31        76.27465
1018.69        78.01769
1019.06        80.06866
1019.44        82.49728
1019.82        85.63401
1020.20        89.01842
1020.58        91.47977
1020.95        92.47266
1021.33        91.88361
1021.71         89.6648
1022.09        85.74377
1022.46        79.59353
1022.84        71.91278
1023.22         65.8284
1023.60        63.91878
1023.97        65.58194
1024.35        68.78821
1024.73        71.29084
