SpectraSmart Spectrum 2.9.0.0
--------- Device Information -----------
Spectrum Name :  反射率_0
Saving Time :  2024/04/30 00:17:11
Spectro-Module Model Name : SE2030-DUVN
Spectro-Module Serial Number : OS361AC55029948
Wavelength Start : 200
Wavelength End : 1025
Wavelength Unit : Wavelength(nm)
Spectrum Unit : Reflectance(%)
-----------Spectrum Setting ------------
Integration Time : 20ms
Average : 10
Boxcar : 0
Background removal :  enabled
linearity correction :  enabled
SC :  disabled
Intensity correction :  disabled
DWT denoise :  enabled
savitzky-golay :  disabled
FFT :  disabled
Running average :  disabled
Kalman :  disabled
High pass :  disabled
---------------BEGIN--------------------
Wavelength(nm)             Reflectance(%)
200.29               0
200.75         94.1833
201.21        90.05314
201.67        85.68428
202.13        79.36848
202.58         70.9048
203.04        59.53825
203.50          50.122
203.96        53.64591
204.42        72.89201
204.88        103.5518
205.34        130.6511
205.80        133.4549
206.26        115.2497
206.72        90.10775
207.18        68.20303
207.64        54.94071
208.10        48.69325
208.55        46.02428
209.01        45.99457
209.47        48.00908
209.93        50.94439
210.39        54.80952
210.85        57.99861
211.31        59.14442
211.77        58.27342
212.23        54.92691
212.69        50.03539
213.14        49.04715
213.60        53.53288
214.06        60.69265
214.52        66.53545
214.98        68.63729
215.44        67.65736
215.90        64.50739
216.36        61.18503
216.81        61.54279
217.27        67.52744
217.73        79.56589
218.19        95.57104
218.65        104.3871
219.11        99.82944
219.57        87.35936
220.02        75.34378
220.48         69.1839
220.94        67.68968
221.40        68.80932
221.86        71.06328
222.32        70.61118
222.77        66.45099
223.23        62.18141
223.69        58.35256
224.15        54.38613
224.61        49.80544
225.06        44.03415
225.52        38.48063
225.98        36.77089
226.44         39.3742
226.90        43.92678
227.36        47.86674
227.81        49.46993
228.27        48.97847
228.73        46.93438
229.19        44.24778
229.65        42.92237
230.10        43.41632
230.56        44.77974
231.02        45.86023
231.48        45.63399
231.93        44.04314
232.39        41.59566
232.85        38.88709
233.31        37.10653
233.77         36.7206
234.22        37.51452
234.68         38.9261
235.14        39.89127
235.60         40.1132
236.05         39.9472
236.51         40.0787
236.97        41.47024
237.43        44.50774
237.88        49.39579
238.34        55.77359
238.80        61.89947
239.26        65.87556
239.71        67.63755
240.17        67.82968
240.63        68.39394
241.08        70.42533
241.54        73.93995
242.00        80.33418
242.46        90.27824
242.91        101.5907
243.37        110.9728
243.83        116.9001
244.28        121.1016
244.74        124.8092
245.20        126.7885
245.66        127.6278
246.11        128.9421
246.57        131.0654
247.03        135.6726
247.48        138.3471
247.94        130.2942
248.40        115.2498
248.85         99.7123
249.31         90.3364
249.77         89.3686
250.22        96.28921
250.68        112.3319
251.14        136.7303
251.59         148.736
252.05        135.2161
252.51        113.0782
252.96         96.0954
253.42         88.3869
253.88        86.47607
254.33        87.42004
254.79        89.49418
255.25        89.26498
255.70        86.29331
256.16        83.14219
256.62        80.61324
257.07        78.92094
257.53        78.17179
257.99        77.65346
258.44         76.6797
258.90        75.30184
259.35        73.29132
259.81        71.40106
260.27        69.72793
260.72        68.33225
261.18        67.32911
261.63        66.28129
262.09        65.17497
262.55        63.64191
263.00        61.71394
263.46        59.83815
263.91        58.00185
264.37        56.50643
264.83        55.24739
265.28        54.05459
265.74        53.08762
266.19        52.35801
266.65        51.90672
267.11        51.64426
267.56        51.32065
268.02        50.58416
268.47        49.34192
268.93        47.70445
269.38        45.90276
269.84        44.47959
270.30        43.58545
270.75        43.07831
271.21        42.71596
271.66        42.08797
272.12        41.10016
272.57        39.85107
273.03        38.54638
273.48        37.42097
273.94        36.61036
274.39        35.99014
274.85        35.46931
275.31        34.84389
275.76        34.05929
276.22        33.21495
276.67        32.40694
277.13        31.86481
277.58        31.55762
278.04        31.43738
278.49        31.28455
278.95        30.88888
279.40        30.18548
279.86        29.34299
280.31         28.4944
280.77        27.95613
281.22        27.74118
281.68         27.7625
282.13         27.8894
282.59        27.99459
283.04        28.00735
283.50        27.97373
283.95        27.86164
284.41        27.63369
284.86        27.29894
285.32        26.92268
285.77        26.54624
286.22        26.30924
286.68        26.24594
287.13        26.27131
287.59         26.4007
288.04        26.58978
288.50        26.82036
288.95        27.06782
289.41        27.25456
289.86        27.22229
290.32        26.99658
290.77        26.64199
291.22        26.32052
291.68        26.28153
292.13        26.58402
292.59        27.18709
293.04        28.02647
293.50        29.03596
293.95        30.17811
294.40        31.48078
294.86        32.89396
295.31        34.34788
295.77        35.81347
296.22         37.2765
296.68        38.78146
297.13        40.38346
297.58        42.09742
298.04        43.87048
298.49        45.65198
298.95        47.37651
299.40        49.01969
299.85        50.61697
300.31        52.21152
300.76        53.78695
301.21        55.39569
301.67        57.07381
302.12        58.81565
302.58        60.75982
303.03        62.87678
303.48        65.06237
303.94         67.2984
304.39        69.82995
304.84        72.08682
305.30        74.50719
305.75        76.80717
306.20         78.8809
306.66        80.72465
307.11        82.31246
307.57        83.82134
308.02        85.38954
308.47        87.10135
308.93        88.91928
309.38        90.71161
309.83        92.34953
310.29        93.79568
310.74        95.07691
311.19        96.23151
311.65        97.30316
312.10        98.29748
312.55         99.2219
313.00        100.1406
313.46        101.1607
313.91        102.2764
314.36        103.4581
314.82        104.6149
315.27        105.6247
315.72        106.4222
316.18        107.0435
316.63        107.4929
317.08        107.7973
317.53        108.0043
317.99        108.1529
318.44        108.2925
318.89        108.5173
319.35        108.8535
319.80        109.2748
320.25         109.817
320.70         110.527
321.16        111.3496
321.61        112.3047
322.06        113.1717
322.51        113.6127
322.97        113.5567
323.42        113.1163
323.87        112.5555
324.32         112.328
324.78        112.5323
325.23        113.1163
325.68        113.8613
326.13        114.3873
326.59        114.5583
327.04          114.53
327.49        114.4607
327.94        114.6624
328.39        115.2005
328.85        115.8971
329.30        116.6493
329.75        117.0716
330.20        117.0619
330.66        116.7453
331.11        116.3152
331.56        115.9889
332.01        115.8894
332.46        115.9837
332.92        116.2549
333.37        116.8396
333.82        117.6656
334.27        118.6859
334.72         119.818
335.17        120.9185
335.63        121.8728
336.08        122.7503
336.53        123.3836
336.98        123.5963
337.43        123.3959
337.88        122.8549
338.34        122.2772
338.79        122.1702
339.24         122.646
339.69        123.5944
340.14        124.7231
340.59        125.5084
341.05        125.8091
341.50        125.7888
341.95        125.6528
342.40        125.7536
342.85        126.1759
343.30         126.751
343.75        127.3792
344.20        127.9164
344.66         128.318
345.11        128.6752
345.56        128.8976
346.01        128.8208
346.46        128.4707
346.91        127.8967
347.36        127.4413
347.81         127.629
348.26        128.5181
348.72        129.9181
349.17        131.3996
349.62        132.1519
350.07        131.9738
350.52         131.145
350.97        130.0857
351.42         129.441
351.87        129.3924
352.32        129.7237
352.77        130.2838
353.22        130.8382
353.67        131.2529
354.13        131.5719
354.58        131.7113
355.03        131.5185
355.48        130.9724
355.93        130.1077
356.38        129.0214
356.83        127.8813
357.28        126.7661
357.73        125.6765
358.18        124.6552
358.63        123.7483
359.08         122.959
359.53        122.2789
359.98        121.6627
360.43        121.0251
360.88        120.3366
361.33        119.6149
361.78        118.8479
362.23        118.0258
362.68        117.1564
363.13        116.2365
363.58        115.3273
364.03        114.5289
364.48        113.8541
364.93        113.2739
365.38        112.7042
365.83        112.0084
366.28         111.163
366.73        110.2202
367.18        109.2577
367.63        108.3953
368.08        107.6574
368.53         106.994
368.98        106.3729
369.43        105.7384
369.88        105.0804
370.33          104.45
370.78        103.8133
371.23        103.1143
371.68        102.3539
372.13        101.5168
372.58        100.7569
373.03        100.3263
373.48        100.2352
373.93        100.3885
374.38         100.475
374.83        99.98962
375.28        98.86089
375.72        97.27296
376.17        95.65201
376.62        94.45089
377.07        93.77441
377.52        93.45361
377.97         93.3565
378.42        93.26979
378.87        93.09634
379.32        92.90463
379.77        92.63099
380.22        92.16887
380.67        91.50469
381.11        90.63673
381.56        89.69785
382.01        88.95161
382.46        88.47591
382.91         88.2289
383.36        88.04082
383.81        87.63294
384.26        86.95342
384.71        86.09057
385.15        85.23616
385.60        84.74763
386.05        84.65838
386.50        84.83862
386.95         85.0522
387.40        84.93939
387.85        84.44068
388.29        83.65856
388.74         82.8853
389.19        82.29934
389.64        81.94346
390.09        81.70798
390.54         81.5648
390.98        81.46093
391.43        81.39529
391.88        81.38071
392.33        81.29723
392.78        80.98979
393.23         80.4681
393.67        79.71364
394.12        78.99187
394.57        78.72822
395.02         78.6112
395.47        78.81565
395.91        79.10048
396.36        79.18899
396.81        79.02499
397.26        78.71263
397.71        78.30278
398.15        77.85493
398.60        77.50304
399.05        77.08148
399.50        76.67223
399.95        76.68986
400.39        76.76537
400.84        76.94644
401.29        76.99888
401.74        76.86656
402.18        76.51681
402.63        75.89567
403.08        75.24103
403.53        74.94534
403.97        75.05696
404.42        75.43521
404.87        75.86442
405.32        75.96202
405.76        75.63014
406.21        75.15137
406.66        74.62423
407.11        73.98975
407.55        73.47667
408.00        73.45158
408.45         73.8566
408.90        74.40202
409.34        74.80709
409.79        74.54483
410.24         73.8504
410.68        73.69656
411.13        74.15418
411.58        74.64552
412.03        74.98734
412.47        75.14729
412.92        75.03206
413.37        74.69626
413.81        74.23946
414.26        73.89274
414.71        73.67991
415.15        73.56025
415.60         73.5023
416.05        73.49889
416.49        73.54231
416.94        73.65093
417.39        73.76541
417.83         73.7598
418.28        73.62655
418.73        73.40028
419.17        73.19588
419.62        73.21632
420.07         73.4634
420.51        73.83228
420.96        74.22569
421.41        74.34906
421.85        74.11878
422.30         73.9921
422.74        73.89484
423.19         73.1946
423.64         72.1948
424.08        72.33606
424.53        73.47523
424.98        74.05745
425.42        73.91876
425.87        74.10224
426.31        74.56075
426.76        74.30054
427.21         73.3772
427.65        73.47115
428.10        74.29961
428.54        74.13979
428.99        73.13133
429.44         72.5552
429.88        72.57288
430.33        72.76771
430.77        73.00087
431.22        73.65885
431.66        74.48402
432.11         74.2451
432.56        73.14271
433.00        72.98849
433.45        73.97727
433.89        74.31933
434.34        74.17527
434.78        75.61839
435.23        74.38892
435.67        73.89677
436.12        73.20255
436.57        73.26283
437.01        73.94036
437.46        74.32806
437.90        74.16666
438.35        74.37177
438.79        74.84119
439.24        75.03171
439.68        74.96269
440.13        75.07248
440.57        75.38222
441.02        75.53618
441.46        75.46414
441.91        75.78297
442.35        75.77522
442.80        75.65601
443.24        75.58179
443.69           75.37
444.13        75.15328
444.58        74.97699
445.02        74.82703
445.47        74.73804
445.91        74.71371
446.36        74.77473
446.80        74.89392
447.24        75.07927
447.69        75.28465
448.13        75.41131
448.58         75.4577
449.02        75.42161
449.47        75.37169
449.91        75.38171
450.36         75.4842
450.80        75.63409
451.25        75.79759
451.69        75.88659
452.13        75.89001
452.58         75.8645
453.02        75.83509
453.47        75.83598
453.91         75.8591
454.36        76.03278
454.80        76.00888
455.24         76.1469
455.69        76.40037
456.13        76.28886
456.58        75.99051
457.02        75.37086
457.46         75.5138
457.91        75.36835
458.35        75.18102
458.79        75.02613
459.24        74.94803
459.68        74.88032
460.13        74.86732
460.57        74.82951
461.01        75.33752
461.46        75.07111
461.90        75.40105
462.34        75.59142
462.79        75.47199
463.23        75.17654
463.68        74.65195
464.12        74.24142
464.56        74.00556
465.01        73.74551
465.45          73.481
465.89        73.61413
466.34        74.01115
466.78        74.28014
467.22        74.02881
467.67        73.93304
468.11        73.92171
468.55         73.6931
468.99        73.31789
469.44        73.04407
469.88        72.91263
470.32        72.87734
470.77        72.88311
471.21        72.85859
471.65        72.77011
472.10        72.66624
472.54        72.59079
472.98         72.6283
473.42        72.77699
473.87         73.0547
474.31        73.34202
474.75        73.34171
475.20        73.09297
475.64        73.02303
476.08        73.15434
476.52        72.95571
476.97        72.38441
477.41        72.55214
477.85        72.11784
478.29        71.77721
478.74        72.43475
479.18        72.35374
479.62        71.99609
480.06        71.93549
480.50        72.22513
480.95        72.10082
481.39        72.67981
481.83        72.21807
482.27        72.85496
482.72        72.71558
483.16        72.82984
483.60        72.87366
484.04        72.99928
484.48        73.25631
484.93        73.39799
485.37        73.01187
485.81        71.92882
486.25         70.8417
486.69        72.38309
487.14        71.99541
487.58        71.62733
488.02        71.60448
488.46        72.72179
488.90        72.26601
489.34         72.1479
489.79        72.67685
490.23        71.79249
490.67        71.81913
491.11        71.93496
491.55        71.82227
491.99        71.49828
492.43        71.41439
492.88        71.59903
493.32          71.821
493.76        72.02293
494.20        72.22395
494.64        72.39262
495.08        72.53812
495.52        72.63337
495.96        72.55354
496.41        72.34571
496.85        72.22379
497.29        72.19547
497.73        72.01148
498.17        72.02184
498.61        71.71014
499.05        71.31041
499.49        71.32046
499.93        71.66415
500.37        71.74158
500.82        71.54459
501.26        71.49355
501.70        71.67413
502.14        71.73542
502.58        71.71287
503.02        71.74834
503.46        71.84922
503.90        71.97782
504.34        72.09709
504.78        72.13995
505.22        72.07091
505.66        71.96506
506.10        71.88784
506.54        71.79218
506.98         71.6628
507.42        72.25143
507.86        71.81625
508.30        72.24679
508.74        71.72224
509.18        71.39961
509.62        71.02599
510.06         70.8829
510.50        71.02561
510.94        71.37775
511.38        71.79109
511.82        71.98085
512.26        71.87715
512.70        71.56551
513.14        71.19744
513.58        71.00553
514.02        71.04918
514.46         71.2565
514.90        71.51225
515.34        71.63296
515.78        71.56875
516.22        71.38027
516.66        71.17079
517.10        71.09501
517.54        71.18669
517.98        71.38975
518.42        71.60191
518.86        71.66528
519.30        71.54317
519.74        71.29163
520.18        71.01315
520.62        70.85825
521.06        70.87204
521.50        71.02306
521.93        71.23283
522.37        71.34969
522.81        71.34292
523.25        71.24081
523.69        71.15044
524.13        71.23753
524.57        71.51973
525.01        71.93298
525.45        72.30538
525.89         72.3631
526.32        72.04787
526.76        71.48711
527.20        70.87775
527.64        70.52318
528.08        70.49821
528.52        70.71002
528.96        71.03028
529.40        71.25267
529.83        71.30499
530.27        71.25619
530.71        71.15768
531.15        71.09548
531.59         71.0937
532.03        71.11344
532.46        71.11035
532.90        71.05451
533.34        70.93595
533.78        70.78606
534.22        70.64426
534.66        70.56264
535.09        70.54593
535.53        70.58701
535.97        70.65421
536.41        70.71284
536.85        70.74623
537.28        70.75983
537.72        70.74685
538.16        70.69096
538.60        70.59486
539.04        70.46661
539.47           70.32
539.91        70.23606
540.35        70.20947
540.79        70.23467
541.22        70.28175
541.66        70.31261
542.10        70.31167
542.54         70.2971
542.97        70.28119
543.41        70.30411
543.85        70.36324
544.29         70.4571
544.72        70.53456
545.16        70.55606
545.60        70.51046
546.04         70.3844
546.47        70.24538
546.91        70.31162
547.35        70.55623
547.79        70.70491
548.22        70.69511
548.66        70.82445
549.10        71.09467
549.53        71.07557
549.97        70.76259
550.41        71.36794
550.84        70.78897
551.28        70.64288
551.72        70.33316
552.15        70.52579
552.59        70.35664
553.03        70.51499
553.46        70.68345
553.90        70.77184
554.34        70.74333
554.77        70.66228
555.21        70.57243
555.65        70.48094
556.08        70.41547
556.52        70.43256
556.96        70.52023
557.39        70.67868
557.83        70.86991
558.27        70.98354
558.70         71.0204
559.14         71.0135
559.57        70.96813
560.01        71.05477
560.45        71.22036
560.88         70.9939
561.32         70.7882
561.75        70.67113
562.19        70.75304
562.63         70.6826
563.06        70.47526
563.50        70.47888
563.93        70.65531
564.37        70.60268
564.80        70.66114
565.24        70.63467
565.68        70.63243
566.11        70.65964
566.55        70.72022
566.98        70.69685
567.42        70.67567
567.85        70.66806
568.29        70.67745
568.72         70.9039
569.16         71.4497
569.60        70.83696
570.03        71.19102
570.47        71.33889
570.90        71.34743
571.34        70.65644
571.77        71.19303
572.21        71.22368
572.64        71.28178
573.08         71.2448
573.51        71.17084
573.95        70.97865
574.38        71.54536
574.82        71.08972
575.25         71.0993
575.69        71.18848
576.12         70.8391
576.56        70.56905
576.99        70.74393
577.42        70.78404
577.86        70.43837
578.29        70.59711
578.73        71.30707
579.16        70.63266
579.60        71.00194
580.03        70.88464
580.47        71.46357
580.90         71.2151
581.33        70.50137
581.77        70.70507
582.20        70.71318
582.64        71.08339
583.07        70.68935
583.51        70.49657
583.94         70.5022
584.37        70.26202
584.81        70.06276
585.24         70.3114
585.68        71.05611
586.11        71.58737
586.54         70.4638
586.98        70.29353
587.41        71.43378
587.85        71.60722
588.28        70.96339
588.71        71.57462
589.15        70.41945
589.58        70.66186
590.01        70.24731
590.45        70.46816
590.88        70.92186
591.31        71.10427
591.75        70.81615
592.18        70.84591
592.61        71.52912
593.05        69.87207
593.48        70.88846
593.91        71.75511
594.35        70.36619
594.78        70.15202
595.21        70.06356
595.65        70.70103
596.08        70.01369
596.51        70.49202
596.94        70.86139
597.38        71.03981
597.81         70.6811
598.24        70.99944
598.68        70.88753
599.11        70.28627
599.54        71.21857
599.97        71.72781
600.41        70.07892
600.84        70.13528
601.27        70.29092
601.70        70.75589
602.14        70.98514
602.57        70.74252
603.00        70.17294
603.43        70.08124
603.87        70.24132
604.30        70.79277
604.73        70.49773
605.16        70.24729
605.60        70.36826
606.03        70.48706
606.46        70.64963
606.89        70.80932
607.32        70.52654
607.76        70.48442
608.19        70.61011
608.62        70.59988
609.05        70.49883
609.48        70.64894
609.92        71.00633
610.35         70.7492
610.78        71.17437
611.21        70.46874
611.64        70.70383
612.07        70.65868
612.50        70.74275
612.94        70.90874
613.37        71.22691
613.80        70.61543
614.23        71.15894
614.66        71.08803
615.09          71.009
615.52        70.98417
615.96        71.00708
616.39        70.83134
616.82        70.43247
617.25        70.61634
617.68        70.11578
618.11        70.35226
618.54         70.7975
618.97        70.83009
619.40        70.49358
619.84        70.41453
620.27        70.67151
620.70         70.9296
621.13        71.06219
621.56        70.81992
621.99        70.60795
622.42        70.01455
622.85        70.74338
623.28        70.46571
623.71        71.30622
624.14        69.74037
624.57        70.76048
625.00        70.69122
625.43         70.8344
625.86        70.57242
626.29        70.29715
626.72        70.53487
627.15        70.36231
627.58        70.58466
628.01        70.80418
628.44        70.68544
628.87         70.3142
629.30        70.33892
629.73        70.74224
630.16        70.88628
630.59        70.73519
631.02        70.81598
631.45        70.81113
631.88        70.81058
632.31        70.71618
632.74        70.58674
633.17         70.4506
633.60        70.34232
634.03        70.27469
634.46        70.26389
634.89        70.30776
635.32        70.21603
635.75        70.27326
636.18        70.27959
636.61         70.3105
637.04        70.32227
637.47         70.3299
637.89        70.31041
638.32         70.2206
638.75        70.20355
639.18        70.29723
639.61        69.78113
640.04        69.96056
640.47        69.89156
640.90        69.96372
641.33        70.13942
641.76        70.35089
642.18        70.46309
642.61        70.40688
643.04        70.23077
643.47        70.04704
643.90        70.01647
644.33        70.16206
644.76        70.51835
645.18        70.91457
645.61        70.87659
646.04        70.30043
646.47        70.09035
646.90        70.20744
647.33        70.12846
647.75        69.85276
648.18          69.708
648.61        69.73542
649.04        69.84853
649.47        70.02573
649.89        70.29498
650.32        70.53064
650.75        70.56147
651.18        70.44133
651.61        70.29903
652.03        70.25668
652.46        70.57207
652.89        70.98948
653.32         70.9099
653.74        70.53437
654.17        69.83101
654.60        69.81892
655.03         71.4182
655.46        69.61567
655.88        70.66483
656.31        72.04787
656.74        72.43908
657.16        71.94788
657.59        70.40372
658.02        69.77924
658.45        70.92641
658.87        70.93678
659.30        70.49689
659.73        71.36695
660.15        71.32997
660.58        71.17773
661.01        70.92826
661.44        70.71696
661.86        70.30588
662.29        69.83601
662.72        70.05029
663.14        70.76272
663.57        70.67368
664.00        69.90945
664.42        69.69029
664.85        70.07215
665.27        70.32108
665.70        70.36579
666.13        70.47475
666.55        70.63647
666.98        70.76026
667.41        70.81754
667.83        70.76296
668.26        70.58759
668.69        70.32883
669.11        70.06911
669.54        69.92014
669.96        69.90783
670.39        70.05292
670.82        70.27532
671.24        70.31522
671.67        70.18837
672.09        70.23148
672.52        70.43796
672.94        70.60075
673.37        70.17079
673.80        70.55711
674.22        70.22784
674.65        70.35373
675.07        70.53572
675.50        70.78996
675.92        71.04015
676.35        71.15759
676.77        71.13171
677.20        70.96178
677.62        70.73898
678.05        70.64575
678.47        70.69704
678.90        70.78218
679.32        70.83163
679.75        70.81053
680.17        70.69503
680.60        70.49751
681.02        70.28308
681.45        70.17619
681.87        70.20573
682.30        70.31206
682.72        70.47131
683.15        70.58449
683.57        70.65756
684.00        70.75919
684.42        70.85506
684.85         70.8993
685.27        70.89735
685.70        70.73326
686.12        70.52882
686.54        70.86464
686.97        71.57967
687.39        71.85539
687.82        71.61571
688.24        71.55679
688.66        71.59879
689.09        71.41477
689.51         71.0354
689.94        70.80147
690.36        70.75788
690.78        70.71775
691.21        70.69327
691.63        70.94579
692.06        71.33983
692.48        71.34064
692.90        70.99928
693.33        70.86784
693.75        70.98164
694.17        71.00673
694.60         70.9407
695.02        70.93031
695.44        70.96898
695.87        71.08771
696.29        71.24867
696.71        71.17701
697.14        70.95059
697.56        70.98461
697.98        71.24744
698.41        71.34666
698.83        71.25619
699.25        71.20757
699.68        71.20034
700.10        71.18633
700.52        71.15545
700.94        71.13735
701.37        71.10998
701.79        71.05491
702.21        70.96407
702.64        70.85575
703.06        70.77217
703.48        70.79094
703.90        70.92471
704.33        71.15833
704.75        71.39581
705.17        71.54939
705.59         71.5648
706.01        71.47621
706.44        71.34339
706.86        71.26079
707.28        71.25274
707.70        71.31502
708.12        71.42405
708.55        71.47482
708.97        71.47975
709.39        71.57476
709.81        71.74789
710.23        71.87973
710.66        71.95045
711.08        72.03559
711.50        72.12865
711.92        72.22699
712.34        72.33196
712.76        72.44215
713.19        72.51697
713.61        72.53667
714.03        72.48107
714.45        72.37616
714.87        72.26944
715.29        72.23106
715.71        72.27354
716.13        72.36605
716.56        72.46798
716.98        72.59997
717.40        72.71304
717.82        72.81416
718.24        72.86044
718.66        72.78561
719.08        72.58979
719.50        72.29696
719.92        71.99851
720.34         71.8421
720.76         71.8622
721.19        72.01128
721.61        72.21816
722.03         72.3327
722.45        72.31049
722.87         72.1896
723.29        72.02809
723.71        71.92189
724.13        71.89999
724.55        71.93308
724.97          71.981
725.39         71.9798
725.81        71.92027
726.23        71.83714
726.65        71.77242
727.07        71.78934
727.49        71.89695
727.91        72.05437
728.33        72.23893
728.75        72.41523
729.17        72.55898
729.59        72.68503
730.01        72.73772
730.43        72.63053
730.85        72.37008
731.27        71.99471
731.69        71.64616
732.10        71.54716
732.52        71.74531
732.94        72.18232
733.36        72.70942
733.78        73.08775
734.20        73.23163
734.62        73.10496
735.04         72.8546
735.46        72.92381
735.88        73.28011
736.30        73.37927
736.72        73.16521
737.13        73.09302
737.55        73.10894
737.97         72.7446
738.39        72.17957
738.81        72.14314
739.23        72.60818
739.65        72.95768
740.06        73.04099
740.48        73.10117
740.90        73.09142
741.32        72.84982
741.74        72.47033
742.16        72.25624
742.57        72.28449
742.99         72.3688
743.41        72.49387
743.83        72.80745
744.25        73.19223
744.67        73.23875
745.08         72.9929
745.50        72.90148
745.92        73.00708
746.34        73.03054
746.75        72.98257
747.17        73.01079
747.59        73.12143
748.01         73.2831
748.42        73.44326
748.84        73.50896
749.26        73.47494
749.68        73.29226
750.09        73.04112
750.51        73.06187
750.93        73.28249
751.35        73.26091
751.76        73.01502
752.18         72.9201
752.60        72.99039
753.01        73.01556
753.43        72.97505
753.85        72.97877
754.27        73.04153
754.68         73.1532
755.10        73.29583
755.52        73.44558
755.93        73.56856
756.35        73.63725
756.77        73.71935
757.18        73.86296
757.60        74.06958
758.02        74.52911
758.43        74.97834
758.85        74.64173
759.26        73.53187
759.68        73.03333
760.10        73.21602
760.51        73.43336
760.93         73.5964
761.34        73.88973
761.76        74.17325
762.18        74.25787
762.59           74.11
763.01        73.59995
763.42        72.95208
763.84        72.60624
764.26        72.65736
764.67        72.91388
765.09        73.27934
765.50        73.58053
765.92        73.77795
766.33        73.91157
766.75         73.9819
767.16        73.95803
767.58        73.84351
768.00         73.4676
768.41        73.00467
768.83        73.18269
769.24        73.81183
769.66        73.82745
770.07        73.28737
770.49        73.12263
770.90        73.39162
771.32         73.7011
771.73        73.95398
772.15        73.99604
772.56        73.80666
772.97        73.74822
773.39        73.41271
773.80        73.44773
774.22        73.70232
774.63        74.17071
775.05        74.65411
775.46        74.92732
775.88        74.89103
776.29        74.65322
776.70        74.30023
777.12        73.99841
777.53        73.82042
777.95        73.70609
778.36         73.6767
778.77        73.75179
779.19        73.92245
779.60        74.22429
780.02         74.5442
780.43        74.79554
780.84        74.93531
781.26        74.79965
781.67        74.54985
782.09        74.83685
782.50        75.51837
782.91        75.62223
783.33        75.13058
783.74        74.84501
784.15        74.79734
784.57        74.53784
784.98        74.13974
785.39        73.95343
785.81        74.02452
786.22         74.2477
786.63        74.59211
787.04        75.00538
787.46        75.44248
787.87         75.8814
788.28        76.25887
788.70        76.46898
789.11        76.48335
789.52        76.34785
789.93        76.11124
790.35         75.8559
790.76        75.64182
791.17        75.46439
791.58        75.37269
792.00        75.40186
792.41        75.56806
792.82        75.88334
793.23        76.26944
793.65         76.4833
794.06        76.53583
794.47        76.68208
794.88        76.86518
795.29        76.80991
795.71        76.48486
796.12        76.07774
796.53        75.72286
796.94        75.61271
797.35          75.811
797.76        76.26811
798.18        76.80209
798.59        77.15498
799.00        77.22682
799.41        77.09554
799.82        76.85493
800.23         76.6738
800.64        76.61376
801.06        76.59286
801.47        76.64173
801.88        76.73109
802.29        76.84019
802.70        76.97775
803.11        77.10577
803.52        77.14925
803.93        77.10046
804.34        76.98204
804.75        76.82639
805.17        76.73515
805.58        76.77255
805.99        76.76036
806.40        76.72992
806.81        77.06427
807.22        77.60118
807.63          77.564
808.04        77.04891
808.45        76.92031
808.86        77.25093
809.27        77.55599
809.68        77.71808
810.09        77.77682
810.50        77.69598
810.91        77.46254
811.32        77.19389
811.73        77.07677
812.14        77.15363
812.55        77.38562
812.96        77.64633
813.37        77.69787
813.78        77.49052
814.19        77.12459
814.60        76.74738
815.01        76.56215
815.42        76.61397
815.83        76.83109
816.24         77.1494
816.65        77.43796
817.05        77.62821
817.46        77.72016
817.87        77.72865
818.28        77.61858
818.69        77.40826
819.10        77.10856
819.51        76.81861
819.92        76.73087
820.33        76.89029
820.74        77.22303
821.14        77.63586
821.55        77.98685
821.96        78.21603
822.37        78.37399
822.78        78.40431
823.19        78.22083
823.60         77.8316
824.00        77.25507
824.41        76.67936
824.82        76.43299
825.23         76.5744
825.64        77.03982
826.04        77.59761
826.45        77.73607
826.86        77.36469
827.27        76.64296
827.68        75.86871
828.08        75.53898
828.49        75.73943
828.90        76.35586
829.31        77.19965
829.72        77.94134
830.12        78.47864
830.53        78.80937
830.94        79.03961
831.35        79.30376
831.75        79.65382
832.16        79.94081
832.57        80.09305
832.97        79.97384
833.38        79.58084
833.79        79.05008
834.20        78.48791
834.60        78.00839
835.01        77.68943
835.42        77.46674
835.82        77.44418
836.23        77.71412
836.64        78.27923
837.04        79.13372
837.45        79.90736
837.86        80.14585
838.26         79.7457
838.67        78.85608
839.08        77.83029
839.48        77.20414
839.89        77.16003
840.29         77.5318
840.70        78.13203
841.11        78.66511
841.51        79.04383
841.92        79.32128
842.33        79.53958
842.73        79.74616
843.14        79.90443
843.54         80.0043
843.95        80.05445
844.35        80.15926
844.76        80.30355
845.17        80.44726
845.57        80.55748
845.98        80.53596
846.38        80.38394
846.79        80.14473
847.19        79.79709
847.60        79.25051
848.00        78.56947
848.41        77.82568
848.81        77.25604
849.22        77.20437
849.62        77.75555
850.03        78.74434
850.43        79.97456
850.84        80.86102
851.24        81.26036
851.65        81.19315
852.05        80.80646
852.46        80.31818
852.86        79.83287
853.27        79.39483
853.67        78.93402
854.07        78.54333
854.48        78.17274
854.88        77.85803
855.29         77.5896
855.69        77.56621
856.10        77.71428
856.50         78.0854
856.90        78.44181
857.31        78.48127
857.71        78.19547
858.12        77.61619
858.52        77.01394
858.92        76.79062
859.33        77.02653
859.73        77.65198
860.13        78.38942
860.54        78.79346
860.94        78.78287
861.34        78.38772
861.75        77.77808
862.15        77.31659
862.55        77.08534
862.96        77.03298
863.36        76.92449
863.76        76.41106
864.17        75.49136
864.57        74.34268
864.97        73.33497
865.38        72.96764
865.78        73.37381
866.18        74.37766
866.58        75.69366
866.99        76.70286
867.39        77.18803
867.79        77.25937
868.19        77.00605
868.60         76.5794
869.00        76.07933
869.40        75.45009
869.80         74.9213
870.21        74.89185
870.61        75.47177
871.01        76.52097
871.41        77.64076
871.81        78.17622
872.22        77.95821
872.62        77.15791
873.02        76.11462
873.42        75.41352
873.82        75.24979
874.22        75.49887
874.63         75.8918
875.03        76.00903
875.43        75.76006
875.83        75.27044
876.23        74.88511
876.63        75.15746
877.03        76.16442
877.44         77.6433
877.84        79.11477
878.24        79.70905
878.64        79.24749
879.04        78.06354
879.44        76.64874
879.84        75.71753
880.24        75.45834
880.64        75.64355
881.04        76.12569
881.44        76.65561
881.84        77.11468
882.24        77.60338
882.65        77.97595
883.05        78.11049
883.45        77.93497
883.85        77.49521
884.25        77.01949
884.65        76.88957
885.05         77.1722
885.45        77.72147
885.85         78.3832
886.25        78.87868
886.65        79.08601
887.05        79.10907
887.45        78.85548
887.85        78.18948
888.25        77.19899
888.65        75.99869
889.04        74.92307
889.44        74.49467
889.84        74.72514
890.24        75.50619
890.64        76.53764
891.04        77.17139
891.44          77.178
891.84        76.76609
892.24        76.23306
892.64        75.99673
893.04        76.15063
893.44         76.5379
893.83        77.09126
894.23        77.61736
894.63        78.04819
895.03        78.43475
895.43        78.71836
895.83        78.80331
896.23         78.6838
896.63        78.35967
897.02        77.94118
897.42        77.68479
897.82        77.63846
898.22        77.78683
898.62        77.97381
899.01         77.9341
899.41        77.60429
899.81        77.07266
900.21        76.58447
900.61        76.51636
901.00        76.92163
901.40        77.66788
901.80        78.41453
902.20        78.61113
902.59        78.13423
902.99         77.1714
903.39        76.08312
903.79        75.40464
904.18        75.27291
904.58        75.56329
904.98        76.02672
905.38        76.28461
905.77        76.21056
906.17        75.91524
906.57        75.59599
906.96         75.5906
907.36        75.93031
907.76        76.52051
908.15        77.07813
908.55        77.02225
908.95        76.31784
909.34        75.16401
909.74        74.07777
910.14        73.70132
910.53        74.21703
910.93        75.38319
911.33        76.88573
911.72        78.23615
912.12        79.14651
912.52        79.71584
912.91        80.05077
913.31        80.32385
913.70        80.58376
914.10        80.72041
914.49        80.54749
914.89        79.79194
915.29        78.50439
915.68        76.88787
916.08         75.3968
916.47        74.57389
916.87        74.59913
917.26        75.25906
917.66        76.30645
918.05        77.34193
918.45        78.12199
918.84        78.77151
919.24        79.13575
919.64        79.13036
920.03        78.78276
920.42        78.09469
920.82        77.31059
921.21        76.72855
921.61        76.45043
922.00        76.43137
922.40        76.60629
922.79        76.92343
923.19        77.28203
923.58        77.70381
923.98        78.06097
924.37        78.16379
924.77        77.98193
925.16        77.58089
925.55        77.08552
925.95        76.72356
926.34        76.59653
926.74        76.63027
927.13          76.808
927.52        77.05509
927.92        77.33195
928.31         77.6343
928.70        77.90372
929.10        78.03014
929.49        77.98558
929.89        77.74304
930.28         77.3862
930.67        76.99794
931.07        76.63467
931.46        76.33633
931.85        76.07658
932.24        75.79717
932.64        75.52526
933.03        75.32714
933.42         75.3222
933.82        75.68105
934.21        76.42852
934.60        77.38688
934.99        78.45016
935.39        79.43935
935.78        80.30044
936.17        81.03838
936.56        81.31038
936.96        80.63294
937.35        79.05667
937.74        76.86346
938.13        74.82262
938.53        73.90401
938.92        74.21999
939.31        75.57314
939.70        77.36044
940.09        78.38081
940.49        78.21647
940.88        77.20898
941.27         75.9606
941.66        75.38318
942.05        75.69505
942.44        76.65751
942.84        77.74126
943.23        78.10458
943.62        77.46867
944.01         76.1391
944.40        74.84522
944.79        74.63197
945.18         75.6905
945.57        77.70649
945.97        79.82505
946.36        80.81141
946.75        80.20376
947.14        78.41926
947.53        76.34813
947.92         75.3343
948.31        75.71478
948.70        77.12582
949.09        78.85361
949.48        79.60828
949.87        79.01944
950.26         77.5489
950.65        75.94583
951.04        75.22901
951.43         75.6207
951.82        76.80274
952.21        78.23119
952.60        78.93194
952.99        78.59038
953.38        77.53437
953.77        76.33933
954.16        75.74533
954.55        75.91636
954.94        76.69741
955.33        77.63056
955.72         77.7859
956.11        76.89672
956.50        75.31313
956.89        73.83465
957.28        73.48104
957.66        74.47667
958.05        76.48035
958.44        78.75544
958.83        79.80035
959.22        79.14277
959.61        77.30208
960.00        75.23666
960.39        74.17598
960.78        74.33632
961.16        75.40129
961.55        76.73507
961.94        77.17994
962.33        76.37522
962.72        74.84758
963.11        73.21803
963.49        72.28941
963.88        72.24735
964.27        72.78826
964.66        73.74604
965.04        74.89585
965.43        75.96531
965.82        77.04672
966.21        77.90559
966.60        78.10638
966.98        77.62547
967.37        76.66476
967.76        75.57512
968.15        74.84971
968.53        74.58337
968.92        74.56702
969.31        74.89709
969.69         75.7306
970.08        76.94884
970.47        78.66178
970.86        80.12383
971.24         80.0749
971.63        78.31905
972.02        75.30723
972.40        72.41087
972.79        71.76111
973.17        73.68882
973.56        77.44398
973.95        81.71828
974.33        84.03731
974.72        83.53683
975.11        81.02755
975.49        77.73002
975.88        75.85091
976.26        75.98594
976.65        77.43044
977.04        79.48942
977.42        80.89888
977.81        81.02818
978.19        80.43324
978.58        79.50056
978.96        78.67969
979.35        78.23386
979.74        78.00857
980.12        78.07088
980.51        78.52995
980.89        79.42734
981.28        80.55284
981.66        81.98676
982.05        83.53321
982.43        85.15746
982.82        86.75915
983.20        87.78299
983.59        87.20013
983.97         84.9782
984.35        81.57449
984.74        78.25622
985.12        76.72597
985.51         77.2613
985.89        79.48893
986.28        82.30433
986.66        84.19491
987.04        84.47401
987.43        83.57573
987.81        82.09486
988.20        81.34991
988.58        81.64837
988.96        82.59902
989.35        83.29294
989.73        82.56908
990.12        80.16636
990.50        76.69158
990.88         73.1264
991.27        71.00696
991.65        70.69816
992.03         71.7736
992.42        73.61536
992.80        75.55649
993.18        77.20063
993.56        78.75222
993.95        79.99037
994.33        80.68401
994.71        80.69324
995.10        80.09051
995.48        79.23714
995.86        78.81994
996.24        79.01992
996.63        79.58453
997.01        80.51717
997.39         81.5219
997.77        82.38878
998.15        83.20144
998.54        83.64997
998.92        83.26784
999.30        82.01057
999.68        80.01667
1000.06        77.89838
1000.45        76.79743
1000.83        77.18845
1001.21        78.80888
1001.59        81.14841
1001.97        83.29182
1002.35        84.86953
1002.73         86.0343
1003.12        86.85487
1003.50        87.41264
1003.88        87.78587
1004.26        87.88763
1004.64        87.68456
1005.02        87.20071
1005.40        86.51299
1005.78        85.71539
1006.16        84.99249
1006.54        84.53002
1006.92        84.33724
1007.30        84.38525
1007.69        84.46404
1008.07        84.29126
1008.45        83.74508
1008.83        83.01929
1009.21        82.33857
1009.59        82.09016
1009.97        82.34946
1010.35        82.81687
1010.73        83.58852
1011.11        84.82461
1011.49         86.3911
1011.86        88.32628
1012.24        89.62444
1012.62        88.92948
1013.00        86.00544
1013.38        81.03458
1013.76        75.53078
1014.14        72.77394
1014.52        73.96681
1014.90        78.36333
1015.28         83.6564
1015.66        86.12078
1016.04        84.82362
1016.41         80.9059
1016.79        75.95948
1017.17        73.34972
1017.55        74.04455
1017.93        76.43084
1018.31        79.37768
1018.69        82.21041
1019.06        85.12733
1019.44        88.68738
1019.82        92.92159
1020.20         96.1046
1020.58        96.66761
1020.95        94.63309
1021.33        91.55165
1021.71        89.02084
1022.09        87.10831
1022.46        85.20207
1022.84        83.31817
1023.22        81.33096
1023.60        79.78825
1023.97        79.31123
1024.35        79.55448
1024.73        79.81357
