SpectraSmart Spectrum 2.9.0.0
--------- Device Information -----------
Spectrum Name :  反射率_0
Saving Time :  2024/04/30 00:38:06
Spectro-Module Model Name : SE2030-DUVN
Spectro-Module Serial Number : OS361AC55029948
Wavelength Start : 200
Wavelength End : 1025
Wavelength Unit : Wavelength(nm)
Spectrum Unit : Reflectance(%)
-----------Spectrum Setting ------------
Integration Time : 20ms
Average : 10
Boxcar : 0
Background removal :  enabled
linearity correction :  enabled
SC :  disabled
Intensity correction :  disabled
DWT denoise :  enabled
savitzky-golay :  disabled
FFT :  disabled
Running average :  disabled
Kalman :  disabled
High pass :  disabled
---------------BEGIN--------------------
Wavelength(nm)             Reflectance(%)
200.29               0
200.75        70.55025
201.21        62.56487
201.67        54.42543
202.13        46.43714
202.58        39.20554
203.04        32.49289
203.50        29.19674
203.96        35.47708
204.42        52.42085
204.88        76.93437
205.34        98.88975
205.80        104.3263
206.26        94.83074
206.72        79.43753
207.18        65.10333
207.64        55.63502
208.10        50.07095
208.55        46.21374
209.01        43.52323
209.47        42.42814
209.93        42.91168
210.39        45.06983
210.85         47.1665
211.31        47.48705
211.77        45.85104
212.23        41.76997
212.69        36.81854
213.14        37.90889
213.60        46.17584
214.06         57.0467
214.52        65.12029
214.98        67.35078
215.44        64.82467
215.90        58.91151
216.36        52.22709
216.81        49.89301
217.27        54.62426
217.73        66.69426
218.19        84.88011
218.65         98.8248
219.11        100.5869
219.57        93.39316
220.02         84.6565
220.48        80.31143
220.94        79.78226
221.40        81.42384
221.86        82.80222
222.32         78.5843
222.77        69.41444
223.23         61.0068
223.69        55.36869
224.15        52.58522
224.61         51.7641
225.06        52.03828
225.52        53.56065
225.98        56.01143
226.44         58.4106
226.90        60.32502
227.36        61.27055
227.81        60.92031
228.27         59.5155
228.73        57.10906
229.19         54.2365
229.65        52.36905
230.10        52.03644
230.56        52.72077
231.02        53.64587
231.48        54.15563
231.93         54.1066
232.39        53.77768
232.85        53.32737
233.31        53.10732
233.77        53.22807
234.22        53.69061
234.68        54.05411
235.14        53.64049
235.60        52.43726
236.05        50.76783
236.51         49.5494
236.97         49.9312
237.43        52.23844
237.88        56.68059
238.34        62.65531
238.80        67.92258
239.26        70.47277
239.71        70.52003
240.17        68.96748
240.63        67.81705
241.08        67.82657
241.54        68.35349
242.00        70.22179
242.46        74.91007
242.91        82.54929
243.37        91.46992
243.83         98.1627
244.28        100.5031
244.74        98.69653
245.20        91.96944
245.66        83.01927
246.11        79.12054
246.57        83.96152
247.03        97.56612
247.48        113.0573
247.94         114.285
248.40        101.8167
248.85        85.32888
249.31         74.2574
249.77        72.93787
250.22        81.18742
250.68        100.0924
251.14        129.6478
251.59        147.3746
252.05        136.4492
252.51        114.5418
252.96        97.04195
253.42        89.08736
253.88        87.37923
254.33        88.74055
254.79         91.6094
255.25        92.64989
255.70        90.99419
256.16        88.98223
256.62        87.37292
257.07        86.43243
257.53        86.42375
257.99        86.69443
258.44        86.35325
258.90        85.20605
259.35        83.02682
259.81         80.7823
260.27        78.89678
260.72        77.72524
261.18        77.34692
261.63        77.12538
262.09        76.72164
262.55        75.28792
263.00        72.89084
263.46        70.28518
263.91        67.81093
264.37        66.24108
264.83         65.4597
265.28        65.10543
265.74        65.04509
266.19         64.8116
266.65        64.36578
267.11        63.76222
267.56          63.019
268.02        62.18624
268.47        61.22498
268.93        60.11314
269.38        58.81822
269.84        57.44392
270.30        56.05782
270.75        54.70972
271.21        53.46261
271.66        52.29478
272.12        51.20665
272.57        50.15978
273.03        49.20255
273.48        48.31157
273.94        47.54647
274.39        46.84307
274.85        46.19925
275.31        45.49973
275.76        44.70392
276.22        43.88768
276.67         43.0663
277.13        42.40169
277.58        41.84587
278.04        41.39646
278.49        40.92612
278.95         40.3821
279.40        39.69473
279.86        38.98528
280.31        38.23697
280.77        37.56833
281.22         36.9656
281.68        36.45187
282.13        36.02872
282.59        35.77536
283.04        35.64536
283.50        35.61253
283.95        35.56575
284.41        35.36647
284.86        34.97827
285.32        34.51014
285.77        33.99225
286.22        33.55853
286.68        33.25721
287.13        33.00335
287.59        32.86032
288.04         32.8544
288.50         32.9875
288.95        33.20805
289.41        33.41036
289.86        33.37695
290.32        33.12057
290.77        32.72007
291.22        32.33821
291.68        32.22839
292.13        32.45015
292.59        32.95605
293.04        33.70189
293.50        34.66134
293.95        35.79863
294.40        37.14296
294.86        38.59242
295.31        39.99378
295.77        41.30508
296.22        42.52721
296.68        43.79721
297.13        45.31531
297.58        47.11654
298.04        49.10053
298.49        51.07578
298.95        52.76405
299.40        54.10294
299.85        55.20487
300.31        56.26944
300.76        57.51344
301.21        59.03839
301.67        60.80045
302.12        62.66431
302.58        64.57504
303.03        66.45756
303.48        68.28869
303.94        70.13605
304.39        72.34066
304.84        74.40915
305.30         76.6908
305.75        78.86768
306.20        80.77222
306.66        82.38073
307.11         83.6898
307.57        84.88665
308.02        86.11307
308.47        87.46201
308.93        88.90091
309.38        90.30673
309.83        91.56973
310.29        92.66472
310.74          93.618
311.19        94.48859
311.65        95.34673
312.10        96.19545
312.55        97.03126
313.00        97.86873
313.46        98.73642
313.91        99.61369
314.36        100.4931
314.82        101.3398
315.27        102.1255
315.72        102.8113
316.18         103.407
316.63        103.8726
317.08        104.1623
317.53        104.3019
317.99        104.3515
318.44        104.3888
318.89        104.5522
319.35        104.8755
319.80        105.3084
320.25        105.8585
320.70        106.5331
321.16        107.2653
321.61        108.0879
322.06        108.7968
322.51        109.0805
322.97         108.886
323.42        108.3289
323.87        107.6775
324.32         107.386
324.78        107.5561
325.23         108.135
325.68         108.913
326.13        109.5222
326.59        109.8185
327.04        109.9355
327.49        110.0044
327.94        110.2952
328.39         110.863
328.85        111.5512
329.30        112.2529
329.75        112.5871
330.20        112.4713
330.66        112.0371
331.11        111.5378
331.56        111.2922
332.01        111.4259
332.46        111.8553
332.92         112.475
333.37        113.2535
333.82        114.0683
334.27        114.9371
334.72        115.7848
335.17        116.4911
335.63         116.988
336.08        117.3332
336.53        117.5436
336.98        117.7416
337.43        117.9766
337.88        118.2393
338.34        118.5185
338.79        118.8079
339.24        119.1118
339.69        119.4706
340.14        119.8997
340.59        120.4055
341.05        120.9861
341.50        121.6153
341.95        122.2764
342.40        122.9771
342.85        123.6896
343.30        124.3668
343.75        124.9527
344.20        125.3652
344.66        125.6097
345.11        125.7475
345.56        125.7782
346.01        125.6956
346.46        125.5481
346.91        125.3489
347.36        125.3113
347.81        125.7536
348.26         126.687
348.72        127.9704
349.17        129.2776
349.62         129.978
350.07        129.9185
350.52        129.3241
350.97        128.5142
351.42        127.9828
351.87        127.8904
352.32        128.0884
352.77         128.533
353.22        129.1556
353.67        129.8575
354.13        130.6108
354.58        131.2442
355.03         131.468
355.48         131.206
355.93        130.5277
356.38        129.5345
356.83         128.405
357.28        127.2401
357.73        126.0419
358.18        124.9066
358.63        123.9681
359.08        123.2486
359.53        122.7235
359.98        122.2992
360.43        121.8054
360.88        121.1877
361.33        120.4858
361.78        119.7167
362.23        118.9185
362.68         118.113
363.13        117.2825
363.58        116.4682
364.03        115.7405
364.48        115.1088
364.93        114.5583
365.38        114.0315
365.83        113.4322
366.28          112.74
366.73        111.9829
367.18          111.21
367.63        110.4975
368.08        109.8587
368.53        109.2651
368.98        108.6833
369.43        108.0559
369.88        107.3835
370.33         106.716
370.78        106.0695
371.23        105.4714
371.68        104.9277
372.13        104.3874
372.58        103.9186
373.03        103.6347
373.48        103.5123
373.93        103.5035
374.38         103.355
374.83        102.6644
375.28        101.4054
375.72        99.73812
376.17        98.10044
376.62        96.95435
377.07        96.39795
377.52        96.26707
377.97        96.38089
378.42        96.43812
378.87        96.31606
379.32        96.09301
379.77        95.76762
380.22        95.33449
380.67        94.79927
381.11         94.1362
381.56        93.39766
382.01        92.71365
382.46        92.14153
382.91        91.69147
383.36        91.30623
383.81        90.87591
384.26        90.37611
384.71        89.82863
385.15        89.31866
385.60        89.03984
386.05        88.98155
386.50        89.07107
386.95        89.12307
387.40        88.86331
387.85        88.26157
388.29        87.38081
388.74        86.53276
389.19        85.91518
389.64        85.57199
390.09        85.40673
390.54         85.3231
390.98        85.17704
391.43        84.96752
391.88         84.6601
392.33        84.26653
392.78         84.0344
393.23        83.90054
393.67        83.31409
394.12        82.47719
394.57        82.45572
395.02        82.17314
395.47        82.31127
395.91        82.44209
396.36        82.42709
396.81        82.22496
397.26        81.90951
397.71        81.53857
398.15        81.11701
398.60        80.76458
399.05        80.43394
399.50        80.12415
399.95        79.91366
400.39        79.51942
400.84        79.52892
401.29        79.73526
401.74        79.69009
402.18        79.33627
402.63        78.83286
403.08        78.38892
403.53        78.24883
403.97        78.44152
404.42        78.85948
404.87        79.25327
405.32        79.23928
405.76        78.74722
406.21        77.95982
406.66        77.09676
407.11        76.57411
407.55        76.52679
408.00        76.60436
408.45        76.76894
408.90        77.43184
409.34        78.27258
409.79        78.16853
410.24        77.32967
410.68        77.05797
411.13         77.4351
411.58        77.72673
412.03        77.80592
412.47        77.81007
412.92         77.6769
413.37        77.42203
413.81        77.07912
414.26         76.7738
414.71        76.50359
415.15        76.26499
415.60        76.05987
416.05        75.93769
416.49        75.91524
416.94        75.99276
417.39        76.10354
417.83        76.11436
418.28        76.00997
418.73        75.82281
419.17        75.66669
419.62         75.7512
420.07        76.08073
420.51        76.51971
420.96        76.94591
421.41        77.13219
421.85        76.96783
422.30        76.65771
422.74        76.22779
423.19        75.58938
423.64        74.92828
424.08        74.93107
424.53        75.50355
424.98        75.83127
425.42        75.80866
425.87        76.04628
426.31        76.45596
426.76        76.20859
427.21        75.32132
427.65        75.35719
428.10        76.05988
428.54         75.8326
428.99         74.8405
429.44        74.30214
429.88        74.35378
430.33        74.63245
430.77        74.97198
431.22        75.56389
431.66        76.22518
432.11        76.14483
432.56        75.38596
433.00        75.13394
433.45        75.71397
433.89        75.33221
434.34        75.86863
434.78        77.34671
435.23        75.31521
435.67        74.98724
436.12        75.00034
436.57        75.03136
437.01        75.04029
437.46        75.14594
437.90        75.39531
438.35        75.85872
438.79        76.44486
439.24        76.62296
439.68        76.40209
440.13        76.24545
440.57        76.28294
441.02        76.29849
441.46        76.25285
441.91        76.92928
442.35        76.95761
442.80        77.19212
443.24        77.19293
443.69        76.85089
444.13        76.29704
444.58        75.95865
445.02        75.83169
445.47        75.83623
445.91        75.94933
446.36        75.98825
446.80        75.86202
447.24        76.48415
447.69        76.28322
448.13        76.40582
448.58        76.40462
449.02        76.31178
449.47        76.19494
449.91        76.15688
450.36        76.24641
450.80        76.39765
451.25         76.5692
451.69        76.65522
452.13        76.63823
452.58        76.58097
453.02        76.50552
453.47        76.44829
453.91        76.40734
454.36         76.5059
454.80        76.39017
455.24        76.54292
455.69        76.78049
456.13        76.74586
456.58        76.48678
457.02        76.25967
457.46        76.12875
457.91        76.04294
458.35        75.95928
458.79         75.8792
459.24        75.83372
459.68        75.84689
460.13        75.89663
460.57        75.86308
461.01        75.90455
461.46        75.65887
461.90        75.22972
462.34        75.69408
462.79        75.90369
463.23        75.84081
463.68        75.27431
464.12        74.98687
464.56        75.01173
465.01        74.98595
465.45        74.88701
465.89        74.79227
466.34        74.68388
466.78        74.96397
467.22        75.37252
467.67        74.64983
468.11        74.89259
468.55        74.42217
468.99        73.98091
469.44         73.6214
469.88        73.40067
470.32          73.284
470.77        73.21676
471.21        73.19154
471.65         73.1718
472.10        73.17964
472.54        73.20683
472.98        73.26605
473.42        73.34461
473.87        73.47543
474.31        73.59109
474.75        73.51453
475.20        73.30215
475.64         73.2566
476.08        73.40054
476.52        73.31613
476.97        72.96308
477.41        73.07666
477.85        73.05818
478.29        72.50419
478.74        73.41315
479.18        73.19124
479.62         72.6431
480.06        72.50497
480.50        72.82666
480.95        72.81641
481.39        73.56545
481.83        73.00562
482.27        73.44862
482.72        73.59245
483.16        73.17603
483.60        73.18675
484.04        73.36568
484.48        73.63463
484.93        73.78539
485.37        73.90259
485.81        72.63097
486.25        72.62577
486.69        74.23447
487.14        73.94009
487.58        72.57275
488.02         72.5575
488.46         72.9632
488.90        72.89133
489.34        72.39722
489.79        73.24342
490.23        72.55624
490.67        72.58954
491.11        72.48079
491.55        72.31163
491.99        72.10793
492.43        71.98969
492.88        71.99323
493.32         72.0971
493.76        72.26471
494.20        72.42612
494.64         72.5483
495.08        72.69705
495.52        72.82471
495.96        72.72523
496.41        72.48079
496.85        72.41354
497.29         72.4619
497.73        72.49951
498.17         72.2571
498.61        71.88953
499.05        71.48811
499.49        71.58965
499.93         72.0512
500.37        72.09933
500.82        71.78801
501.26        71.52428
501.70        71.94545
502.14        72.09249
502.58        72.12537
503.02        72.20352
503.46        72.32722
503.90        72.43797
504.34        72.51081
504.78        72.53956
505.22        72.51553
505.66        72.41715
506.10        72.27267
506.54        72.23479
506.98         72.2766
507.42        72.27412
507.86        71.75977
508.30        72.01299
508.74         71.6035
509.18        71.49242
509.62        71.34131
510.06        71.32874
510.50        71.46039
510.94        71.69791
511.38        71.95617
511.82        72.05944
512.26        71.97251
512.70        71.74461
513.14        71.46255
513.58        71.31434
514.02        71.35019
514.46        71.41973
514.90        71.43313
515.34        71.78463
515.78        71.58672
516.22        71.56034
516.66        71.49053
517.10        71.45647
517.54        71.46674
517.98        71.50469
518.42        71.54673
518.86        71.53694
519.30        71.46709
519.74        71.35953
520.18        71.24625
520.62        71.17043
521.06        71.15018
521.50         71.1834
521.93        71.25531
522.37         71.3179
522.81         71.3661
523.25        71.39663
523.69        71.44449
524.13        71.56735
524.57        71.76228
525.01        72.00053
525.45        72.19242
525.89        72.19551
526.32        71.97968
526.76        71.62672
527.20        71.24258
527.64        70.99456
528.08        70.92744
528.52        70.99089
528.96         71.1337
529.40        71.27161
529.83        71.36183
530.27        71.43251
530.71        71.46926
531.15        71.45555
531.59        71.39337
532.03         71.2854
532.46         71.1424
532.90        71.01762
533.34        70.92251
533.78        70.85548
534.22        70.82453
534.66        70.83721
535.09        70.88239
535.53        70.96523
535.97        71.04782
536.41        71.11188
536.85        71.14836
537.28        71.10618
537.72         70.9804
538.16        71.02573
538.60        70.82966
539.04         70.7326
539.47        70.60772
539.91        70.51784
540.35        70.45293
540.79         70.4269
541.22        70.43127
541.66        70.45078
542.10        70.47697
542.54        70.51367
542.97         70.5698
543.41        70.68179
543.85        70.83806
544.29         71.0351
544.72        71.19452
545.16        71.23552
545.60        71.14185
546.04        70.91247
546.47        70.65479
546.91        70.65218
547.35        70.89272
547.79        71.08851
548.22        71.14275
548.66         71.2878
549.10        71.50776
549.53        71.44302
549.97        71.01493
550.41        71.56662
550.84        70.97086
551.28        70.84222
551.72        70.54907
552.15        70.70836
552.59        70.44976
553.03        70.48731
553.46        70.55185
553.90        70.61867
554.34        70.65898
554.77        70.72779
555.21        70.82125
555.65        70.80656
556.08        70.70255
556.52        70.74533
556.96        70.91818
557.39        70.98182
557.83        70.97077
558.27        71.18146
558.70         71.5466
559.14        71.60114
559.57        71.36288
560.01        71.40678
560.45        71.69286
560.88        71.50497
561.32        71.26292
561.75        71.19645
562.19        71.37241
562.63        71.25719
563.06        70.89899
563.50        70.80759
563.93        70.94805
564.37        71.00233
564.80        70.93776
565.24        70.96697
565.68        71.06086
566.11        71.09332
566.55        71.09433
566.98        71.08522
567.42        71.13391
567.85        71.19608
568.29        71.28855
568.72        71.36659
569.16        72.01119
569.60        71.57204
570.03         71.7617
570.47         72.1873
570.90        72.00665
571.34        71.86127
571.77        72.10107
572.21        72.21276
572.64        72.29635
573.08        72.34175
573.51        71.77528
573.95        71.95824
574.38        72.35512
574.82        72.22794
575.25        72.58319
575.69        72.26786
576.12        71.80098
576.56        71.45602
576.99        71.43499
577.42        71.68867
577.86        71.64303
578.29        71.45067
578.73        72.37538
579.16        71.81268
579.60        71.79334
580.03        71.71511
580.47        72.50189
580.90         72.2972
581.33        71.46934
581.77        71.95887
582.20        72.12367
582.64        72.64326
583.07        72.14851
583.51        71.64582
583.94        71.23398
584.37        70.92732
584.81        71.00836
585.24        71.73215
585.68          72.283
586.11        72.82291
586.54        71.83868
586.98        71.25435
587.41        72.20953
587.85         72.2706
588.28        72.30634
588.71        72.49416
589.15        72.00528
589.58         71.8385
590.01        71.24515
590.45        71.24449
590.88        71.69378
591.31         72.0349
591.75        71.97598
592.18        72.06984
592.61        72.45943
593.05        71.00293
593.48        72.07362
593.91        72.88894
594.35         71.4434
594.78        71.20038
595.21        71.10945
595.65        71.93767
596.08        71.53486
596.51        71.24313
596.94        71.76173
597.38        71.77077
597.81         71.5506
598.24        71.85286
598.68        71.65153
599.11        71.11909
599.54        72.16048
599.97        72.40609
600.41        71.05655
600.84        71.53725
601.27           71.51
601.70        71.66366
602.14         72.1348
602.57        71.74454
603.00        71.01431
603.43         70.9715
603.87        71.38137
604.30        71.91917
604.73        71.60307
605.16        71.37607
605.60         71.3192
606.03        71.50817
606.46        71.85938
606.89        71.86671
607.32        71.49895
607.76         71.3842
608.19        71.59224
608.62         71.5433
609.05        71.26895
609.48        71.82618
609.92        71.78142
610.35        72.02444
610.78        71.96227
611.21        71.26089
611.64        71.48477
612.07        71.71422
612.50        71.50043
612.94        71.59848
613.37        71.81387
613.80        71.50088
614.23        71.83099
614.66        71.82246
615.09        71.80981
615.52        71.89701
615.96        72.04504
616.39        71.84956
616.82        71.33129
617.25        71.59747
617.68        71.31647
618.11        71.54096
618.54        71.66291
618.97        71.61967
619.40        71.43551
619.84         71.2019
620.27        71.41982
620.70        71.54753
621.13        71.64072
621.56        71.45332
621.99        71.37322
622.42         70.8856
622.85         71.6785
623.28        71.18092
623.71        71.75552
624.14        71.21954
624.57        71.63081
625.00        71.61273
625.43        71.60428
625.86        71.42316
626.29        71.37775
626.72          71.298
627.15        71.27264
627.58        71.32063
628.01        71.34343
628.44        71.38053
628.87        70.95659
629.30        70.96452
629.73        71.16691
630.16        71.70394
630.59        71.31426
631.02        71.49292
631.45        71.56604
631.88        71.57047
632.31        71.37717
632.74        71.45858
633.17        71.15833
633.60        71.09324
634.03         71.0748
634.46        71.08781
634.89        71.10732
635.32        71.11753
635.75        71.11342
636.18        71.09104
636.61        71.05151
637.04        71.00878
637.47        70.98469
637.89        70.92977
638.32        70.82311
638.75        70.84827
639.18        71.04288
639.61        70.66248
640.04         70.9744
640.47        70.93907
640.90         70.9347
641.33        70.94737
641.76        70.96643
642.18        70.95483
642.61         70.8736
643.04        70.74717
643.47         70.6473
643.90        70.66564
644.33        70.80832
644.76        71.13802
645.18        71.50937
645.61        71.48627
646.04        70.97093
646.47        70.84943
646.90        71.07285
647.33        71.08968
647.75        70.88664
648.18        70.82605
648.61        70.91753
649.04        70.98051
649.47         71.0066
649.89        71.12593
650.32        71.26894
650.75        71.25169
651.18        71.14101
651.61        71.17461
652.03        71.38183
652.46        71.65061
652.89        71.75373
653.32        71.55194
653.74        71.29121
654.17        70.47514
654.60        70.72092
655.03        72.38329
655.46        70.76685
655.88         71.9295
656.31        75.17648
656.74        76.60918
657.16        75.67901
657.59        72.77019
658.02         71.1809
658.45        72.21536
658.87        72.12716
659.30        71.43523
659.73        72.39251
660.15        72.10004
660.58        72.02304
661.01        71.84705
661.44        71.75568
661.86          71.363
662.29        70.79564
662.72        70.85165
663.14        71.41825
663.57        71.41975
664.00          70.923
664.42        70.81816
664.85         71.1404
665.27        71.34319
665.70        71.37965
666.13        71.47252
666.55        71.61898
666.98        71.73463
667.41        71.79863
667.83        71.78112
668.26        71.67416
668.69        71.50818
669.11        71.33429
669.54        71.23527
669.96        71.23169
670.39        71.29623
670.82        71.39046
671.24        71.46083
671.67        71.47369
672.09        71.44582
672.52        71.41118
672.94        71.48428
673.37        71.12276
673.80        71.57452
674.22        71.26021
674.65        71.40479
675.07        71.59342
675.50        71.83405
675.92        72.05822
676.35        72.14512
676.77        72.09214
677.20        71.91632
677.62        71.71494
678.05        71.64559
678.47        71.73805
678.90        71.94627
679.32         72.1779
679.75        72.29606
680.17        72.25716
680.60         72.1181
681.02        71.93539
681.45        71.79704
681.87        71.73434
682.30        71.72192
682.72        71.76108
683.15        71.74491
683.57         71.7198
684.00        71.85808
684.42        72.09054
684.85        72.21612
685.27        72.22012
685.70        72.04806
686.12        71.83173
686.54        72.18528
686.97        72.94245
687.39        73.18351
687.82        72.83411
688.24        72.82233
688.66        72.82502
689.09        72.65104
689.51        72.28699
689.94        72.06075
690.36        72.01272
690.78        72.05856
691.21        72.16831
691.63        72.28484
692.06        72.38099
692.48        72.48902
692.90        72.58669
693.33        72.62389
693.75        72.59531
694.17        72.49925
694.60         72.3869
695.02        72.32533
695.44        72.32186
695.87        72.47832
696.29        72.71816
696.71        72.58516
697.14        72.20109
697.56        72.25623
697.98        72.69618
698.41        72.87036
698.83         72.7418
699.25        72.69028
699.68        72.70882
700.10        72.67188
700.52        72.56745
700.94        72.44491
701.37        72.32005
701.79         72.2345
702.21         72.1915
702.64        72.19344
703.06        72.22662
703.48        72.28096
703.90        72.35278
704.33        72.45266
704.75        72.55095
705.17          72.675
705.59        72.79655
706.01        72.90786
706.44        72.99948
706.86        73.05786
707.28        73.07857
707.70        73.08813
708.12        73.10352
708.55        73.10001
708.97         73.1015
709.39         73.1761
709.81        73.32464
710.23        73.49447
710.66        73.66376
711.08        73.87452
711.50        74.07617
711.92        74.20839
712.34        74.25855
712.76        74.24102
713.19        74.15295
713.61        74.04601
714.03        73.92361
714.45        73.79298
714.87        73.68835
715.29        73.65408
715.71        73.69688
716.13        73.80738
716.56        73.93407
716.98        74.07751
717.40          74.186
717.82        74.25794
718.24        74.29877
718.66        74.32494
719.08        74.33829
719.50        74.32893
719.92        74.28457
720.34        74.18807
720.76        74.04372
721.19        73.86213
721.61        73.68493
722.03        73.54659
722.45        73.46215
722.87        73.42384
723.29        73.42888
723.71        73.46554
724.13        73.52021
724.55        73.60718
724.97        73.71026
725.39        73.75656
725.81        73.73212
726.23        73.82961
726.65        73.75653
727.07        73.80561
727.49        73.88914
727.91        73.98776
728.33        74.09734
728.75        74.21559
729.17        74.33567
729.59        74.46846
730.01         74.5537
730.43        74.49028
730.85        74.28155
731.27        73.97223
731.69        73.70389
732.10        73.69978
732.52        73.99688
732.94        74.51991
733.36        75.11713
733.78         75.5071
734.20        75.59363
734.62        75.45102
735.04        75.31515
735.46        75.06157
735.88        74.86601
736.30        75.08946
736.72        75.57985
737.13        75.72397
737.55        75.38705
737.97        74.89789
738.39        74.44418
738.81        74.07001
739.23        73.93638
739.65        74.42847
740.06        75.24829
740.48        75.60362
740.90        75.38103
741.32        74.95485
741.74        74.51682
742.16        74.26626
742.57        74.30533
742.99        74.52072
743.41        74.81606
743.83        75.08858
744.25         75.2577
744.67        75.23814
745.08        75.09583
745.50        75.04395
745.92         75.1195
746.34        75.18668
746.75        75.23292
747.17        75.27743
747.59        75.31583
748.01        75.40967
748.42        75.51261
748.84        75.44015
749.26        75.25776
749.68         75.1179
750.09         75.0789
750.51        75.31973
750.93        75.70245
751.35        75.72952
751.76        75.42913
752.18        75.29898
752.60        75.36196
753.01         75.3126
753.43        75.14617
753.85        75.05654
754.27        75.07634
754.68        75.18497
755.10        75.34909
755.52        75.51602
755.93        75.64724
756.35        75.71323
756.77        75.78899
757.18        76.01738
757.60        76.41288
758.02        76.97364
758.43        77.43263
758.85        77.51737
759.26        75.85089
759.68        75.44716
760.10        75.88615
760.51         76.0273
760.93        75.85819
761.34        75.96408
761.76        76.68558
762.18        76.71825
762.59         76.2015
763.01        75.51357
763.42        74.94663
763.84        74.68803
764.26        74.82464
764.67         75.3007
765.09        75.92765
765.50          76.326
765.92         76.4325
766.33        76.39779
766.75        76.20526
767.16        76.08237
767.58        76.04988
768.00        75.84002
768.41         75.5663
768.83        75.92421
769.24        76.64034
769.66         76.5808
770.07        75.84213
770.49        75.37492
770.90        75.36423
771.32        75.76823
771.73        76.40595
772.15        76.60683
772.56        76.29854
772.97        76.14368
773.39        75.76574
773.80        75.76366
774.22        75.99762
774.63         76.4894
775.05        77.00246
775.46        77.25261
775.88        77.13417
776.29        76.77139
776.70        76.32533
777.12        76.08375
777.53        76.12978
777.95        76.35194
778.36        76.66175
778.77        76.88269
779.19         76.9575
779.60        77.04759
780.02        77.11809
780.43        77.06007
780.84        76.95615
781.26         76.9564
781.67        77.11468
782.09        77.60156
782.50         78.2118
782.91        78.19957
783.33        77.60095
783.74        77.23212
784.15        77.15175
784.57        76.88501
784.98        76.50523
785.39        76.37953
785.81        76.54565
786.22        76.88795
786.63         77.3466
787.04        77.82216
787.46        78.25856
787.87        78.64668
788.28        78.94168
788.70         79.0704
789.11        79.01794
789.52        78.82294
789.93        78.54259
790.35        78.27001
790.76        78.06448
791.17        77.92402
791.58        77.87525
792.00        77.90255
792.41        78.01082
792.82        78.25331
793.23        78.58266
793.65        78.72499
794.06        78.74443
794.47        79.06767
794.88        79.53645
795.29        79.56869
795.71         79.1066
796.12        78.48492
796.53        77.91987
796.94        77.70408
797.35        77.94939
797.76         78.5707
798.18        79.32578
798.59        79.86018
799.00        80.03496
799.41        79.95258
799.82        79.70641
800.23        79.46533
800.64        79.30434
801.06        79.14446
801.47         79.0504
801.88        79.05151
802.29          79.146
802.70        79.33122
803.11        79.55936
803.52        79.72858
803.93        79.80869
804.34         79.8255
804.75        79.77853
805.17        79.68867
805.58        79.60974
805.99        79.46978
806.40        79.34454
806.81        79.48936
807.22        79.85719
807.63        80.10568
808.04        80.20762
808.45        80.38746
808.86        80.63074
809.27        80.77547
809.68        80.78779
810.09        80.71353
810.50        80.56292
810.91        80.32364
811.32          80.087
811.73        79.99898
812.14        80.09019
812.55         80.3353
812.96        80.62883
813.37         80.7645
813.78        80.68603
814.19        80.46117
814.60        80.19642
815.01        80.04508
815.42         80.0443
815.83        80.14393
816.24        80.29425
816.65        80.40243
817.05        80.43022
817.46        80.37025
817.87        80.27754
818.28        80.16849
818.69        80.05782
819.10        79.94492
819.51        79.84382
819.92        79.78692
820.33        79.78455
820.74        79.82079
821.14        79.90612
821.55        80.06126
821.96        80.27096
822.37        80.53444
822.78        80.76564
823.19        80.81464
823.60        80.64417
824.00         80.2887
824.41        79.88258
824.82        79.67207
825.23        79.71302
825.64        79.96146
826.04        80.27927
826.45        80.32696
826.86        80.06312
827.27        79.59147
827.68         79.1328
828.08        79.05733
828.49        79.40054
828.90        80.08143
829.31        80.90472
829.72         81.5322
830.12        81.87742
830.53        81.93939
830.94        81.88424
831.35        81.95022
831.75        82.22674
832.16        82.55362
832.57        82.83147
832.97        82.85435
833.38         82.5899
833.79        82.18804
834.20        81.75049
834.60        81.39045
835.01        81.18606
835.42         81.0551
835.82        81.11265
836.23         81.4746
836.64        82.14442
837.04        83.11266
837.45        83.96489
837.86        84.17807
838.26        83.63891
838.67        82.52308
839.08        81.25317
839.48        80.46714
839.89        80.37322
840.29        80.78128
840.70        81.44799
841.11        81.98496
841.51        82.27979
841.92        82.40813
842.33        82.46407
842.73        82.58304
843.14        82.74986
843.54        82.92828
843.95        83.06869
844.35         83.1848
844.76          83.243
845.17        83.23927
845.57        83.20273
845.98        83.13047
846.38        83.05129
846.79        82.97471
847.19        82.83234
847.60        82.45489
848.00        81.86629
848.41        81.13887
848.81        80.53394
849.22        80.43316
849.62        80.93671
850.03        81.88826
850.43        83.03441
850.84        83.68446
851.24         83.7021
851.65        83.14906
852.05        82.38016
852.46        81.93672
852.86        81.94231
853.27        82.28681
853.67         82.6078
854.07        82.64165
854.48        82.27758
854.88        81.65024
855.29        80.89758
855.69        80.55527
856.10        80.67719
856.50        81.21548
856.90         81.8109
857.31        81.97227
857.71        81.64181
858.12        80.94282
858.52        80.18673
858.92        79.82339
859.33        79.96685
859.73        80.51788
860.13        81.25681
860.54        81.84436
860.94        82.20868
861.34        82.34987
861.75        82.28796
862.15        82.12945
862.55        81.87946
862.96        81.54555
863.36        81.04774
863.76        80.29356
864.17        79.34862
864.57        78.31857
864.97        77.45116
865.38        77.05186
865.78        77.20547
866.18        77.79101
866.58        78.64264
866.99        79.37464
867.39        79.86876
867.79         80.1793
868.19        80.24135
868.60        79.97517
869.00        79.42446
869.40        78.58357
869.80        77.83482
870.21        77.83694
870.61        78.74356
871.01         80.3092
871.41        81.91056
871.81        82.54683
872.22        81.98439
872.62        80.52937
873.02        78.74091
873.42        77.56512
873.82        77.31002
874.22        77.73714
874.63        78.47132
875.03         78.9251
875.43         78.9386
875.83         78.6889
876.23        78.48853
876.63        78.83121
877.03        79.78761
877.44        81.08994
877.84        82.34011
878.24        82.81584
878.64        82.38151
879.04        81.34598
879.44        80.11884
879.84        79.28999
880.24        79.01299
880.64        79.07337
881.04         79.4147
881.44         79.9347
881.84         80.5442
882.24        81.32078
882.65        81.93379
883.05        81.94978
883.45        81.25854
883.85        80.03613
884.25        78.83691
884.65        78.51649
885.05         79.2187
885.45        80.63612
885.85        82.31014
886.25        83.43556
886.65         83.7178
887.05         83.4149
887.45        82.60776
887.85        81.46952
888.25        80.21896
888.65        78.88147
889.04        77.76875
889.44        77.38486
889.84        77.71643
890.24        78.67992
890.64        79.93723
891.04        80.73336
891.44        80.78701
891.84        80.31056
892.24        79.63275
892.64        79.22517
893.04        79.19948
893.44        79.39861
893.83        79.75722
894.23        80.08319
894.63        80.33841
895.03        80.60424
895.43        80.86359
895.83        81.07773
896.23        81.23221
896.63        81.26842
897.02        81.25375
897.42        81.37797
897.82        81.63966
898.22        82.03054
898.62        82.29543
899.01        82.02079
899.41        81.15475
899.81        79.86483
900.21        78.62006
900.61        78.13208
901.00        78.53021
901.40        79.59556
901.80         80.8214
902.20        81.35965
902.59        80.98764
902.99        79.97527
903.39        78.76159
903.79        78.00927
904.18        77.89176
904.58        78.22359
904.98        78.73077
905.38        79.01314
905.77        78.92933
906.17        78.60597
906.57        78.23793
906.96        78.14471
907.36        78.36639
907.76        78.83658
908.15        79.28314
908.55        79.14104
908.95        78.39503
909.34        77.23575
909.74        76.23793
910.14        76.13642
910.53         77.0968
910.93        78.81525
911.33        80.84126
911.72        82.46642
912.12        83.35284
912.52         83.6877
912.91        83.65602
913.31        83.57539
913.70        83.57647
914.10        83.50432
914.49        83.27427
914.89        82.76329
915.29        81.99908
915.68        81.12416
916.08        80.33246
916.47        79.74923
916.87        79.47461
917.26        79.41663
917.66        79.59801
918.05        80.08154
918.45        80.76833
918.84        81.67822
919.24        82.47689
919.64        82.75977
920.03        82.44904
920.42        81.64331
920.82        80.72206
921.21        80.17902
921.61        80.15419
922.00        80.51876
922.40        81.06387
922.79        81.51796
923.19        81.72717
923.58        81.79887
923.98        81.75677
924.37         81.6377
924.77        81.47078
925.16        81.25227
925.55        81.00885
925.95        80.80466
926.34        80.69086
926.74        80.64829
927.13         80.7098
927.52        80.87639
927.92         81.1332
928.31         81.4421
928.70        81.73176
929.10        81.87833
929.49        81.84796
929.89        81.62684
930.28        81.29252
930.67        80.90016
931.07        80.51276
931.46        80.18667
931.85        79.91778
932.24        79.69077
932.64        79.52581
933.03        79.43925
933.42        79.55111
933.82        80.03196
934.21        80.88731
934.60        81.95114
934.99        82.98261
935.39         83.5784
935.78        83.68005
936.17          83.381
936.56        82.65831
936.96        81.57481
937.35        80.28889
937.74        78.87038
938.13        77.74741
938.53        77.43059
938.92         77.9354
939.31         79.2173
939.70        80.77075
940.09         81.5876
940.49        81.34643
940.88        80.29837
941.27         79.1012
941.66        78.77514
942.05        79.52822
942.44        81.10471
942.84        82.78397
943.23        83.35316
943.62         82.4327
944.01        80.46163
944.40        78.39063
944.79        77.59244
945.18          78.353
945.57        80.26721
945.97          82.447
946.36        83.59422
946.75        83.18876
947.14        81.66473
947.53        79.82548
947.92        78.87214
948.31        79.12146
948.70        80.23929
949.09        81.59308
949.48        82.07607
949.87        81.37865
950.26        79.89523
950.65        78.36445
951.04        77.77736
951.43         78.3418
951.82        79.79589
952.21        81.46363
952.60          82.124
952.99        81.43696
953.38        79.79559
953.77        78.10556
954.16        77.57803
954.55        78.44946
954.94        80.48024
955.33        82.81037
955.72        83.59435
956.11        82.25735
956.50        79.47827
956.89        76.65174
957.28         75.5815
957.66        76.64756
958.05        79.26199
958.44        82.46017
958.83        84.24875
959.22         83.9167
959.61        82.16184
960.00        79.97819
960.39        78.62194
960.78        78.35204
961.16        78.79356
961.55        79.49002
961.94        79.71606
962.33        79.22827
962.72        78.43407
963.11        77.62004
963.49         77.1017
963.88        76.97412
964.27        77.06312
964.66         77.4289
965.04        78.25902
965.43        79.41541
965.82        80.86966
966.21        82.21288
966.60        82.70338
966.98        82.20692
967.37        81.03053
967.76        79.65247
968.15        78.72415
968.53        78.37796
968.92         78.3566
969.31        78.65675
969.69        79.27998
970.08        80.05762
970.47        81.13976
970.86        81.97614
971.24        81.62759
971.63        79.97785
972.02        77.40828
972.40        74.98248
972.79        74.39098
973.17        75.89272
973.56        78.84127
973.95          82.299
974.33        84.44993
974.72        84.58824
975.11        83.32404
975.49        81.36826
975.88        80.11669
976.26        79.96212
976.65        80.39661
977.04        81.21438
977.42        82.05887
977.81        82.57283
978.19        83.01899
978.58        83.29243
978.96        83.07416
979.35        82.42125
979.74          81.443
980.12        80.50484
980.51        80.21664
980.89        80.80717
981.28        81.88585
981.66        83.44529
982.05        85.14628
982.43        86.88298
982.82        88.65195
983.20        89.79319
983.59        89.06586
983.97        86.42198
984.35        82.35271
984.74        78.40451
985.12        76.70325
985.51        77.57763
985.89        80.53659
986.28        84.14153
986.66        86.30514
987.04         86.2118
987.43        84.48373
987.81        82.07817
988.20        80.96005
988.58        81.63896
988.96        83.50293
989.35        85.39196
989.73        85.72408
990.12        84.05482
990.50        81.12029
990.88        77.84257
991.27        75.66164
991.65        74.99519
992.03        75.44997
992.42        76.68507
992.80        78.49165
993.18        80.56821
993.56        83.00261
993.95        85.31804
994.33        86.75719
994.71        86.94772
995.10        86.10194
995.48        84.69052
995.86        83.57058
996.24        83.01331
996.63        82.72179
997.01        82.82768
997.39         83.2901
997.77        83.99574
998.15        85.00806
998.54        85.88834
998.92        85.93118
999.30        85.00943
999.68        83.29018
1000.06         81.3956
1000.45        80.50951
1000.83        81.08849
1001.21        82.77425
1001.59        85.01397
1001.97        86.85921
1002.35        87.95293
1002.73        88.53536
1003.12        88.67709
1003.50        88.42913
1003.88        87.92711
1004.26        87.13328
1004.64        86.27825
1005.02        85.80739
1005.40        85.83699
1005.78        86.27556
1006.16        86.91836
1006.54        87.43821
1006.92        87.74754
1007.30        87.92958
1007.69        87.96885
1008.07        88.02367
1008.45        88.08012
1008.83        88.10555
1009.21        88.08068
1009.59        88.03709
1009.97        87.93178
1010.35        87.62836
1010.73        87.26196
1011.11        87.03998
1011.49        86.98017
1011.86        87.21413
1012.24        87.02621
1012.62        85.46323
1013.00        82.39668
1013.38         77.9916
1013.76        73.58652
1014.14        71.99944
1014.52        74.18304
1014.90        79.35767
1015.28        85.36246
1015.66        88.84502
1016.04        88.91477
1016.41        86.53246
1016.79         82.7342
1017.17         79.9559
1017.55        79.21563
1017.93        79.59762
1018.31        80.68291
1018.69        82.27615
1019.06         84.5254
1019.44        87.82098
1019.82        92.10412
1020.20        95.42413
1020.58        96.00944
1020.95         93.8532
1021.33        90.67252
1021.71         88.2394
1022.09        86.65798
1022.46        85.44178
1022.84        84.03728
1023.22         81.0059
1023.60         76.8193
1023.97        72.89459
1024.35        70.57743
1024.73        70.80054
