SpectraSmart Spectrum 2.9.0.0
--------- Device Information -----------
Spectrum Name :  反射率_0
Saving Time :  2024/04/30 00:20:12
Spectro-Module Model Name : SE2030-DUVN
Spectro-Module Serial Number : OS361AC55029948
Wavelength Start : 200
Wavelength End : 1025
Wavelength Unit : Wavelength(nm)
Spectrum Unit : Reflectance(%)
-----------Spectrum Setting ------------
Integration Time : 20ms
Average : 10
Boxcar : 0
Background removal :  enabled
linearity correction :  enabled
SC :  disabled
Intensity correction :  disabled
DWT denoise :  enabled
savitzky-golay :  disabled
FFT :  disabled
Running average :  disabled
Kalman :  disabled
High pass :  disabled
---------------BEGIN--------------------
Wavelength(nm)             Reflectance(%)
200.29               0
200.75        93.84355
201.21        79.76958
201.67        62.59919
202.13        46.94404
202.58        35.41927
203.04        26.57598
203.50        22.31559
203.96        26.69626
204.42        39.93669
204.88        60.25137
205.34        79.61588
205.80        86.00083
206.26        80.01665
206.72        68.89545
207.18        57.36477
207.64        47.74089
208.10        39.52037
208.55        31.03778
209.01        23.75592
209.47        22.51427
209.93        27.63992
210.39        36.42271
210.85        44.34348
211.31        47.77742
211.77        46.63706
212.23        40.85588
212.69        31.87361
213.14        28.34982
213.60         33.9279
214.06        43.84315
214.52        51.83102
214.98        53.84656
215.44        50.71837
215.90        44.12524
216.36         36.7636
216.81        33.79623
217.27         38.0053
217.73        49.41648
218.19        66.66629
218.65        79.54049
219.11        80.53304
219.57        73.24014
220.02         64.8103
220.48        60.70922
220.94        60.47165
221.40        62.49861
221.86              65
222.32        63.45014
222.77        57.52334
223.23        51.65088
223.69        47.42898
224.15        45.01485
224.61        43.78265
225.06        42.97561
225.52        42.89897
225.98        43.87637
226.44        45.46145
226.90        47.14955
227.36        48.16471
227.81        47.92253
228.27        46.56886
228.73        44.21586
229.19        41.58344
229.65         40.3715
230.10        40.96868
230.56        42.57285
231.02        44.10154
231.48        44.63443
231.93        44.11504
232.39        42.93678
232.85        41.59089
233.31        41.04416
233.77        41.58601
234.22        43.01913
234.68         44.5975
235.14         44.9979
235.60        43.96761
236.05        42.05215
236.51        40.32655
236.97        40.13205
237.43         41.8759
237.88        45.63821
238.34        51.03027
238.80         56.3867
239.26         59.9136
239.71        61.52089
240.17        61.69991
240.63        62.07639
241.08        63.46518
241.54        65.69517
242.00        69.06143
242.46        72.50909
242.91        74.29111
243.37        73.93977
243.83        73.09144
244.28        73.80794
244.74        76.45071
245.20        80.60169
245.66        85.99265
246.11        91.49193
246.57        95.94409
247.03        100.0628
247.48        101.7645
247.94        97.12292
248.40        88.77779
248.85         80.1217
249.31        74.64031
249.77         72.9815
250.22        74.71873
250.68        80.12675
251.14        89.80232
251.59        97.81666
252.05        97.60184
252.51        92.72766
252.96         87.6762
253.42        84.87217
253.88         83.1673
254.33        81.42229
254.79          79.092
255.25        75.48136
255.70         71.3827
256.16        68.17573
256.62        65.88136
257.07        64.15877
257.53        63.00971
257.99        62.03512
258.44        60.84139
258.90        59.70545
259.35        58.37487
259.81        57.26072
260.27        56.24012
260.72        55.21489
261.18        54.30948
261.63        53.27004
262.09        52.23166
262.55        51.08298
263.00        49.82861
263.46        48.70749
263.91        47.58118
264.37        46.54488
264.83        45.51487
265.28        44.41795
265.74         43.4685
266.19        42.78382
266.65        42.42683
267.11        42.28704
267.56        42.12757
268.02        41.60279
268.47        40.63175
268.93        39.33387
269.38        37.90965
269.84        36.83447
270.30        36.22317
270.75        35.92842
271.21        35.74594
271.66        35.34554
272.12        34.64501
272.57        33.73805
273.03        32.74327
273.48        31.76548
273.94          30.925
274.39        30.15462
274.85        29.50629
275.31        28.99074
275.76        28.56646
276.22        28.23193
276.67        27.91656
277.13        27.59425
277.58        27.20913
278.04        26.81707
278.49        26.34309
278.95        25.76584
279.40        25.07056
279.86        24.34697
280.31        23.68135
280.77        23.30929
281.22        23.21809
281.68        23.34386
282.13        23.54455
282.59        23.65976
283.04        23.62648
283.50        23.48773
283.95        23.26275
284.41        22.98852
284.86        22.69094
285.32        22.41164
285.77        22.13645
286.22        21.91216
286.68        21.76061
287.13        21.63068
287.59         21.6013
288.04        21.73478
288.50        22.02139
288.95        22.39225
289.41        22.69625
289.86        22.67571
290.32        22.33402
290.77        21.78172
291.22        21.21339
291.68        20.93523
292.13        21.03115
292.59        21.42691
293.04        22.08633
293.50        22.97528
293.95        24.04809
294.40        25.32209
294.86        26.65383
295.31        27.82361
295.77        28.78601
296.22        29.58335
296.68        30.40009
297.13        31.51685
297.58        33.00174
298.04        34.73517
298.49        36.55307
298.95        38.20012
299.40        39.60537
299.85        40.86162
300.31        42.07809
300.76        43.34946
301.21        44.75026
301.67        46.26519
302.12        47.85243
302.58        49.59745
303.03        51.46935
303.48        53.36455
303.94        55.27175
304.39        57.58749
304.84        59.53156
305.30        61.69748
305.75        63.76207
306.20        65.65179
306.66        67.35729
307.11        68.86264
307.57        70.28195
308.02        71.67915
308.47        73.12132
308.93        74.58927
309.38         76.0392
309.83        77.47142
310.29        78.86684
310.74        80.21311
311.19        81.44199
311.65        82.43385
312.10        83.16994
312.55        83.71343
313.00        84.22638
313.46         84.9682
313.91        85.97345
314.36        87.16086
314.82        88.37772
315.27        89.39897
315.72        90.12917
316.18        90.64162
316.63        90.96487
317.08        91.16212
317.53        91.29218
317.99        91.36921
318.44        91.45195
318.89        91.65103
319.35        91.99167
319.80        92.45093
320.25         93.0199
320.70        93.67053
321.16        94.33997
321.61          95.058
322.06        95.68705
322.51          96.029
322.97        96.04145
323.42        95.78932
323.87        95.43363
324.32        95.25935
324.78        95.33104
325.23        95.64454
325.68        96.06854
326.13        96.37363
326.59        96.47768
327.04        96.48069
327.49        96.50565
327.94        96.79635
328.39        97.39258
328.85        98.15751
329.30        98.95683
329.75        99.37886
330.20        99.32327
330.66        98.91466
331.11        98.40067
331.56        98.11201
332.01        98.17705
332.46        98.50918
332.92        99.01532
333.37        99.66563
333.82        100.3523
334.27        101.0999
334.72        101.8375
335.17        102.4436
335.63        102.8574
336.08        103.1338
336.53         103.296
336.98        103.4683
337.43        103.6954
337.88        103.9556
338.34        104.2344
338.79        104.5246
339.24        104.8213
339.69        105.1588
340.14         105.527
340.59        105.8933
341.05        106.2579
341.50        106.6215
341.95        107.0118
342.40        107.5006
342.85        108.0823
343.30        108.6972
343.75        109.2826
344.20        109.7421
344.66        110.0634
345.11        110.3009
345.56        110.4311
346.01        110.4096
346.46        110.2778
346.91        110.0654
347.36        109.9886
347.81        110.3753
348.26        111.2497
348.72        112.4701
349.17         113.752
349.62        114.5426
350.07        114.6867
350.52        114.3653
350.97        113.8057
351.42         113.366
351.87         113.174
352.32        113.1203
352.77        113.2166
353.22        113.4881
353.67        113.8826
354.13        114.3687
354.58        114.7823
355.03        114.8386
355.48         114.471
355.93        113.7649
356.38        112.8321
356.83        111.8585
357.28        110.9292
357.73         110.017
358.18        109.1816
358.63         108.506
359.08         107.994
359.53        107.6335
359.98        107.3202
360.43        106.8749
360.88        106.2506
361.33        105.4839
361.78        104.6567
362.23        103.9088
362.68        103.2767
363.13        102.7206
363.58        102.1761
364.03        101.5394
364.48        100.7916
364.93        99.97742
365.38         99.1714
365.83        98.49214
366.28        97.96575
366.73        97.54192
367.18        97.15204
367.63         96.6899
368.08        96.11372
368.53        95.44959
368.98        94.71658
369.43        93.94341
369.88        93.16419
370.33        92.40064
370.78        91.66627
371.23        90.98615
371.68        90.37214
372.13        89.80171
372.58        89.33706
373.03        89.07051
373.48        88.97603
373.93        88.99721
374.38        88.92365
374.83        88.42355
375.28        87.46294
375.72        86.16655
376.17        84.85168
376.62        83.83305
377.07        83.18735
377.52        82.79643
377.97         82.5962
378.42        82.48252
378.87        82.38622
379.32        82.33153
379.77        82.21323
380.22        81.86561
380.67        81.26469
381.11        80.44585
381.56        79.55091
382.01        78.84896
382.46         78.4296
382.91        78.24186
383.36        78.16144
383.81        77.98465
384.26        77.65572
384.71        77.22388
385.15        76.78625
385.60        76.54898
386.05         76.5139
386.50        76.60117
386.95        76.64472
387.40        76.40025
387.85        75.84812
388.29         75.0638
388.74        74.31901
389.19        73.78162
389.64        73.48665
390.09        73.34079
390.54        73.28981
390.98        73.23357
391.43        73.15945
391.88         73.0837
392.33        72.92485
392.78        72.63342
393.23         72.2296
393.67        71.58344
394.12        70.87556
394.57        70.84003
395.02        70.47655
395.47        70.54873
395.91        70.66507
396.36        70.65662
396.81        70.47934
397.26        70.19975
397.71        69.87664
398.15        69.51925
398.60        69.22846
399.05         68.9968
399.50         68.8027
399.95        68.58948
400.39         68.1566
400.84        68.24349
401.29          68.644
401.74        68.69267
402.18        68.32464
402.63         67.8659
403.08        67.50748
403.53        67.37863
403.97        67.51375
404.42        67.85452
404.87        68.20564
405.32        68.25903
405.76        67.94389
406.21        67.39223
406.66        66.76345
407.11        66.34795
407.55        66.24651
408.00        66.25862
408.45        66.33228
408.90         66.6166
409.34        66.93938
409.79        66.74753
410.24        66.22919
410.68        66.16912
411.13        66.62121
411.58        67.16286
412.03        67.60632
412.47        67.81353
412.92        67.68391
413.37        67.30138
413.81        66.79473
414.26        66.42735
414.71        66.23495
415.15        66.17022
415.60        66.17445
416.05        66.18854
416.49        66.19853
416.94        66.24611
417.39        66.31944
417.83        66.37231
418.28        66.40668
418.73        66.41301
419.17        66.46407
419.62        66.69894
420.07        67.10307
420.51        67.59751
420.96        68.05496
421.41        68.19041
421.85        67.93914
422.30        67.61257
422.74        67.26101
423.19         66.7445
423.64        66.24155
424.08        66.43405
424.53        67.18488
424.98        67.64204
425.42        67.68622
425.87        67.83875
426.31        68.09248
426.76        67.97865
427.21        67.47014
427.65        67.56958
428.10        68.07311
428.54        67.93974
428.99        67.31839
429.44        67.00507
429.88        67.10356
430.33        67.51107
430.77        68.00513
431.22        68.42371
431.66        68.71816
432.11        68.63174
432.56        68.21799
433.00        68.25751
433.45         69.0966
433.89        68.45145
434.34        69.59114
434.78        70.97461
435.23        69.36224
435.67        68.59534
436.12        67.84865
436.57        67.97253
437.01        68.78906
437.46        69.18694
437.90         69.1246
438.35        69.41441
438.79        70.00709
439.24        70.26685
439.68        70.21552
440.13        70.28154
440.57        70.48203
441.02        70.61282
441.46        70.64722
441.91        70.72018
442.35         70.7527
442.80        70.86587
443.24        71.07092
443.69        70.93777
444.13        70.55744
444.58        70.36628
445.02        70.33098
445.47        70.33173
445.91        70.37243
446.36        70.34495
446.80        70.18033
447.24        70.76904
447.69        70.64016
448.13        70.70625
448.58        70.89283
449.02        70.94289
449.47        70.99859
449.91        71.10153
450.36        71.28671
450.80        71.50102
451.25        71.70732
451.69        71.82164
452.13        71.82927
452.58        71.78069
453.02        71.71331
453.47         71.6684
453.91        71.64248
454.36        71.81435
454.80        71.81232
455.24        71.87249
455.69        71.88277
456.13        71.87611
456.58         71.8646
457.02        71.70992
457.46        71.43027
457.91        71.39233
458.35        71.07284
458.79        70.99072
459.24         71.0514
459.68         71.1331
460.13        71.16267
460.57        71.41435
461.01        71.58311
461.46        71.14127
461.90        70.96716
462.34        71.39253
462.79        71.54527
463.23         71.3615
463.68         70.6684
464.12        70.32481
464.56        70.35791
465.01        70.37423
465.45        70.41688
465.89        70.33168
466.34         70.1246
466.78        70.69167
467.22        70.51372
467.67         70.5854
468.11        70.46822
468.55        70.25738
468.99        70.00299
469.44        69.76294
469.88        69.58077
470.32        69.45559
470.77        69.36171
471.21        69.27613
471.65        69.17693
472.10         69.0833
472.54        69.03243
472.98        69.09539
473.42        69.26057
473.87        69.57283
474.31        69.88087
474.75        69.79729
475.20        69.40584
475.64        69.20268
476.08        69.23773
476.52        69.08817
476.97        68.75116
477.41        68.61691
477.85        68.82264
478.29        68.27103
478.74        69.16122
479.18        69.03085
479.62         68.5776
480.06        68.45615
480.50         68.6981
480.95        68.58883
481.39        69.19845
481.83        68.53624
482.27         69.3498
482.72        69.07202
483.16        69.25064
483.60        69.18119
484.04        69.07173
484.48        69.73438
484.93        69.58529
485.37        69.38592
485.81         68.6072
486.25        67.96278
486.69        69.93369
487.14        69.94762
487.58        68.87466
488.02        68.92628
488.46        69.36706
488.90        69.12077
489.34        68.85652
489.79        69.56339
490.23        68.74542
490.67        68.66553
491.11        68.53576
491.55        68.36293
491.99        68.17178
492.43        68.10503
492.88        68.19203
493.32        68.41014
493.76        68.68179
494.20        68.88191
494.64        68.96995
495.08        68.99265
495.52        68.96323
495.96         68.8748
496.41        68.79705
496.85        68.82481
497.29        68.84723
497.73        69.03003
498.17        68.56884
498.61        68.30865
499.05         68.0422
499.49        68.07473
499.93        68.26869
500.37        68.34215
500.82        68.34631
501.26        67.93227
501.70        68.28112
502.14        68.44542
502.58        68.30512
503.02        68.36559
503.46        68.49857
503.90        68.65916
504.34        68.78817
504.78        68.85536
505.22        68.84885
505.66        68.72478
506.10        68.53896
506.54        68.54278
506.98        68.71039
507.42        68.71018
507.86        68.31517
508.30        68.51624
508.74         68.1026
509.18        67.89921
509.62        67.64335
510.06        67.56779
510.50        67.69182
510.94        67.96239
511.38        68.28046
511.82        68.44951
512.26        68.42011
512.70        68.24827
513.14        68.02834
513.58        67.90851
514.02        67.92853
514.46        68.03851
514.90        68.17168
515.34         68.2483
515.78        68.20136
516.22        68.09901
516.66        67.97736
517.10        67.94691
517.54        68.03264
517.98        68.12461
518.42        68.15168
518.86         68.3963
519.30        68.21346
519.74        68.13106
520.18        68.00886
520.62        67.92697
521.06          67.906
521.50         67.9451
521.93        68.02475
522.37        68.07343
522.81        68.08578
523.25        68.06868
523.69        68.07587
524.13        68.19228
524.57        68.41884
525.01        68.71521
525.45        68.97248
525.89        69.01687
526.32        68.80875
526.76        68.43851
527.20         68.0207
527.64        67.73589
528.08        67.63543
528.52        67.66645
528.96        67.78281
529.40          67.908
529.83        68.00164
530.27        68.09204
530.71        68.15805
531.15        68.17112
531.59        68.12762
532.03        68.02742
532.46        67.88857
532.90        67.77568
533.34        67.70131
533.78        67.66212
534.22        67.64618
534.66        67.63001
535.09         67.6017
535.53        67.58131
535.97        67.57568
536.41        67.60961
536.85        67.68027
537.28        67.76758
537.72        67.83812
538.16        67.83604
538.60        67.75206
539.04         67.6121
539.47        67.43532
539.91         67.3064
540.35        67.22884
540.79        67.19621
541.22        67.20026
541.66         67.2383
542.10        67.29794
542.54        67.38361
542.97        67.47733
543.41        67.56946
543.85        67.64595
544.29        67.72062
544.72        67.75945
545.16        67.75082
545.60        67.69282
546.04         67.5612
546.47         67.4272
546.91        67.50953
547.35        67.77995
547.79        67.98103
548.22        68.02682
548.66        68.14939
549.10        68.34207
549.53        68.25816
549.97        67.84106
550.41        68.40029
550.84        67.89687
551.28         67.8899
551.72        67.75668
552.15        67.97036
552.59        67.66354
553.03        67.89456
553.46        67.78756
553.90        67.84333
554.34        67.85886
554.77        67.89731
555.21        67.94743
555.65        67.90269
556.08        67.79679
556.52        67.79547
556.96        67.89719
557.39         68.0481
557.83         68.2243
558.27        68.32687
558.70        68.35761
559.14        68.42579
559.57        68.49564
560.01        68.47901
560.45        68.41276
560.88        68.17858
561.32        68.16119
561.75        68.24622
562.19        68.45927
562.63        68.31581
563.06        67.88686
563.50        67.82587
563.93        68.10505
564.37        68.06395
564.80         68.0679
565.24         68.0715
565.68        68.16405
566.11        68.23154
566.55        68.27029
566.98        68.17802
567.42        68.07541
567.85        68.09143
568.29        68.20299
568.72        68.45471
569.16        68.97398
569.60        68.39858
570.03        68.77347
570.47        69.16288
570.90        69.06506
571.34        68.61604
571.77         69.1013
572.21        69.25295
572.64        69.43242
573.08        69.37997
573.51        68.72643
573.95        68.96609
574.38        69.67918
574.82        69.12973
575.25        69.09162
575.69        69.10352
576.12        68.94534
576.56        68.63992
576.99        68.48124
577.42        68.75764
577.86        68.73977
578.29        68.70966
578.73        69.58753
579.16        68.66656
579.60        69.05671
580.03        68.78723
580.47        69.35579
580.90        69.38337
581.33        68.61577
581.77        68.51757
582.20        69.26566
582.64        69.80271
583.07        68.90062
583.51        68.51283
583.94        68.55296
584.37        68.15306
584.81        67.64241
585.24        68.15839
585.68        68.89958
586.11        69.78163
586.54        68.97119
586.98         68.4353
587.41        69.29403
587.85        69.67003
588.28        68.93713
588.71        69.48706
589.15        68.40054
589.58        68.96846
590.01        68.15115
590.45        68.28085
590.88        68.67361
591.31        68.97575
591.75        68.95244
592.18        69.08292
592.61        69.21248
593.05        68.12106
593.48         69.0603
593.91        69.55662
594.35         68.5387
594.78        68.30772
595.21        68.27064
595.65        68.38187
596.08        67.87595
596.51        68.12474
596.94        68.83504
597.38        69.09043
597.81        68.76368
598.24        68.90411
598.68        68.76199
599.11        68.38529
599.54        69.37675
599.97        69.61557
600.41        68.18313
600.84        68.74995
601.27        68.45004
601.70        68.83636
602.14        68.96735
602.57        68.68678
603.00         68.1332
603.43        68.11246
603.87        68.38261
604.30        69.01443
604.73        68.64985
605.16        68.59905
605.60        68.51416
606.03        68.74233
606.46        69.10934
606.89         69.1351
607.32        68.83972
607.76        68.73224
608.19        68.88083
608.62        68.86077
609.05        68.67464
609.48        68.97061
609.92         68.5634
610.35        68.85281
610.78        69.06862
611.21         68.4949
611.64        68.55743
612.07        68.70827
612.50         68.7496
612.94        68.61224
613.37        69.12012
613.80        68.88879
614.23        69.37377
614.66        69.36114
615.09        69.25392
615.52        69.21471
615.96        69.21841
616.39        69.23946
616.82        68.92133
617.25         68.8608
617.68        68.44299
618.11        68.54204
618.54        68.87904
618.97        68.84072
619.40        68.48674
619.84        68.39733
620.27        68.62637
620.70        68.93297
621.13        69.21516
621.56        68.97906
621.99        68.64304
622.42        68.48701
622.85        69.15388
623.28        68.60075
623.71         69.2962
624.14        68.17638
624.57         68.7884
625.00          68.644
625.43         68.6444
625.86        68.68916
626.29        68.76427
626.72         68.7986
627.15        68.74191
627.58        68.70763
628.01        68.68523
628.44        68.49673
628.87        68.22823
629.30         68.2757
629.73        68.59279
630.16        68.71658
630.59         68.6036
631.02        68.66399
631.45         68.6048
631.88        68.59068
632.31         68.5325
632.74        68.45856
633.17        68.36761
633.60        68.26466
634.03         68.1575
634.46        68.05596
634.89        67.97561
635.32        67.91012
635.75        67.88802
636.18        67.96895
636.61        68.10867
637.04        68.21961
637.47         68.3101
637.89        68.17639
638.32        68.18914
638.75        68.17811
639.18        68.30367
639.61        67.84949
640.04        68.06995
640.47        68.02011
640.90        68.06934
641.33        68.19067
641.76        68.33871
642.18        68.41606
642.61        68.36481
643.04        68.22582
643.47         68.0791
643.90        68.03384
644.33        68.10524
644.76        68.34228
645.18         68.6229
645.61        68.55931
646.04        68.06664
646.47        67.99516
646.90        68.25854
647.33        68.27682
647.75        68.02495
648.18        67.81128
648.61        67.71978
649.04        67.80354
649.47        68.02839
649.89        68.25616
650.32        68.36749
650.75        68.33707
651.18        68.24051
651.61        68.12811
652.03        68.12375
652.46        68.56953
652.89        69.15287
653.32        69.12105
653.74        68.69353
654.17        67.95247
654.60        67.48047
655.03        69.36491
655.46        67.63161
655.88        68.63285
656.31        71.18362
656.74        72.63477
657.16        72.72216
657.59        70.41271
658.02        68.47552
658.45        69.65267
658.87        69.75749
659.30        68.88698
659.73        69.18676
660.15        69.27716
660.58        69.26115
661.01        69.14401
661.44        68.77306
661.86        68.50941
662.29        68.38345
662.72        68.51623
663.14        68.80768
663.57        68.66447
664.00        68.20213
664.42        68.07845
664.85        68.33984
665.27        68.56792
665.70         68.6881
666.13        68.81625
666.55        68.93494
666.98         68.9891
667.41         68.9867
667.83        68.94549
668.26        68.86724
668.69        68.76165
669.11        68.65131
669.54        68.56686
669.96        68.51694
670.39        68.52486
670.82        68.57337
671.24        68.56255
671.67        68.50755
672.09        68.58844
672.52         68.7792
672.94        68.94637
673.37        68.54471
673.80        68.90302
674.22        68.52962
674.65        68.60455
675.07        68.74471
675.50         68.9529
675.92        69.16547
676.35        69.27074
676.77        69.26019
677.20        69.14709
677.62         68.9988
678.05        68.92385
678.47          68.945
678.90         69.0338
679.32         69.1317
679.75        69.15762
680.17        69.08592
680.60        68.95854
681.02        68.82058
681.45        68.73643
681.87        68.72722
682.30        68.78368
682.72        68.89733
683.15        68.92635
683.57        68.92015
684.00        69.09203
684.42        69.37474
684.85        69.53024
685.27        69.54099
685.70        69.39368
686.12        69.21611
686.54        69.53533
686.97        70.20193
687.39        70.45557
687.82        70.21648
688.24          70.089
688.66        70.07804
689.09        69.80446
689.51        69.36835
689.94        69.13028
690.36        69.13305
690.78        69.27922
691.21        69.49194
691.63        69.64754
692.06         69.7039
692.48        69.71621
692.90        69.70201
693.33        69.67696
693.75        69.65395
694.17        69.61019
694.60        69.58091
695.02        69.59405
695.44        69.64104
695.87        69.85504
696.29        70.16155
696.71        69.97213
697.14        69.65179
697.56        69.63418
697.98         69.9728
698.41        70.11148
698.83        70.02471
699.25        70.04188
699.68        70.13053
700.10        70.13885
700.52        70.04194
700.94        69.90211
701.37        69.73615
701.79         69.5872
702.21        69.46786
702.64        69.38042
703.06         69.3419
703.48        69.39194
703.90        69.53028
704.33        69.74795
704.75        69.97321
705.17        70.15745
705.59        70.25512
706.01        70.28643
706.44        70.26526
706.86        70.22957
707.28        70.18741
707.70        70.13146
708.12         70.1167
708.55        70.18873
708.97        70.29214
709.39        70.66162
709.81        70.52354
710.23        70.69211
710.66        70.92474
711.08        71.12393
711.50        71.25337
711.92        71.37104
712.34        71.48228
712.76        71.56295
713.19         71.5825
713.61        71.54105
714.03        71.42657
714.45        71.26181
714.87        71.10799
715.29        71.05026
715.71        71.10312
716.13        71.24163
716.56        71.39056
716.98        71.50664
717.40        71.53208
717.82        71.49054
718.24        71.40908
718.66        71.33411
719.08        71.28291
719.50        71.23857
719.92        71.20322
720.34        71.18193
720.76        71.17355
721.19         71.1754
721.61        71.18632
722.03        71.17204
722.45        71.12731
722.87        71.05864
723.29        70.99002
723.71        70.96196
724.13        70.98337
724.55        71.04239
724.97        71.11406
725.39        71.15521
725.81        71.15777
726.23        71.14043
726.65        71.12165
727.07        71.13293
727.49        71.17812
727.91        71.23243
728.33        71.29934
728.75        71.37968
729.17        71.46572
729.59        71.58375
730.01        71.67169
730.43        71.58875
730.85        71.35191
731.27        71.08807
731.69         70.9089
732.10        70.91693
732.52        71.14898
732.94        71.60099
733.36        72.13038
733.78        72.51309
734.20        72.62688
734.62        72.46898
735.04        72.18952
735.46        72.24324
735.88        72.59624
736.30        72.74006
736.72        72.58321
737.13        72.42594
737.55        72.23972
737.97        71.78892
738.39        71.25671
738.81         71.1498
739.23        71.46895
739.65        71.84361
740.06        72.08387
740.48        72.19868
740.90        72.12341
741.32        71.79189
741.74        71.35258
742.16        71.15841
742.57        71.30026
742.99        71.58018
743.41        71.89583
743.83        72.24728
744.25        72.49968
744.67        72.31842
745.08        71.84814
745.50        71.66205
745.92        71.84151
746.34        72.08177
746.75        72.29227
747.17        72.45174
747.59        72.52222
748.01        72.52107
748.42        72.48035
748.84        72.42069
749.26        72.37111
749.68        72.32257
750.09        72.27075
750.51        72.24707
750.93        72.24268
751.35        72.26029
751.76        72.30042
752.18        72.35028
752.60        72.40286
753.01        72.46425
753.43        72.50917
753.85        72.52995
754.27        72.53793
754.68         72.5676
755.10        72.60378
755.52        72.62364
755.93        72.60459
756.35         72.5229
756.77        72.49856
757.18        72.62914
757.60         72.9183
758.02         73.6152
758.43        74.38103
758.85        74.06136
759.26        72.90647
759.68        72.45162
760.10        72.81931
760.51        73.12667
760.93        73.26081
761.34        73.46906
761.76        73.63908
762.18        73.64771
762.59        73.47684
763.01        72.94195
763.42        72.26486
763.84        71.95262
764.26        72.10391
764.67         72.4074
765.09        72.78022
765.50          73.288
765.92        73.77792
766.33        73.82812
766.75        73.41303
767.16        73.18473
767.58        73.18379
768.00        72.97662
768.41        72.63316
768.83        72.73105
769.24        73.13537
769.66        73.07609
770.07        72.63736
770.49        72.61947
770.90         73.0234
771.32        73.34362
771.73        73.50237
772.15        73.53824
772.56        73.43652
772.97        73.41698
773.39        73.05006
773.80        73.02074
774.22        73.18134
774.63        73.52355
775.05        73.87209
775.46        74.04207
775.88        73.94964
776.29        73.69238
776.70        73.37011
777.12         73.1638
777.53        73.13795
777.95        73.22679
778.36        73.38769
778.77        73.53831
779.19        73.64522
779.60        73.76409
780.02          73.867
780.43        73.99222
780.84        74.12727
781.26        74.13889
781.67        74.09073
782.09        74.31549
782.50        74.71546
782.91         74.7332
783.33        74.36126
783.74        74.09448
784.15         73.9635
784.57        73.69971
784.98        73.39077
785.39        73.31381
785.81        73.50576
786.22        73.88423
786.63        74.36118
787.04        74.79131
787.46        75.11554
787.87         75.3369
788.28        75.48519
788.70        75.57887
789.11        75.61413
789.52        75.68011
789.93        75.72598
790.35        75.46404
790.76        75.01414
791.17        74.88827
791.58        75.09383
792.00        75.19748
792.41        75.19925
792.82        75.33566
793.23        75.59036
793.65        75.80599
794.06        75.95975
794.47        76.07532
794.88        76.10879
795.29        75.99721
795.71        75.71188
796.12        75.31186
796.53        74.92342
796.94        74.79733
797.35        75.00163
797.76        75.46651
798.18        76.01948
798.59        76.42193
799.00         76.5712
799.41         76.5329
799.82        76.38033
800.23        76.24682
800.64        76.18476
801.06        76.12822
801.47        76.10647
801.88        76.09224
802.29        76.07312
802.70        76.05359
803.11        76.04747
803.52         76.0648
803.93        76.12047
804.34        76.22437
804.75        76.31079
805.17        76.35532
805.58        76.39386
805.99        76.15431
806.40        75.80846
806.81        76.27272
807.22        77.28527
807.63        77.30634
808.04        76.43668
808.45        76.19381
808.86        76.67924
809.27        77.01435
809.68        77.06504
810.09        77.05134
810.50        76.95097
810.91        76.70496
811.32        76.44519
811.73        76.38374
812.14        76.56358
812.55        76.93938
812.96        77.36788
813.37        77.57088
813.78        77.47152
814.19        77.16933
814.60        76.79959
815.01        76.54932
815.42        76.47009
815.83        76.50591
816.24          76.616
816.65        76.72393
817.05        76.79493
817.46        76.81942
817.87        76.83485
818.28        76.83413
818.69        76.82317
819.10        76.80041
819.51        76.77367
819.92        76.76793
820.33        76.78862
820.74        76.81762
821.14        76.87197
821.55        76.98466
821.96        77.14636
822.37        77.35976
822.78        77.53975
823.19        77.53545
823.60        77.31626
824.00        76.92521
824.41        76.50765
824.82        76.32321
825.23        76.42735
825.64        76.76495
826.04        77.18509
826.45        77.33141
826.86        77.14494
827.27        76.72648
827.68        76.28079
828.08        76.15631
828.49         76.3903
828.90        76.91193
829.31        77.55524
829.72         78.0324
830.12        78.27859
830.53        78.29438
830.94        78.23515
831.35        78.31699
831.75        78.61443
832.16        78.96512
832.57        79.27095
832.97        79.33254
833.38        79.10732
833.79        78.73234
834.20        78.27066
834.60        77.78093
835.01        77.34179
835.42        76.90516
835.82        76.64599
836.23        76.78255
836.64        77.35641
837.04        78.33768
837.45        79.30479
837.86        79.70026
838.26         79.3834
838.67        78.52905
839.08        77.51785
839.48        76.93242
839.89        76.96278
840.29        77.41239
840.70        78.07219
841.11        78.61905
841.51        78.95636
841.92        79.15304
842.33        79.25086
842.73        79.29562
843.14        79.26275
843.54        79.15042
843.95        79.00819
844.35        78.99852
844.76        79.12222
845.17        79.33496
845.57        79.55487
845.98        79.60067
846.38        79.45004
846.79        79.15518
847.19         78.7564
847.60        78.27285
848.00        77.77992
848.41        77.30293
848.81        76.97398
849.22        76.97971
849.62        77.37796
850.03        78.06127
850.43        78.93862
850.84        79.61816
851.24        80.02976
851.65        80.14296
852.05        80.05105
852.46        79.87106
852.86        79.64439
853.27        79.42083
853.67        79.10977
854.07        78.78551
854.48        78.39845
854.88         77.9768
855.29        77.51714
855.69        77.25508
856.10         77.1527
856.50        77.28371
856.90        77.42693
857.31         77.2817
857.71        76.84357
858.12        76.15541
858.52        75.51251
858.92         75.3492
859.33        75.74611
859.73        76.61781
860.13        77.62882
860.54        78.24161
860.94        78.34988
861.34         77.9976
861.75        77.40739
862.15        77.04545
862.55        77.00473
862.96         77.1729
863.36         77.2599
863.76         76.8326
864.17        75.87426
864.57        74.62266
864.97        73.43251
865.38        72.76873
865.78        72.77361
866.18         73.2579
866.58        74.10424
866.99        75.02505
867.39         75.8824
867.79        76.69839
868.19        77.22334
868.60        77.10077
869.00           76.33
869.40        74.98344
869.80        73.61244
870.21        73.18233
870.61        73.94959
871.01        75.59016
871.41        77.39297
871.81        78.20847
872.22        77.74879
872.62        76.37039
873.02        74.63955
873.42        73.50476
873.82        73.27896
874.22        73.70473
874.63         74.4207
875.03        74.87737
875.43        74.92162
875.83        74.72417
876.23        74.58122
876.63        74.95564
877.03        75.90526
877.44        77.16463
877.84        78.34344
878.24        78.73897
878.64        78.21936
879.04        77.09015
879.44        75.74817
879.84        74.75628
880.24         74.2784
880.64        74.13698
881.04        74.29897
881.44        74.69906
881.84        75.26296
882.24        76.03794
882.65         76.7444
883.05         77.0241
883.45        76.74048
883.85        76.01282
884.25        75.21161
884.65         74.9282
885.05        75.27662
885.45        76.04688
885.85        76.97785
886.25        77.61107
886.65        77.77229
887.05        77.62575
887.45        77.17427
887.85        76.43535
888.25        75.53559
888.65        74.52904
889.04        73.67118
889.44        73.38748
889.84        73.67284
890.24        74.44791
890.64        75.45643
891.04        76.12768
891.44        76.24606
891.84        75.97909
892.24        75.56764
892.64        75.36019
893.04        75.44534
893.44        75.70216
893.83        76.10358
894.23        76.52518
894.63        76.92885
895.03        77.34573
895.43        77.71651
895.83        77.94416
896.23        78.00907
896.63        77.90314
897.02        77.69074
897.42         77.5563
897.82        77.52122
898.22        77.57215
898.62         77.5893
899.01        77.37653
899.41        76.89799
899.81         76.2448
900.21        75.62659
900.61        75.35367
901.00        75.48318
901.40        75.92152
901.80        76.42323
902.20        76.59054
902.59        76.31932
902.99        75.71983
903.39        75.04302
903.79        74.65993
904.18        74.65909
904.58        74.97039
904.98        75.35386
905.38        75.45225
905.77        75.16968
906.17        74.60676
906.57        74.06079
906.96        74.03016
907.36        74.57165
907.76        75.55928
908.15         76.5536
908.55        76.69324
908.95        75.87733
909.34          74.391
909.74        72.92353
910.14        72.39447
910.53        73.04556
910.93        74.53059
911.33        76.41686
911.72        78.02408
912.12        79.00512
912.52        79.54063
912.91        79.75734
913.31        79.85779
913.70        79.93354
914.10        79.86333
914.49        79.56664
914.89        78.93916
915.29        78.03396
915.68        76.98184
916.08        76.06767
916.47        75.56509
916.87        75.58408
917.26        75.98685
917.66        76.63236
918.05        77.30303
918.45        77.83472
918.84        78.32366
919.24        78.59875
919.64          78.547
920.03        78.17726
920.42        77.49079
920.82        76.76752
921.21        76.34628
921.61         76.3211
922.00        76.64088
922.40        77.08738
922.79        77.35979
923.19         77.3319
923.58         77.1115
923.98        76.85529
924.37         76.8213
924.77        77.05118
925.16        77.44858
925.55        77.84077
925.95        77.95751
926.34        77.76303
926.74        77.35703
927.13        76.88768
927.52        76.55015
927.92        76.42175
928.31        76.41319
928.70        76.52117
929.10        76.73044
929.49        76.99729
929.89        77.28152
930.28        77.48302
930.67        77.34015
931.07        76.83057
931.46        76.10313
931.85        75.30595
932.24        74.66243
932.64        74.26698
933.03        74.06986
933.42        74.16956
933.82        74.69776
934.21        75.63562
934.60        76.85505
934.99        78.07771
935.39        78.82631
935.78        79.01878
936.17        78.74127
936.56        78.03008
936.96        77.05867
937.35         75.9965
937.74        74.86639
938.13        73.99228
938.53         73.7522
938.92        74.14386
939.31         75.1515
939.70        76.37505
940.09         77.0093
940.49        76.79787
940.88        75.94595
941.27        74.96751
941.66        74.66409
942.05        75.20971
942.44        76.41892
942.84         77.7357
943.23        78.23812
943.62        77.61985
944.01        76.18555
944.40        74.70418
944.79        74.29546
945.18        75.17433
945.57        77.01775
945.97         78.9669
946.36        79.77806
946.75        78.99602
947.14        77.05527
947.53        74.86494
947.92        73.78238
948.31        74.14941
948.70        75.60769
949.09        77.41348
949.48        78.22713
949.87         77.6574
950.26        76.15451
950.65        74.53726
951.04        73.93105
951.43        74.57584
951.82        76.14825
952.21        77.94894
952.60        78.71726
952.99        78.08456
953.38        76.47119
953.77        74.74566
954.16        74.05024
954.55        74.61708
954.94        76.21265
955.33        78.07164
955.72        78.58367
956.11        77.25528
956.50        74.67953
956.89        72.11182
957.28        71.15991
957.66        72.15256
958.05        74.57376
958.44        77.45611
958.83        78.83432
959.22        78.06853
959.61        75.86629
960.00        73.35197
960.39        71.94615
960.78        71.91541
961.16        72.85852
961.55        74.15769
961.94        74.69815
962.33        74.10917
962.72         72.9105
963.11        71.62578
963.49        70.92014
963.88        70.95378
964.27        71.43786
964.66        72.29134
965.04        73.44718
965.43        74.68379
965.82        76.06762
966.21        77.23545
966.60        77.52687
966.98        76.86643
967.37        75.51906
967.76        74.04526
968.15         73.2186
968.53        73.17472
968.92        73.64679
969.31        74.46977
969.69         75.3187
970.08        75.93128
970.47        76.52352
970.86        76.77127
971.24        76.15231
971.63        74.65694
972.02        72.51326
972.40        70.56831
972.79        70.19685
973.17        71.59351
973.56        74.23792
973.95          77.277
974.33        79.04099
974.72        78.90924
975.11        77.43953
975.49        75.39926
975.88        74.28286
976.26        74.48001
976.65        75.48203
977.04        76.91866
977.42        78.11682
977.81        78.62415
978.19        78.76189
978.58        78.61119
978.96        78.16894
979.35        77.57466
979.74        76.84449
980.12        76.20517
980.51        76.02892
980.89        76.47378
981.28        77.25726
981.66        78.47312
982.05         79.9464
982.43        81.64344
982.82         83.5338
983.20        84.95361
983.59         84.6592
983.97        82.54955
984.35        79.06897
984.74        75.69344
985.12        74.47926
985.51        75.71314
985.89        78.88203
986.28        82.51023
986.66        84.46062
987.04        83.92102
987.43        81.56288
987.81        78.38239
988.20        76.42342
988.58         76.2749
988.96         77.3715
989.35        78.69545
989.73        78.85198
990.12        77.41008
990.50        75.01319
990.88        72.39108
991.27        70.66173
991.65        70.12987
992.03        70.48003
992.42         71.4127
992.80        72.79582
993.18        74.39364
993.56        76.28957
993.95        78.14987
994.33        79.47926
994.71        79.96621
995.10          79.701
995.48        79.01472
995.86        78.54484
996.24        78.49612
996.63        78.67874
997.01        79.04906
997.39        79.28313
997.77        79.26055
998.15        79.09685
998.54        78.89607
998.92        78.80813
999.30        78.85959
999.68        79.03737
1000.06        79.21194
1000.45        79.10007
1000.83         78.6869
1001.21        78.01429
1001.59        77.43375
1001.97        77.49495
1002.35        78.28847
1002.73        79.66521
1003.12        81.06567
1003.50        81.52174
1003.88        80.90466
1004.26        79.54189
1004.64        78.10742
1005.02        77.74978
1005.40        78.70893
1005.78        80.48767
1006.16        82.51845
1006.54        84.07859
1006.92        84.96038
1007.30        85.35874
1007.69        85.23303
1008.07        84.69042
1008.45        83.75733
1008.83        82.43925
1009.21        80.93439
1009.59        79.58707
1009.97        78.55373
1010.35        77.84498
1010.73        77.56528
1011.11        77.78873
1011.49        78.42644
1011.86        79.43391
1012.24         80.3037
1012.62        80.49167
1013.00        79.85408
1013.38        78.47396
1013.76        76.65672
1014.14        75.18444
1014.52        74.38683
1014.90        74.04866
1015.28        73.97221
1015.66        73.74428
1016.04        73.23665
1016.41         72.7823
1016.79        72.25095
1017.17        71.47266
1017.55        70.71898
1017.93         70.1731
1018.31        70.26077
1018.69        71.61779
1019.06        74.50493
1019.44         78.9447
1019.82        85.04186
1020.20        90.74401
1020.58        93.54601
1020.95        93.26876
1021.33         90.8287
1021.71        87.26528
1022.09        82.65058
1022.46        76.12513
1022.84        68.33884
1023.22        62.33451
1023.60        60.60923
1023.97        62.62133
1024.35         66.3043
1024.73        69.41219
