SpectraSmart Spectrum 2.9.0.0
--------- Device Information -----------
Spectrum Name :  反射率_0
Saving Time :  2024/04/30 00:05:54
Spectro-Module Model Name : SE2030-DUVN
Spectro-Module Serial Number : OS361AC55029948
Wavelength Start : 200
Wavelength End : 1025
Wavelength Unit : Wavelength(nm)
Spectrum Unit : Reflectance(%)
-----------Spectrum Setting ------------
Integration Time : 20ms
Average : 10
Boxcar : 0
Background removal :  enabled
linearity correction :  enabled
SC :  disabled
Intensity correction :  disabled
DWT denoise :  enabled
savitzky-golay :  disabled
FFT :  disabled
Running average :  disabled
Kalman :  disabled
High pass :  disabled
---------------BEGIN--------------------
Wavelength(nm)             Reflectance(%)
200.29               0
200.75         93.5174
201.21        78.54291
201.67        62.62464
202.13        52.41014
202.58        51.08996
203.04        57.75488
203.50        70.75329
203.96        85.56731
204.42        98.00759
204.88        106.7403
205.34         109.042
205.80        103.1975
206.26        92.47442
206.72        80.95471
207.18        69.79317
207.64        58.16543
208.10        45.34459
208.55        30.41745
209.01        16.79514
209.47        13.90486
209.93        22.76278
210.39        37.86004
210.85        51.44793
211.31        57.51865
211.77        55.97423
212.23        47.02251
212.69        32.87292
213.14        26.72875
213.60        34.77991
214.06         49.5263
214.52        61.66297
214.98         65.2152
215.44        61.44597
215.90        53.08057
216.36         43.6625
216.81        39.96643
217.27        45.50841
217.73        59.78488
218.19        81.84129
218.65        100.6251
219.11        106.0462
219.57        100.9877
220.02        91.82226
220.48         83.5844
220.94        75.59486
221.40        65.34181
221.86        52.63236
222.32         42.9906
222.77        40.52755
223.23        43.27924
223.69        46.85199
224.15        48.31257
224.61        47.65273
225.06         45.4814
225.52        42.68404
225.98        41.16919
226.44        41.50587
226.90        42.64748
227.36        43.44893
227.81         43.0141
228.27         41.4073
228.73        38.92626
229.19        36.47731
229.65         35.9575
230.10        37.55816
230.56        40.09172
231.02        42.32371
231.48        43.28504
231.93         42.9649
232.39        41.84775
232.85        40.32492
233.31        39.18341
233.77        38.74524
234.22        38.89358
234.68         39.3327
235.14        39.53185
235.60        39.43025
236.05        39.32042
236.51        39.67884
236.97        41.13595
237.43        43.98619
237.88        48.46769
238.34        54.44356
238.80        60.78582
239.26        65.80463
239.71        69.09647
240.17        70.59533
240.63        71.43887
241.08        72.38594
241.54        72.96191
242.00        73.78633
242.46        76.46827
242.91         81.9516
243.37        88.99767
243.83        95.17181
244.28        98.97248
244.74        100.5918
245.20        99.67213
245.66        97.53732
246.11        97.53123
246.57        101.0616
247.03        108.6201
247.48        115.3846
247.94        111.1964
248.40        98.58396
248.85        84.64296
249.31        76.03442
249.77        75.36555
250.22        82.39178
250.68        98.15326
251.14        123.2469
251.59        140.1194
252.05        133.7354
252.51        117.2261
252.96        102.8545
253.42        95.07663
253.88        91.32135
254.33        89.12459
254.79        87.91089
255.25         86.7889
255.70        85.39996
256.16         84.5519
256.62         84.1096
257.07        83.81802
257.53        83.92868
257.99        84.06911
258.44        83.29012
258.90        81.32176
259.35        78.19666
259.81        75.04959
260.27        72.50806
260.72        71.08351
261.18        70.75169
261.63        70.78226
262.09        70.72099
262.55        69.61979
263.00        67.49323
263.46        65.07408
263.91        62.70986
264.37        61.14688
264.83        60.28411
265.28         59.7789
265.74        59.49237
266.19        58.97165
266.65        58.21088
267.11        57.31112
267.56        56.34596
268.02        55.42059
268.47        54.51019
268.93        53.55965
269.38          52.534
269.84        51.52268
270.30        50.53775
270.75        49.58948
271.21        48.63471
271.66        47.52512
272.12        46.25159
272.57        44.83871
273.03        43.43458
273.48        42.18474
273.94        41.21714
274.39        40.45335
274.85         39.8693
275.31        39.32824
275.76        38.76083
276.22        38.21137
276.67        37.68013
277.13        37.28724
277.58        36.96722
278.04        36.71347
278.49        36.35011
278.95        35.74634
279.40        34.85602
279.86        33.84136
280.31         32.8149
280.77        32.07467
281.22        31.63496
281.68        31.43545
282.13        31.37526
282.59         31.3719
283.04        31.35111
283.50         31.3427
283.95        31.27139
284.41        31.04279
284.86        30.65135
285.32        30.18568
285.77        29.71704
286.22        29.43427
286.68        29.38411
287.13        29.46553
287.59        29.67182
288.04        29.92209
288.50        30.18775
288.95        30.44274
289.41        30.63716
289.86        30.64782
290.32        30.50384
290.77        30.25626
291.22         30.0116
291.68        29.93332
292.13        30.07212
292.59        30.42642
293.04        31.01804
293.50        31.90976
293.95        33.08605
294.40        34.53753
294.86        36.13438
295.31        37.67845
295.77        39.10647
296.22        40.43821
296.68        41.78553
297.13        43.30895
297.58        45.04775
298.04        46.91451
298.49        48.78885
298.95        50.50337
299.40         52.0141
299.85        53.39532
300.31        54.76492
300.76        56.21557
301.21        57.81614
301.67        59.55496
302.12        61.35411
302.58        63.24732
303.03        65.17967
303.48        67.09441
303.94         69.0132
304.39        71.22163
304.84        73.20026
305.30        75.35267
305.75        77.40611
306.20        79.26444
306.66        80.92188
307.11        82.35015
307.57        83.70864
308.02        85.10354
308.47        86.60944
308.93        88.19579
309.38        89.73593
309.83        91.11349
310.29        92.30051
310.74         93.3248
311.19        94.23964
311.65        95.10883
312.10        95.94514
312.55        96.75839
313.00        97.59418
313.46        98.52722
313.91        99.54367
314.36        100.6146
314.82        101.6778
315.27        102.6609
315.72        103.4996
316.18        104.2037
316.63        104.7187
317.08        104.9806
317.53        105.0208
317.99        104.9148
318.44        104.7691
318.89         104.767
319.35        104.9663
319.80        105.3203
320.25        105.8502
320.70        106.5749
321.16        107.4273
321.61        108.4365
322.06        109.3721
322.51        109.8776
322.97        109.8704
323.42        109.4486
323.87        108.8865
324.32        108.6612
324.78        108.8761
325.23        109.4783
325.68         110.216
326.13        110.6527
326.59        110.6517
327.04        110.3927
327.49        110.1164
327.94        110.2592
328.39        110.9198
328.85        111.8993
329.30        113.0038
329.75        113.6877
330.20        113.7944
330.66         113.478
331.11        113.0171
331.56        112.7823
332.01        112.9223
332.46        113.3383
332.92        113.9078
333.37         114.585
333.82        115.2501
334.27        115.9318
334.72        116.6256
335.17        117.3134
335.63        117.9493
336.08        118.5797
336.53        119.0898
336.98        119.3779
337.43        119.4445
337.88        119.3323
338.34        119.2238
338.79        119.4289
339.24         120.007
339.69        120.8898
340.14        121.8593
340.59        122.5327
341.05        122.8185
341.50        122.8387
341.95        122.7833
342.40        122.9808
342.85        123.5021
343.30        124.1975
343.75        124.9492
344.20        125.5715
344.66        126.0175
345.11        126.3932
345.56        126.6332
346.01        126.6199
346.46        126.3857
346.91        125.9483
347.36        125.6499
347.81        126.0191
348.26        127.1031
348.72        128.7138
349.17        130.3534
349.62        131.0966
350.07        130.7336
350.52        129.5922
350.97        128.2188
351.42        127.4472
351.87        127.5021
352.32        128.1198
352.77        129.0474
353.22        129.8797
353.67        130.4299
354.13        130.7812
354.58        130.9234
355.03        130.8256
355.48        130.4882
355.93        129.8944
356.38        129.0528
356.83        128.0052
357.28        126.8136
357.73        125.5331
358.18        124.3017
358.63        123.3088
359.08        122.5925
359.53        122.0984
359.98        121.7118
360.43        121.2365
360.88        120.6106
361.33        119.8876
361.78        119.0931
362.23        118.2751
362.68        117.4608
363.13        116.6283
363.58        115.8228
364.03        115.1216
364.48        114.5335
364.93        114.0424
365.38        113.5777
365.83        113.0219
366.28         112.348
366.73        111.5842
367.18        110.7919
367.63        110.0708
368.08         109.434
368.53        108.8396
368.98        108.2353
369.43        107.5326
369.88        106.7309
370.33        105.9058
370.78        105.0859
371.23        104.3159
371.68        103.6199
372.13        102.9473
372.58        102.4087
373.03        102.1821
373.48        102.2451
373.93        102.5219
374.38        102.6756
374.83        102.1632
375.28        100.9218
375.72        99.15285
376.17        97.36047
376.62        96.11069
377.07        95.52938
377.52        95.41715
377.97         95.5746
378.42        95.67085
378.87        95.56645
379.32        95.35262
379.77        95.01406
380.22        94.51786
380.67        93.87141
381.11        93.06152
381.56        92.16853
382.01        91.37283
382.46        90.74963
382.91        90.29634
383.36        89.95123
383.81        89.59362
384.26        89.18948
384.71         88.7622
385.15        88.37029
385.60        88.16654
386.05        88.13073
386.50        88.19363
386.95        88.20563
387.40        87.94997
387.85        87.40771
388.29        86.63011
388.74         85.8787
389.19        85.27921
389.64        84.86614
390.09        84.56905
390.54        84.35897
390.98        84.17509
391.43        84.02353
391.88         83.9026
392.33        83.73542
392.78        83.45933
393.23        83.07925
393.67        82.52126
394.12        81.92186
394.57        81.81523
395.02        81.16323
395.47         81.2604
395.91        81.55503
396.36        81.60115
396.81        81.31431
397.26        80.99045
397.71        80.70019
398.15        80.37502
398.60        80.12943
399.05        79.93941
399.50        79.79578
399.95        79.71864
400.39        79.44202
400.84         79.6726
401.29        80.13865
401.74        80.14192
402.18        79.60777
402.63        78.86613
403.08        78.17863
403.53        77.79385
403.97        77.76861
404.42        78.00366
404.87        78.30484
405.32        78.33508
405.76        78.01465
406.21        77.58054
406.66        77.09843
407.11        76.58652
407.55        76.23422
408.00        76.09049
408.45        76.18932
408.90        76.90393
409.34        77.83697
409.79        77.56556
410.24        76.39834
410.68         76.1039
411.13        76.78364
411.58        77.42993
412.03        77.79353
412.47        77.93309
412.92        77.74149
413.37        77.25815
413.81        76.64287
414.26        76.21436
414.71        76.01091
415.15        75.97189
415.60        76.01765
416.05        76.05492
416.49         76.0522
416.94        76.05428
417.39        76.03899
417.83        75.94092
418.28        75.76685
418.73         75.5262
419.17        75.31467
419.62        75.30714
420.07         75.5061
420.51        75.83047
420.96        76.17943
421.41        76.28492
421.85        76.07477
422.30        75.88697
422.74        75.69842
423.19        75.21026
423.64         74.5974
424.08        74.69806
424.53        75.41264
424.98        75.77141
425.42        75.65617
425.87         75.8566
426.31        76.25518
426.76        75.73528
427.21        74.44939
427.65        74.45041
428.10        75.46406
428.54        75.57003
428.99        74.80569
429.44        74.23767
429.88        74.07375
430.33        74.35423
430.77        74.87638
431.22        75.42714
431.66        75.82226
432.11        75.59804
432.56        74.85882
433.00        74.54469
433.45        74.95631
433.89        74.96138
434.34        75.03407
434.78        76.93876
435.23         74.8389
435.67        74.21342
436.12        73.69742
436.57        73.86605
437.01        74.47816
437.46        75.37879
437.90        75.22181
438.35        75.20804
438.79        75.98508
439.24        76.11546
439.68        75.93342
440.13        75.80746
440.57        75.83509
441.02        75.88052
441.46        75.91364
441.91        76.15614
442.35        76.37603
442.80        76.33569
443.24        76.01622
443.69         75.7226
444.13        75.53923
444.58        75.42497
445.02        75.36182
445.47        75.47203
445.91        75.68256
446.36        75.80093
446.80        75.76575
447.24        75.83788
447.69        75.70721
448.13        75.66655
448.58        75.64838
449.02        75.62446
449.47        75.61831
449.91        75.63757
450.36        75.69984
450.80        75.78466
451.25        75.88252
451.69        75.93742
452.13        75.94334
452.58        75.93816
453.02        75.93162
453.47        75.92735
453.91        75.90406
454.36        76.04308
454.80        75.98252
455.24        76.01144
455.69        75.99835
456.13        75.98843
456.58        75.99645
457.02        75.53035
457.46        75.30758
457.91         75.1262
458.35        75.14452
458.79        75.14028
459.24        75.13498
459.68        75.28612
460.13        75.56528
460.57        75.50177
461.01        75.61508
461.46        75.38908
461.90        75.06281
462.34        75.07096
462.79        75.30723
463.23        75.07211
463.68         74.3926
464.12        74.08057
464.56        74.22878
465.01         73.5913
465.45        73.68855
465.89        73.65333
466.34         73.8713
466.78        74.00587
467.22        74.29693
467.67        73.82395
468.11        73.92992
468.55        73.49873
468.99        73.03002
469.44        72.71622
469.88        72.61414
470.32        72.67259
470.77        72.78734
471.21        72.84438
471.65        72.77947
472.10        72.64199
472.54        72.50184
472.98        72.44529
473.42        72.47055
473.87         72.7254
474.31        73.04529
474.75        72.74643
475.20        72.01536
475.64        72.04438
476.08         72.7569
476.52        72.74944
476.97        71.90943
477.41        72.23784
477.85        71.58971
478.29        71.34245
478.74        72.46575
479.18         72.3828
479.62        71.70116
480.06        71.51618
480.50        71.90868
480.95         71.7386
481.39        72.11897
481.83        71.74289
482.27        72.28245
482.72        72.23615
483.16        72.08429
483.60        72.10369
484.04        72.31141
484.48        72.59064
484.93        72.70185
485.37         72.6595
485.81        71.63869
486.25        71.18898
486.69        72.07471
487.14        72.30286
487.58         71.3906
488.02        71.01633
488.46        71.83334
488.90        71.49847
489.34        71.22474
489.79        71.90504
490.23        71.22394
490.67        71.16166
491.11        70.97538
491.55        70.81219
491.99        70.68616
492.43        70.63844
492.88         70.6885
493.32        70.85868
493.76        71.09644
494.20        71.27974
494.64        71.37145
495.08        71.47203
495.52        71.53665
495.96         71.3516
496.41        71.03297
496.85        70.94693
497.29        71.01057
497.73         71.2547
498.17        70.83953
498.61        70.65067
499.05        70.51723
499.49        70.53462
499.93        70.63029
500.37        70.56796
500.82        70.39561
501.26        70.19007
501.70        70.37254
502.14         70.4515
502.58        70.52519
503.02         70.6147
503.46         70.7131
503.90        70.81299
504.34        70.89418
504.78        70.93974
505.22        70.94485
505.66        70.88155
506.10        70.76402
506.54        70.74477
506.98        70.82759
507.42        70.74133
507.86          70.429
508.30        70.69257
508.74        70.24597
509.18         70.0852
509.62        69.89981
510.06        69.86495
510.50        69.98931
510.94        70.23853
511.38        70.51689
511.82        70.63499
512.26        70.55583
512.70        70.31601
513.14        70.01263
513.58        69.85867
514.02        69.91058
514.46        69.86509
514.90        70.09911
515.34        70.14209
515.78        70.09482
516.22        69.98091
516.66        69.86485
517.10         69.8328
517.54        69.89877
517.98        70.03634
518.42        70.17055
518.86        70.18707
519.30        70.06371
519.74         69.8389
520.18        69.60612
520.62        69.50491
521.06        69.56863
521.50        69.76628
521.93        70.01462
522.37        70.12208
522.81        70.05152
523.25         69.9045
523.69        69.80575
524.13        69.65965
524.57        69.95618
525.01        70.26464
525.45        70.58842
525.89        70.70264
526.32        70.55269
526.76        70.23009
527.20         69.8588
527.64        69.64523
528.08        69.63792
528.52        69.77017
528.96        69.95467
529.40        70.05496
529.83         70.0237
530.27        69.91293
530.71        69.76494
531.15        69.64879
531.59        69.58769
532.03        69.56167
532.46        69.53227
532.90        69.47195
533.34        69.37124
533.78        69.25204
534.22         69.1612
534.66        69.16507
535.09        69.26457
535.53        69.44505
535.97        69.63818
536.41        69.75249
536.85        69.75983
537.28         69.6787
537.72        69.55263
538.16        69.44721
538.60        69.38277
539.04        69.34534
539.47        69.29338
539.91        69.22031
540.35        69.10709
540.79        68.98136
541.22        68.87257
541.66        68.83606
542.10        68.87661
542.54        68.97569
542.97         69.0968
543.41        69.20549
543.85        69.27729
544.29        69.33539
544.72        69.34732
545.16        69.30177
545.60        69.20018
546.04        69.01953
546.47        68.83472
546.91        68.87446
547.35        69.11295
547.79        69.28582
548.22        69.31447
548.66        69.44774
549.10        69.67674
549.53        69.64192
549.97        69.25965
550.41        69.83052
550.84        69.27579
551.28         69.1749
551.72        68.91296
552.15        69.09326
552.59        68.85912
553.03        68.91201
553.46        68.99356
553.90         69.0467
554.34        69.03575
554.77        69.18198
555.21        69.22462
555.65        69.15665
556.08        68.96565
556.52         68.9858
556.96        69.18774
557.39        69.35094
557.83        69.44211
558.27        69.46291
558.70        69.45018
559.14        69.45956
559.57        69.50491
560.01         69.6047
560.45        69.72449
560.88        69.43893
561.32        69.18043
561.75        69.15777
562.19        69.40856
562.63        69.24741
563.06        68.76176
563.50         68.7169
563.93         69.0421
564.37         69.1487
564.80        68.99199
565.24          68.931
565.68        68.97539
566.11        68.91883
566.55        68.99254
566.98        68.91499
567.42        68.86753
567.85        68.89732
568.29        68.98798
568.72        69.33003
569.16        69.99548
569.60        69.35247
570.03         69.4785
570.47        69.79246
570.90        69.72134
571.34        68.89425
571.77        69.50611
572.21        69.53664
572.64        69.62001
573.08        69.61969
573.51        69.61354
573.95        69.36105
574.38        69.78322
574.82        69.64368
575.25        69.61873
575.69        69.73303
576.12        69.43169
576.56        68.99364
576.99        69.13372
577.42        69.28912
577.86        69.55129
578.29        69.30655
578.73        69.71087
579.16         69.4906
579.60        69.55063
580.03        69.27755
580.47        69.88303
580.90        69.72535
581.33        69.28865
581.77        69.40553
582.20        69.44975
582.64        69.86189
583.07         69.4431
583.51        69.14143
583.94         68.9336
584.37        68.63113
584.81        68.50741
585.24        68.97076
585.68        69.52455
586.11        70.13341
586.54        69.13737
586.98        68.88563
587.41          69.904
587.85        69.84993
588.28        69.39154
588.71        70.02106
589.15        68.99496
589.58        69.15271
590.01        68.61489
590.45        68.72893
590.88        69.18143
591.31        69.65038
591.75        69.82211
592.18        69.94694
592.61        70.32822
593.05        68.66044
593.48         69.4573
593.91        70.34208
594.35        68.98515
594.78        68.67744
595.21        68.67649
595.65        69.12833
596.08        68.49606
596.51        68.90382
596.94        69.01016
597.38        69.20845
597.81        69.16624
598.24        68.96761
598.68        69.11391
599.11        68.61765
599.54        69.36711
599.97        69.89052
600.41        68.55652
600.84        68.74844
601.27         68.8028
601.70        68.93134
602.14        69.09134
602.57        68.82159
603.00        68.36423
603.43        68.39739
603.87        68.70099
604.30        68.99586
604.73        68.83904
605.16         68.6923
605.60        68.57901
606.03        68.66167
606.46        69.06756
606.89         69.2618
607.32        68.82687
607.76        68.72489
608.19        68.88859
608.62         68.8429
609.05        68.63354
609.48        68.76287
609.92        69.17529
610.35        68.75978
610.78        69.31004
611.21        68.52695
611.64        68.47671
612.07        68.97845
612.50        68.57618
612.94        68.63081
613.37        69.03771
613.80        68.70076
614.23         69.1387
614.66        69.14981
615.09        69.17999
615.52        69.14637
615.96        68.97522
616.39        69.16351
616.82        68.29886
617.25        68.51022
617.68        68.26965
618.11        68.61733
618.54        69.01942
618.97         68.8862
619.40        68.34729
619.84        68.18922
620.27        68.52604
620.70        68.92757
621.13        69.16497
621.56        68.98038
621.99        68.58574
622.42        67.73629
622.85        68.62864
623.28        68.36497
623.71         68.9048
624.14        67.80583
624.57        68.73653
625.00        68.72486
625.43         68.7327
625.86        68.60175
626.29        68.32352
626.72        68.71711
627.15        68.37617
627.58        68.47883
628.01        68.54702
628.44        68.48618
628.87        68.39487
629.30        68.16076
629.73        68.74026
630.16        68.89127
630.59        68.77306
631.02        68.85995
631.45        68.83408
631.88        68.84349
632.31        68.78751
632.74        68.71346
633.17        68.61344
633.60        68.48405
634.03        68.33724
634.46        68.17204
634.89        68.02538
635.32        67.96426
635.75        67.99757
636.18        68.09319
636.61        68.21709
637.04        68.32644
637.47        68.41377
637.89         68.4493
638.32        68.39967
638.75        68.36758
639.18        68.38317
639.61        67.85231
640.04        68.08049
640.47          67.679
640.90        67.88059
641.33        67.96996
641.76        68.14516
642.18        68.27016
642.61         68.2827
643.04        68.21474
643.47         68.1362
643.90        68.16563
644.33        68.31156
644.76         68.6154
645.18        68.94099
645.61        68.87848
646.04        68.34359
646.47         68.2055
646.90        68.39531
647.33        68.36046
647.75        68.08751
648.18        67.87553
648.61        67.81258
649.04        67.94954
649.47        68.23238
649.89        68.54238
650.32        68.73554
650.75         68.6274
651.18        68.33529
651.61        68.23809
652.03        68.39912
652.46        68.69783
652.89        68.89962
653.32         68.7418
653.74        68.43369
654.17        67.85857
654.60         67.5668
655.03        69.17326
655.46        67.70213
655.88        68.42165
656.31        69.26994
656.74        70.88505
657.16        71.47027
657.59        69.58401
658.02        67.93749
658.45        68.98258
658.87        68.58068
659.30        68.52467
659.73        69.01709
660.15        69.08365
660.58        69.03423
661.01        68.77203
661.44        68.41342
661.86        68.06936
662.29        67.82123
662.72        67.90662
663.14        68.22091
663.57        68.10738
664.00         67.6687
664.42        67.58543
664.85        67.89454
665.27        68.15308
665.70        68.28378
666.13        68.41084
666.55        68.51828
666.98        68.55293
667.41        68.51689
667.83         68.4204
668.26        68.27043
668.69        68.08106
669.11        67.90845
669.54        67.83784
669.96        67.88348
670.39        68.03797
670.82        68.22968
671.24        68.30044
671.67           68.23
672.09        68.15714
672.52        68.12916
672.94          68.186
673.37        67.81742
673.80          68.269
674.22        68.01665
674.65        68.16886
675.07        68.32079
675.50        68.49306
675.92        68.65202
676.35        68.73315
676.77        68.73881
677.20        68.66339
677.62        68.54726
678.05         68.4594
678.47        68.41595
678.90        68.40784
679.32        68.40376
679.75        68.36428
680.17        68.27737
680.60        68.16975
681.02        68.07181
681.45        68.03732
681.87        68.07835
682.30        68.15174
682.72         68.2466
683.15        68.30341
683.57        68.33339
684.00        68.36281
684.42        68.37675
684.85        68.39698
685.27        68.43448
685.70        68.33696
686.12        68.20593
686.54        68.60958
686.97        69.38149
687.39        69.65861
687.82        69.36827
688.24        69.28979
688.66        69.45734
689.09        69.03033
689.51        68.79279
689.94        68.51918
690.36        68.46203
690.78        68.49507
691.21        68.58715
691.63        68.72446
692.06        68.84666
692.48        68.87953
692.90        68.83088
693.33        68.80627
693.75         68.8126
694.17        68.76263
694.60        68.68896
695.02        68.65933
695.44        68.67294
695.87        68.83999
696.29        69.07426
696.71        68.90366
697.14        68.45586
697.56        68.43063
697.98        68.81668
698.41        69.02771
698.83         69.0322
699.25        69.18432
699.68        69.41692
700.10        69.49477
700.52         69.3779
700.94        69.15414
701.37        68.87694
701.79        68.65314
702.21        68.51644
702.64        68.44274
703.06        68.44135
703.48        68.55158
703.90         68.7708
704.33        69.03962
704.75        69.36943
705.17        69.55969
705.59        69.58295
706.01        69.45978
706.44        69.28432
706.86        69.18616
707.28        69.19272
707.70        69.36604
708.12        69.61113
708.55        69.54346
708.97        69.23832
709.39        69.24648
709.81        69.56728
710.23        69.73788
710.66         69.7262
711.08        69.82713
711.50        70.00266
711.92        70.08585
712.34        70.06906
712.76        70.00593
713.19        69.91039
713.61        69.85446
714.03        69.84006
714.45        69.84544
714.87        69.88611
715.29        69.98769
715.71        70.14279
716.13        70.34309
716.56        70.50462
716.98        70.57274
717.40        70.49756
717.82        70.30397
718.24        70.07271
718.66        69.93721
719.08        69.93043
719.50        70.01514
719.92        70.12537
720.34        70.15119
720.76        70.06435
721.19        69.89593
721.61        69.70831
722.03        69.57344
722.45        69.51636
722.87         69.5123
723.29        69.53699
723.71        69.55257
724.13        69.54724
724.55        69.53809
724.97        69.53751
725.39        69.56007
725.81        69.61221
726.23        69.68776
726.65        69.77815
727.07        69.87672
727.49        69.97399
727.91        70.05459
728.33        70.12792
728.75        70.21085
729.17         70.2994
729.59        70.39508
730.01        70.43688
730.43        70.32597
730.85        70.06619
731.27        69.70997
731.69        69.38774
732.10         69.2999
732.52        69.48578
732.94        69.88517
733.36         70.3828
733.78        70.76434
734.20        70.94734
734.62          70.986
735.04        70.94579
735.46        70.91837
735.88        70.94126
736.30         71.0219
736.72        71.11063
737.13        71.07715
737.55        70.87165
737.97        70.66695
738.39        70.51702
738.81        70.26176
739.23        70.01492
739.65        70.26669
740.06         70.8251
740.48        71.00513
740.90        70.73344
741.32        70.36317
741.74        70.03132
742.16        69.85332
742.57        69.90688
742.99        70.06094
743.41        70.26331
743.83         70.6012
744.25        70.94997
744.67        70.91213
745.08        70.58435
745.50        70.49419
745.92        70.69824
746.34        70.89503
746.75        71.01441
747.17        71.07513
747.59        71.05637
748.01        70.96954
748.42        70.85444
748.84        70.74556
749.26        70.67693
749.68        70.64021
750.09        70.62974
750.51        70.67082
750.93        70.74437
751.35        70.84248
751.76        70.94868
752.18        71.02588
752.60        71.06113
753.01        71.07072
753.43        71.03062
753.85        70.93862
754.27        70.81744
754.68        70.70457
755.10        70.62704
755.52        70.62318
755.93        70.68327
756.35        70.77189
756.77        70.93903
757.18         71.1867
757.60        71.49185
758.02        72.06779
758.43        72.66473
758.85        72.38012
759.26        71.42117
759.68        71.06317
760.10        71.38287
760.51        71.50655
760.93        71.39651
761.34         71.5733
761.76        71.90188
762.18        71.90575
762.59        71.56852
763.01        71.01411
763.42        70.43985
763.84        70.11902
764.26        70.14375
764.67        70.29105
765.09        70.52319
765.50        71.05163
765.92        71.55612
766.33        71.75977
766.75        71.54426
767.16        71.48463
767.58         71.5859
768.00         71.4152
768.41        71.06839
768.83        71.18321
769.24        71.61655
769.66        71.55141
770.07        71.06286
770.49        70.90858
770.90        71.13976
771.32          71.444
771.73        71.72462
772.15        71.80544
772.56         71.6572
772.97        71.61995
773.39        71.29171
773.80        71.30567
774.22        71.51579
774.63        71.91651
775.05        72.31572
775.46        72.49902
775.88        72.38062
776.29        72.07346
776.70        71.68585
777.12        71.41758
777.53         71.3386
777.95        71.36506
778.36        71.49214
778.77        71.69501
779.19        71.94954
779.60        72.31581
780.02        72.65237
780.43        72.82822
780.84        72.83767
781.26        72.49352
781.67        72.02505
782.09         72.4034
782.50        73.48772
782.91        73.43123
783.33         73.2466
783.74        72.99821
784.15        73.01865
784.57        72.71304
784.98         72.2027
785.39        71.96683
785.81        72.05907
786.22        72.34196
786.63        72.73951
787.04        73.13119
787.46        73.46215
787.87        73.74835
788.28        73.96882
788.70        74.07813
789.11        74.06636
789.52        73.95539
789.93        73.78321
790.35        73.61604
790.76        73.49851
791.17        73.42599
791.58        73.41526
792.00        73.46069
792.41        73.57115
792.82        73.74006
793.23        73.93229
793.65        74.05637
794.06        74.11676
794.47        74.19894
794.88        74.25811
795.29        74.15887
795.71        73.87075
796.12        73.50012
796.53        73.17188
796.94        73.10214
797.35        73.34873
797.76        73.84677
798.18          74.415
798.59        74.80203
799.00        74.90657
799.41        74.80063
799.82        74.57076
800.23        74.37392
800.64         74.2718
801.06        74.19393
801.47        74.17477
801.88        74.19283
802.29         74.2345
802.70        74.30761
803.11        74.39702
803.52        74.46364
803.93        74.50774
804.34        74.54369
804.75        74.55548
805.17         74.5861
805.58          74.683
805.99        74.61042
806.40        74.46005
806.81        74.88475
807.22        75.66165
807.63         75.5981
808.04        74.81457
808.45        74.57109
808.86        74.96882
809.27         75.3056
809.68        75.42525
810.09        75.41371
810.50        75.23389
810.91        74.86456
811.32        74.49032
811.73        74.40389
812.14        74.66762
812.55        75.21557
812.96        75.83193
813.37        76.11134
813.78        75.94317
814.19         75.4619
814.60        74.90207
815.01        74.59649
815.42        74.62311
815.83        74.88557
816.24        75.24278
816.65        75.42467
817.05        75.33946
817.46        75.04924
817.87        74.71048
818.28        74.48711
818.69        74.42985
819.10        74.48886
819.51        74.61707
819.92        74.73689
820.33        74.81261
820.74        74.85991
821.14        74.91605
821.55        75.04404
821.96        75.24426
822.37        75.49603
822.78        75.71053
823.19        75.73966
823.60        75.54662
824.00        75.17495
824.41        74.75294
824.82        74.51025
825.23        74.49817
825.64        74.67133
826.04        74.90683
826.45        74.90211
826.86        74.62198
827.27        74.16724
827.68        73.72175
828.08         73.5944
828.49        73.81234
828.90         74.3082
829.31        74.94901
829.72        75.50515
830.12        75.91207
830.53        76.14167
830.94        76.27412
831.35         76.4035
831.75        76.57921
832.16        76.69299
832.57        76.71706
832.97        76.57694
833.38        76.28142
833.79        75.92737
834.20        75.59128
834.60        75.34962
835.01        75.26063
835.42        75.27194
835.82        75.44405
836.23        75.80366
836.64        76.33952
837.04        77.04527
837.45        77.64724
837.86        77.85943
838.26         77.6153
838.67        77.02547
839.08        76.29092
839.48        75.70684
839.89        75.41508
840.29        75.32639
840.70        75.43484
841.11        75.74023
841.51        76.22221
841.92        76.83884
842.33        77.45706
842.73        77.82521
843.14        77.82365
843.54        77.54935
843.95        77.13794
844.35         76.8912
844.76        76.86807
845.17         76.9679
845.57        77.13923
845.98        77.25879
846.38        77.29794
846.79        77.30629
847.19        77.20987
847.60        76.82485
848.00        76.18091
848.41        75.35569
848.81        74.62276
849.22        74.39064
849.62         74.7719
850.03        75.61113
850.43        76.69893
850.84         77.4332
851.24        77.67803
851.65        77.47092
852.05        77.04503
852.46        76.74496
852.86        76.65833
853.27        76.73867
853.67        76.74999
854.07        76.57661
854.48        76.13811
854.88        75.51136
855.29        74.79787
855.69        74.43237
856.10        74.45103
856.50        74.85793
856.90        75.30824
857.31        75.31186
857.71        74.82462
858.12        73.96088
858.52        73.10592
858.92        72.84782
859.33        73.31397
859.73        74.35122
860.13        75.58704
860.54        76.42834
860.94        76.72941
861.34        76.55317
861.75        76.05628
862.15        75.59045
862.55        75.24716
862.96        74.96215
863.36        74.58232
863.76        73.89108
864.17        72.92001
864.57        71.84303
864.97        70.91794
865.38         70.4596
865.78        70.55959
866.18        71.06713
866.58        71.87705
866.99        72.73067
867.39         73.5068
867.79        74.21533
868.19        74.62847
868.60        74.42701
869.00        73.62347
869.40        72.29871
869.80        70.99373
870.21        70.64546
870.61        71.49729
871.01        73.22144
871.41        75.12612
871.81        76.09525
872.22        75.83916
872.62        74.69749
873.02        73.16747
873.42        72.09177
873.82        71.76289
874.22        71.95047
874.63        72.39255
875.03        72.69668
875.43        72.74014
875.83        72.65416
876.23        72.63229
876.63        72.95523
877.03        73.65527
877.44        74.56128
877.84        75.39956
878.24        75.65479
878.64        75.24306
879.04        74.37383
879.44        73.41591
879.84        72.90547
880.24        72.95605
880.64        73.38205
881.04        74.00094
881.44        74.50027
881.84        74.76167
882.24        74.90176
882.65        74.84799
883.05        74.62556
883.45        74.23432
883.85        73.70487
884.25         73.2661
884.65        73.28248
885.05        73.79459
885.45        74.65162
885.85        75.63194
886.25        76.33736
886.65        76.60782
887.05        76.56939
887.45        76.17079
887.85        75.36333
888.25        74.27715
888.65        73.01279
889.04        71.91765
889.44        71.52218
889.84        71.83692
890.24        72.75517
890.64        73.94946
891.04        74.70205
891.44        74.74866
891.84        74.30434
892.24        73.68365
892.64        73.33543
893.04        73.35793
893.44        73.58049
893.83        73.94327
894.23        74.27129
894.63        74.52126
895.03        74.78092
895.43        74.97688
895.83        74.97841
896.23        74.78247
896.63        74.38729
897.02        73.99722
897.42        74.02554
897.82        74.51823
898.22        75.38257
898.62         76.2491
899.01        76.50869
899.41        76.01892
899.81        74.97999
900.21        73.84083
900.61        73.29503
901.00        73.49496
901.40        74.23331
901.80        75.09488
902.20        75.39555
902.59        74.96292
902.99        74.03122
903.39        72.98318
903.79        72.37952
904.18        72.35329
904.58        72.74097
904.98        73.26266
905.38        73.50352
905.77        73.33645
906.17         72.9058
906.57        72.42523
906.96        72.25368
907.36        72.44141
907.76        72.88525
908.15        73.36485
908.55        73.40122
908.95        72.96247
909.34        72.21213
909.74        71.52129
910.14        71.31171
910.53         71.7194
910.93        72.55528
911.33        73.66757
911.72        74.83247
912.12        75.84363
912.52        76.75728
912.91        77.51335
913.31        77.99299
913.70        78.17454
914.10        78.03015
914.49         77.6144
914.89        77.02339
915.29        76.34762
915.68        75.62934
916.08        75.01138
916.47        74.56387
916.87        74.35931
917.26        74.34063
917.66        74.51488
918.05        74.89887
918.45        75.39956
918.84        76.04825
919.24        76.57258
919.64        76.67274
920.03        76.30331
920.42        75.53922
920.82        74.71712
921.21         74.2629
921.61        74.29306
922.00        74.69998
922.40        75.27779
922.79        75.74918
923.19        75.97361
923.58        76.06413
923.98        76.06208
924.37        76.04536
924.77        76.03603
925.16        75.98143
925.55        75.91007
925.95        75.88943
926.34        75.94688
926.74        76.07445
927.13        76.17249
927.52        76.03023
927.92        75.63415
928.31        75.03973
928.70        74.45678
929.10         74.2109
929.49        74.36917
929.89        74.79185
930.28        75.29608
930.67        75.47948
931.07         75.2374
931.46        74.74586
931.85        74.13522
932.24        73.59557
932.64        73.22928
933.03        73.00362
933.42        73.01411
933.82        73.40707
934.21        74.18589
934.60        75.21388
934.99        76.33255
935.39        77.25657
935.78        77.91376
936.17         78.3245
936.56        78.26424
936.96        77.45785
937.35        75.99944
937.74        74.10422
938.13        72.37984
938.53        71.57713
938.92        71.77164
939.31        72.81906
939.70        74.25922
940.09        75.16285
940.49        75.18737
940.88        74.58007
941.27        73.75356
941.66        73.35682
942.05         73.5491
942.44        74.15434
942.84        74.79715
943.23        74.91672
943.62        74.32685
944.01        73.25128
944.40        72.22916
944.79        72.02306
945.18         72.7658
945.57        74.22697
945.97        75.75393
946.36        76.45686
946.75        75.97387
947.14         74.6174
947.53        73.04443
947.92        72.24606
948.31        72.47883
948.70        73.47784
949.09        74.73475
949.48        75.33507
949.87        74.99665
950.26        74.01705
950.65         72.9287
951.04        72.45524
951.43        72.75193
951.82        73.61673
952.21        74.57851
952.60        74.80828
952.99        74.10081
953.38        72.76273
953.77        71.43595
954.16        70.95352
954.55        71.47832
954.94        72.84729
955.33        74.49209
955.72        75.18158
956.11        74.50095
956.50        72.86016
956.89        71.15864
957.28        70.58009
957.66        71.39442
958.05        73.19714
958.44        75.30135
958.83        76.30707
959.22         75.7627
959.61        74.19244
960.00        72.39568
960.39        71.37235
960.78         71.3122
961.16        71.93177
961.55        72.81353
961.94        73.23737
962.33        72.94167
962.72        72.26438
963.11        71.48159
963.49        70.93328
963.88         70.7126
964.27        70.65327
964.66        70.79539
965.04        71.28111
965.43        71.99931
965.82        72.96694
966.21        73.86797
966.60        74.11728
966.98        73.62907
967.37        72.64232
967.76        71.58281
968.15        71.03222
968.53         71.0947
968.92        71.54831
969.31        72.30943
969.69        73.21202
970.08        74.06295
970.47        75.04207
970.86        75.77448
971.24        75.64218
971.63        74.57734
972.02        72.79314
972.40        71.16864
972.79        71.15054
973.17        72.93355
973.56        75.96061
973.95        79.25749
974.33        80.94711
974.72        80.37003
975.11        78.17319
975.49         75.2865
975.88        73.45347
976.26        73.13702
976.65        73.77135
977.04        74.95306
977.42        75.92415
977.81        76.21785
978.19        76.23942
978.58        76.00369
978.96        75.38627
979.35        74.50827
979.74        73.35212
980.12         72.3708
980.51        72.35296
980.89        73.51014
981.28        75.44806
981.66        77.77911
982.05        79.50671
982.43        80.41021
982.82        80.70902
983.20        80.33302
983.59        79.13101
983.97        77.30552
984.35        74.89687
984.74         72.9365
985.12         72.8412
985.51        74.70252
985.89        78.26392
986.28        81.96477
986.66        83.51619
987.04        82.13493
987.43        78.43378
987.81        73.93201
988.20        71.64275
988.58        72.38952
988.96        75.45776
989.35          78.937
989.73        79.88408
990.12        77.52208
990.50        72.93476
990.88        67.95451
991.27        65.51723
991.65         66.3325
992.03        69.45556
992.42        73.50118
992.80        76.69738
993.18        78.33856
993.56        78.91866
993.95        78.79909
994.33        78.82234
994.71        79.19154
995.10        79.64402
995.48        79.83248
995.86        79.40189
996.24        78.33569
996.63        76.73485
997.01        75.32281
997.39        75.11372
997.77        76.32281
998.15        78.62091
998.54        80.98816
998.92        81.87141
999.30         80.9019
999.68        78.49201
1000.06        75.59782
1000.45        74.04272
1000.83        74.51133
1001.21        76.41795
1001.59        78.98563
1001.97        80.92058
1002.35        81.74902
1002.73        81.88557
1003.12        81.45635
1003.50        80.54359
1003.88        79.36996
1004.26        77.93191
1004.64        76.61919
1005.02        76.16471
1005.40         76.7019
1005.78        77.94998
1006.16        79.57397
1006.54        81.11684
1006.92        82.41605
1007.30        83.58128
1007.69        84.32845
1008.07        84.24702
1008.45        83.19042
1008.83        81.33758
1009.21        79.22131
1009.59        77.77731
1009.97        77.30719
1010.35        77.52914
1010.73        78.42699
1011.11         79.8773
1011.49        81.62203
1011.86        83.70981
1012.24        85.21944
1012.62        84.93621
1013.00        82.63522
1013.38        78.47364
1013.76        73.59536
1014.14        70.60142
1014.52        70.50668
1014.90        72.72726
1015.28        75.79772
1015.66        77.25337
1016.04        76.42081
1016.41        74.15114
1016.79        71.16658
1017.17        69.08225
1017.55        68.61301
1017.93        69.06706
1018.31        70.18536
1018.69        72.00742
1019.06        74.73051
1019.44        78.66805
1019.82        83.84439
1020.20        88.24742
1020.58         89.8083
1020.95        88.48014
1021.33        85.68922
1021.71        83.02274
1022.09        80.58963
1022.46        77.64938
1022.84         74.2311
1023.22        70.69433
1023.60        68.11858
1023.97        67.14687
1024.35        67.31313
1024.73        67.72044
