SpectraSmart Spectrum 2.9.0.0
--------- Device Information -----------
Spectrum Name :  反射率_0
Saving Time :  2024/04/30 00:28:17
Spectro-Module Model Name : SE2030-DUVN
Spectro-Module Serial Number : OS361AC55029948
Wavelength Start : 200
Wavelength End : 1025
Wavelength Unit : Wavelength(nm)
Spectrum Unit : Reflectance(%)
-----------Spectrum Setting ------------
Integration Time : 20ms
Average : 10
Boxcar : 0
Background removal :  enabled
linearity correction :  enabled
SC :  disabled
Intensity correction :  disabled
DWT denoise :  enabled
savitzky-golay :  disabled
FFT :  disabled
Running average :  disabled
Kalman :  disabled
High pass :  disabled
---------------BEGIN--------------------
Wavelength(nm)             Reflectance(%)
200.29               0
200.75        69.47894
201.21        61.83654
201.67        55.40052
202.13        49.94097
202.58        45.55607
203.04        42.72177
203.50        42.66475
203.96        47.70518
204.42        57.61399
204.88        70.13631
205.34        79.87476
205.80        80.08562
206.26        72.47857
206.72        62.48671
207.18        53.18413
207.64        45.73413
208.10        39.55765
208.55        33.39429
209.01        28.52557
209.47         28.8801
209.93        34.35489
210.39        42.51945
210.85        49.49093
211.31        52.20252
211.77        50.64658
212.23        44.76347
212.69        35.94599
213.14         32.6192
213.60        38.28611
214.06        48.15467
214.52        56.55322
214.98        60.08445
215.44        59.54427
215.90        56.49426
216.36        52.71299
216.81         51.4541
217.27         54.5269
217.73        61.82151
218.19        72.60349
218.65        80.94342
219.11        82.08038
219.57         77.7698
220.02        72.23226
220.48        68.88865
220.94        67.13245
221.40        65.72905
221.86        62.97539
222.32        56.76294
222.77        49.06316
223.23        43.38836
223.69        39.91555
224.15        37.76105
224.61           36.35
225.06        35.39476
225.52        35.80989
225.98        38.69844
226.44        43.12057
226.90        47.49778
227.36        50.75603
227.81        52.53839
228.27        53.19633
228.73        52.90689
229.19        51.83815
229.65          50.497
230.10        49.30243
230.56        48.42289
231.02         47.6278
231.48        46.58917
231.93        45.18346
232.39        43.59372
232.85        42.14584
233.31        41.53595
233.77        42.00376
234.22        43.48731
234.68        45.39364
235.14        46.62484
235.60        46.87216
236.05        46.37394
236.51         46.0407
236.97        47.17737
237.43        50.24038
237.88        55.52137
238.34        62.29543
238.80        67.84922
239.26        69.96136
239.71        68.97262
240.17        66.65215
240.63        66.22325
241.08        69.06373
241.54         75.5127
242.00        86.99465
242.46        100.8629
242.91        110.5636
243.37         112.955
243.83         110.186
244.28        107.4266
244.74        105.9311
245.20        103.7536
245.66        101.4746
246.11        100.9714
246.57        103.0284
247.03        109.0607
247.48        115.5025
247.94        113.7013
248.40        104.9298
248.85        94.18009
249.31        87.39356
249.77        86.99593
250.22        92.96052
250.68        106.4662
251.14         127.263
251.59        138.7737
252.05        129.5541
252.51        112.6664
252.96        99.91469
253.42        95.67147
253.88        97.25829
254.33        102.3796
254.79        108.5029
255.25        109.9269
255.70        106.0941
256.16        101.1574
256.62         97.5216
257.07        96.56532
257.53        98.18159
257.99        100.9154
258.44        102.8824
258.90        102.5479
259.35        99.62618
259.81        96.07336
260.27        92.83856
260.72        90.65356
261.18         89.6741
261.63        89.01571
262.09        88.35445
262.55        86.82791
263.00        84.42533
263.46        81.89156
263.91        79.45385
264.37        77.83096
264.83         76.8604
265.28        76.19094
265.74        75.68722
266.19        74.85436
266.65        73.71156
267.11        72.36199
267.56        70.89622
268.02        69.45798
268.47        68.02577
268.93        66.56902
269.38        65.06718
269.84        63.63874
270.30        62.32829
270.75         61.1372
271.21        60.06841
271.66        59.01248
272.12        57.93782
272.57        56.80899
273.03         55.6452
273.48        54.38589
273.94        53.13119
274.39        51.86085
274.85        50.68555
275.31         49.6267
275.76        48.65619
276.22        47.79884
276.67        47.00629
277.13        46.35399
277.58        45.75954
278.04         45.2613
278.49        44.70114
278.95        43.99355
279.40        43.07771
279.86        42.08947
280.31        41.10207
280.77        40.38363
281.22        39.92197
281.68        39.67617
282.13        39.52729
282.59        39.39066
283.04        39.19396
283.50        38.99111
283.95        38.73486
284.41        38.39071
284.86        37.95871
285.32        37.51204
285.77        37.09829
286.22        36.88776
286.68        36.91065
287.13        37.05664
287.59        37.29674
288.04        37.50547
288.50         37.6594
288.95        37.74916
289.41        37.76531
289.86        37.62806
290.32        37.39363
290.77        37.11112
291.22        36.89494
291.68        36.91423
292.13        37.21077
292.59        37.77664
293.04        38.62019
293.50        39.79869
293.95        41.28127
294.40        43.05454
294.86        44.95472
295.31        46.73397
295.77        48.31849
296.22        49.73323
296.68        51.13744
297.13        52.76617
297.58        54.67578
298.04        56.76305
298.49        58.84889
298.95         60.6804
299.40        62.19834
299.85        63.51513
300.31        64.82272
300.76        66.31354
301.21        68.07598
301.67        70.06034
302.12        72.11994
302.58        74.19102
303.03        76.18537
303.48        78.10748
303.94        80.01907
304.39        82.13744
304.84        84.15182
305.30        86.28901
305.75        88.32171
306.20        90.14578
306.66        91.75692
307.11        93.12778
307.57        94.40343
308.02        95.64718
308.47        96.93927
308.93        98.26276
309.38        99.53996
309.83        100.7405
310.29        101.8554
310.74        102.8876
311.19        103.8269
311.65        104.6367
312.10        105.3039
312.55        105.8667
313.00        106.4421
313.46        107.2165
313.91        108.1979
314.36        109.3247
314.82          110.45
315.27        111.3681
315.72        111.9886
316.18        112.3705
316.63        112.5613
317.08        112.6557
317.53        112.7224
317.99        112.7873
318.44        112.8632
318.89        112.9869
319.35        113.1744
319.80        113.4192
320.25        113.8118
320.70        114.4851
321.16        115.3975
321.61        116.5407
322.06        117.6145
322.51        118.1517
322.97        118.0424
323.42        117.4286
323.87         116.653
324.32        116.2946
324.78        116.4863
325.23        117.1544
325.68        118.0026
326.13         118.518
326.59        118.5386
327.04        118.2668
327.49        117.9824
327.94        118.1911
328.39        118.9995
328.85        120.1686
329.30        121.4518
329.75        122.1993
330.20        122.2291
330.66        121.7424
331.11        121.0601
331.56         120.613
332.01        120.5816
332.46        120.8467
332.92        121.3351
333.37        122.0931
333.82        123.0024
334.27        124.0708
334.72         125.158
335.17        126.0148
335.63        126.5323
336.08        126.8107
336.53        126.8863
336.98        126.9305
337.43        127.0238
337.88        127.1382
338.34        127.3161
338.79        127.6396
339.24        128.1111
339.69        128.7363
340.14        129.4201
340.59         129.979
341.05        130.3687
341.50        130.6315
341.95        130.8374
342.40        131.1368
342.85        131.5538
343.30        131.9994
343.75        132.4355
344.20        132.8023
344.66        133.0959
345.11        133.3868
345.56        133.5819
346.01        133.5163
346.46        133.2168
346.91        132.7411
347.36        132.4383
347.81        132.8398
348.26        133.9926
348.72        135.6797
349.17        137.4385
349.62        138.4036
350.07        138.3457
350.52        137.5526
350.97        136.4434
351.42         135.664
351.87         135.419
352.32         135.518
352.77        135.8557
353.22        136.2691
353.67        136.6443
354.13        136.9966
354.58        137.2434
355.03        137.2254
355.48         136.894
355.93        136.2771
356.38        135.3758
356.83        134.2147
357.28        132.8656
357.73        131.3833
358.18         129.955
358.63        128.8584
359.08        128.1456
359.53        127.7321
359.98        127.4551
360.43        127.0386
360.88        126.3926
361.33        125.5907
361.78        124.6683
362.23        123.6901
362.68        122.6974
363.13        121.6686
363.58        120.6637
364.03         119.785
364.48        119.0489
364.93        118.4346
365.38        117.8774
365.83        117.2586
366.28        116.5382
366.73        115.7713
367.18        114.9934
367.63        114.1795
368.08        113.3219
368.53        112.7348
368.98        111.8386
369.43        111.0988
369.88        110.3591
370.33        109.6719
370.78        109.0171
371.23        108.3726
371.68        107.7362
372.13        107.0676
372.58        106.4684
373.03        106.1032
373.48        105.9612
373.93        105.9782
374.38        105.8676
374.83         105.175
375.28        103.8593
375.72        102.0922
376.17        100.3502
376.62        99.14586
377.07        98.58669
377.52        98.49753
377.97        98.65049
378.42        98.66891
378.87        98.42077
379.32        98.01264
379.77        97.51959
380.22        97.04631
380.67        96.61603
381.11         96.1683
381.56        95.66769
382.01        95.10085
382.46        94.48669
382.91        93.87393
383.36        93.29324
383.81        92.76923
384.26        92.30636
384.71        91.88596
385.15         91.5063
385.60        91.22858
386.05        91.01791
386.50        90.85112
386.95        90.64471
387.40        90.27827
387.85        89.75172
388.29        89.07364
388.74        88.45556
389.19        87.95157
389.64        87.58326
390.09        87.30577
390.54         87.1045
390.98        86.95897
391.43        86.88378
391.88        86.79944
392.33        86.64254
392.78        86.49191
393.23        86.29011
393.67        85.70395
394.12        84.89763
394.57        84.69109
395.02        83.97034
395.47         83.9459
395.91        84.15333
396.36        84.10785
396.81         83.7554
397.26        83.37838
397.71        83.04802
398.15        82.64791
398.60        82.28653
399.05        82.05743
399.50        81.90251
399.95        81.56522
400.39        80.87658
400.84         81.0324
401.29        81.75605
401.74        81.95296
402.18        81.48155
402.63        80.78422
403.08        80.14638
403.53        79.86071
403.97        79.98253
404.42         80.3476
404.87        80.72894
405.32        80.75837
405.76        80.33638
406.21        79.77966
406.66        79.20819
407.11        78.47651
407.55        77.86568
408.00        78.03387
408.45        78.82635
408.90        79.41612
409.34        79.53182
409.79        79.13646
410.24        78.49395
410.68        78.29466
411.13        78.61388
411.58        79.03397
412.03        79.35098
412.47        79.41693
412.92        79.13191
413.37        78.60018
413.81         77.9462
414.26        77.43197
414.71        77.09029
415.15        76.86962
415.60         76.7441
416.05        76.72206
416.49        76.79308
416.94        76.96303
417.39        77.14807
417.83        77.18667
418.28        77.05342
418.73        76.77956
419.17        76.48853
419.62         76.4041
420.07        76.54353
420.51        76.80665
420.96        77.08401
421.41        77.09446
421.85        76.76024
422.30        76.45146
422.74        76.16158
423.19         75.5427
423.64        74.81657
424.08        74.99868
424.53        75.93147
424.98        76.38108
425.42        76.19719
425.87        76.26537
426.31        76.52767
426.76        76.01035
427.21        74.83795
427.65        74.80489
428.10        75.64283
428.54        75.68256
428.99        74.92427
429.44        74.23424
429.88         73.8615
430.33        73.92412
430.77        74.29098
431.22        75.01215
431.66        75.83011
432.11        75.60516
432.56        74.52794
433.00        74.43282
433.45        75.53561
433.89        75.57551
434.34        75.71816
434.78        76.79497
435.23        75.04403
435.67        74.35519
436.12        73.80494
436.57        73.84624
437.01        74.33897
437.46        74.63916
437.90        74.62673
438.35        74.92218
438.79         75.4309
439.24        75.63107
439.68        75.53701
440.13          75.549
440.57        75.69935
441.02        75.75048
441.46        75.66444
441.91        75.74857
442.35        75.78865
442.80        75.59422
443.24        75.17522
443.69        74.93567
444.13         74.8829
444.58        74.74947
445.02        74.48768
445.47        74.35652
445.91        74.40224
446.36        74.43519
446.80        74.39164
447.24        75.01007
447.69        75.05206
448.13        75.12284
448.58        75.17146
449.02        75.03028
449.47        74.87978
449.91        74.82629
450.36        74.92541
450.80          75.111
451.25        75.32468
451.69        75.43773
452.13        75.42819
452.58        75.37036
453.02        75.28721
453.47        75.22503
453.91        75.18223
454.36         75.2448
454.80        75.09359
455.24        75.26112
455.69        75.51437
456.13        75.47235
456.58        75.17731
457.02        74.53511
457.46        74.48976
457.91        74.33476
458.35        74.25827
458.79        74.13055
459.24        73.98008
459.68        73.93009
460.13        74.00673
460.57        73.90085
461.01        74.14719
461.46        74.10236
461.90        73.92321
462.34         74.3812
462.79        74.57522
463.23        74.45817
463.68        73.86171
464.12        73.48542
464.56        73.39127
465.01        73.16425
465.45        72.85283
465.89        72.89125
466.34         73.1675
466.78        73.32263
467.22        73.49902
467.67         72.7293
468.11        73.09363
468.55        72.71037
468.99        72.28006
469.44        72.01077
469.88        71.95309
470.32        72.03298
470.77         72.1325
471.21        72.14533
471.65        72.01931
472.10        71.79117
472.54         71.5871
472.98         71.5281
473.42        71.63721
473.87        71.92139
474.31        72.22654
474.75        72.16531
475.20        71.77867
475.64         71.6216
476.08        71.74015
476.52        71.50041
476.97        70.84273
477.41        71.25108
477.85        70.72609
478.29        70.60886
478.74        71.59935
479.18        71.74303
479.62        71.01929
480.06        70.87154
480.50        71.23172
480.95        70.99171
481.39        71.24924
481.83        70.95379
482.27        71.39057
482.72        71.30515
483.16        71.55026
483.60        71.61919
484.04        71.71545
484.48        71.72331
484.93         71.4825
485.37        71.51419
485.81        70.80819
486.25        69.68698
486.69         70.9005
487.14        70.78428
487.58        70.38538
488.02        70.77062
488.46        71.31583
488.90         71.3125
489.34        70.74844
489.79        71.24028
490.23        70.27303
490.67        70.30479
491.11        70.48066
491.55        70.32427
491.99        69.88075
492.43        69.74261
492.88        69.94545
493.32        70.16128
493.76        70.33164
494.20        70.51427
494.64        70.67397
495.08        70.83522
495.52        70.96143
495.96         70.8475
496.41        70.56464
496.85        70.53826
497.29        70.69282
497.73        70.66297
498.17        69.99964
498.61        70.06651
499.05        69.89187
499.49        69.95444
499.93        69.93351
500.37        69.92034
500.82        69.93321
501.26        69.77753
501.70        69.85017
502.14        69.97109
502.58        69.86738
503.02        69.93468
503.46        70.05859
503.90        70.21651
504.34         70.3734
504.78         70.4805
505.22        70.49087
505.66        70.49294
506.10        70.54296
506.54         70.4139
506.98        70.04816
507.42        70.71822
507.86        70.20641
508.30        70.11491
508.74          69.898
509.18        69.56805
509.62        69.25227
510.06        69.13739
510.50        69.27614
510.94         69.5904
511.38        69.95323
511.82        70.15201
512.26        70.12665
512.70        69.93959
513.14        69.69933
513.58        69.57682
514.02        69.61429
514.46        69.75079
514.90        69.91518
515.34        69.99529
515.78        69.95824
516.22        69.85004
516.66        69.70791
517.10        69.58149
517.54        69.48823
517.98        69.40963
518.42        69.34666
518.86        69.28723
519.30        69.22482
519.74        69.21915
520.18        69.25301
520.62        69.16393
521.06        69.01333
521.50         69.1081
521.93        69.39548
522.37        69.50806
522.81        69.42592
523.25        69.32393
523.69        69.28768
524.13        69.37602
524.57        69.60056
525.01        69.93333
525.45        70.24043
525.89        70.30502
526.32        70.07751
526.76        69.65598
527.20        69.18783
527.64        68.90707
528.08        68.87348
528.52        69.00896
528.96        69.21758
529.40        69.36687
529.83        69.40788
530.27         69.3094
530.71        69.25663
531.15         69.1909
531.59        69.17451
532.03        69.17588
532.46        69.16669
532.90         69.1352
533.34        69.07178
533.78        68.99817
534.22        68.93298
534.66        68.89948
535.09        68.89614
535.53        68.92359
535.97        68.96648
536.41        69.01704
536.85        69.06461
537.28        69.10423
537.72        69.11655
538.16        69.06603
538.60        68.95074
539.04        68.78861
539.47         68.6002
539.91        68.47282
540.35        68.40816
540.79        68.40338
541.22         68.4352
541.66         68.4745
542.10        68.50745
542.54         68.5471
542.97        68.60124
543.41        68.70306
543.85         68.8387
544.29        68.99758
544.72        69.11874
545.16         69.1373
545.60        69.03807
546.04        68.85503
546.47        68.65131
546.91        68.55466
547.35        68.58824
547.79        68.67694
548.22        68.75084
548.66        68.91453
549.10        69.15535
549.53        69.20846
549.97        68.95525
550.41        69.58024
550.84        68.99133
551.28        68.80756
551.72        68.45923
552.15        68.56482
552.59        68.28356
553.03        68.48651
553.46        68.53008
553.90        68.63776
554.34        68.66457
554.77         68.6982
555.21        68.73644
555.65        68.63855
556.08        68.47946
556.52        68.46721
556.96        68.58743
557.39        68.71808
557.83         68.8285
558.27        68.83422
558.70        68.77764
559.14        68.84428
559.57        68.98132
560.01        69.06997
560.45        69.07386
560.88        68.78336
561.32        68.61572
561.75        68.51209
562.19        68.57321
562.63        68.53149
563.06        68.39103
563.50        68.38835
563.93        68.47489
564.37        68.51192
564.80        68.46801
565.24        68.41783
565.68        68.37548
566.11        68.39504
566.55        68.48074
566.98        68.50352
567.42        68.52923
567.85        68.54369
568.29         68.5506
568.72        68.71614
569.16        69.12936
569.60        68.50718
570.03        68.95765
570.47        68.88008
570.90         68.9099
571.34        68.63187
571.77         68.8953
572.21        69.02003
572.64        69.17156
573.08        69.13232
573.51        68.90497
573.95        68.82101
574.38        69.10625
574.82        68.54449
575.25        68.99099
575.69        68.97436
576.12        68.53509
576.56        68.11559
576.99        68.41774
577.42        68.54035
577.86        68.35827
578.29        68.25844
578.73        69.18778
579.16        68.48488
579.60        68.60401
580.03        68.49202
580.47        69.03898
580.90        68.86004
581.33        68.27903
581.77        68.14458
582.20         68.3737
582.64        68.88868
583.07        68.30762
583.51        68.15416
583.94        68.26136
584.37        68.05452
584.81         67.7625
585.24        68.16292
585.68        68.56416
586.11        69.34919
586.54        68.00735
586.98        67.90054
587.41        69.07008
587.85         68.9672
588.28        68.81878
588.71        69.23886
589.15        68.38466
589.58        68.74352
590.01         68.1715
590.45        68.24328
590.88        68.51586
591.31        68.75095
591.75        68.72102
592.18        68.80364
592.61        69.21595
593.05        67.80081
593.48        68.42194
593.91        69.09767
594.35        67.98438
594.78        68.01244
595.21        68.19918
595.65        68.72424
596.08        68.14702
596.51        68.12696
596.94        68.59921
597.38        68.77811
597.81        68.65317
598.24        68.65516
598.68        68.56151
599.11        68.00346
599.54        68.80535
599.97        68.96304
600.41        67.93636
600.84        68.21545
601.27         68.0618
601.70        68.32967
602.14          68.418
602.57        68.19436
603.00         67.7481
603.43        67.69891
603.87        67.84055
604.30        68.27522
604.73        68.01039
605.16        67.99188
605.60        67.94423
606.03        68.05619
606.46        68.20378
606.89         68.2882
607.32        68.10133
607.76        68.07237
608.19        68.19142
608.62         68.2485
609.05        68.25761
609.48        68.30673
609.92        68.39002
610.35        68.09797
610.78        68.51329
611.21        67.86752
611.64        68.06313
612.07        67.98389
612.50        68.07514
612.94        68.19691
613.37        68.38824
613.80        68.23954
614.23        68.51797
614.66        68.56074
615.09        68.60587
615.52        68.58926
615.96        68.43456
616.39        68.61698
616.82          67.928
617.25        67.97029
617.68        67.64975
618.11        67.92684
618.54        68.39339
618.97        68.38743
619.40        67.98434
619.84         67.8474
620.27        68.05693
620.70        68.29301
621.13        68.44744
621.56        68.00747
621.99        68.17106
622.42        67.51094
622.85        68.08534
623.28        68.37322
623.71        68.62341
624.14        67.43548
624.57        68.24486
625.00        68.08826
625.43        67.99487
625.86        67.89304
626.29        67.81392
626.72        67.94679
627.15        67.87734
627.58        68.00443
628.01        68.15286
628.44        68.10991
628.87          67.927
629.30        67.93563
629.73        68.12543
630.16        68.30663
630.59        68.17841
631.02        68.31915
631.45        68.32586
631.88        68.33872
632.31        68.25831
632.74        68.13322
633.17        67.98503
633.60        67.84995
634.03        67.74816
634.46        67.66134
634.89         67.6052
635.32        67.61353
635.75        67.68311
636.18        67.79314
636.61        67.91106
637.04        67.99466
637.47        68.04027
637.89        68.02833
638.32        67.93663
638.75         67.8952
639.18        67.94046
639.61        67.54825
640.04        67.66053
640.47        67.59706
640.90        67.63893
641.33        67.76006
641.76        67.91425
642.18        68.00683
642.61        67.98023
643.04        67.87208
643.47        67.74975
643.90        67.70167
644.33        67.74203
644.76        67.92752
645.18        68.15728
645.61          68.081
646.04        67.61823
646.47        67.59849
646.90          67.924
647.33        67.97894
647.75        67.72944
648.18        67.54689
648.61        67.49587
649.04        67.50249
649.47        67.58562
649.89        67.81135
650.32         68.0634
650.75        68.17638
651.18        68.15085
651.61        68.01335
652.03        67.89803
652.46        68.09908
652.89        68.37759
653.32        68.33749
653.74        68.13467
654.17        67.18295
654.60        66.86073
655.03        68.63358
655.46        66.36694
655.88        67.76474
656.31        69.64179
656.74        69.36257
657.16        69.11665
657.59        67.75265
658.02        67.24458
658.45        68.38321
658.87        68.56012
659.30        67.95824
659.73        68.95037
660.15        68.89254
660.58        68.48224
661.01        68.23974
661.44        68.18134
661.86        67.83218
662.29        67.30617
662.72        67.43336
663.14        68.06805
663.57        68.00984
664.00        67.36508
664.42        67.19408
664.85        67.54587
665.27         67.7952
665.70        67.86892
666.13        67.97529
666.55        68.10137
666.98         68.1727
667.41        68.18526
667.83        68.13342
668.26        68.01593
668.69        67.85413
669.11        67.68662
669.54        67.57497
669.96        67.53623
670.39        67.55621
670.82        67.60303
671.24        67.63147
671.67        67.61485
672.09        67.56596
672.52        67.52914
672.94        67.63207
673.37         67.3598
673.80        67.88527
674.22        67.68201
674.65         67.8621
675.07        68.01917
675.50        68.17362
675.92        68.28705
676.35        68.29073
676.77        68.19451
677.20        67.99911
677.62        67.78665
678.05        67.68697
678.47        67.72575
678.90        67.87923
679.32        68.05235
679.75        68.09961
680.17        67.98181
680.60        67.75399
681.02        67.51778
681.45        67.41789
681.87        67.48803
682.30        67.72556
682.72        68.04195
683.15         68.0809
683.57        67.89817
684.00        67.93521
684.42        68.16257
684.85        68.22102
685.27        68.10942
685.70        67.94716
686.12        67.82816
686.54        68.08517
686.97        68.60242
687.39        68.84451
687.82        68.77202
688.24        68.73263
688.66        68.73333
689.09        68.51647
689.51        68.15869
689.94        67.94132
690.36         67.9057
690.78        67.93568
691.21        68.00175
691.63        68.16358
692.06        68.34431
692.48        68.33543
692.90        68.17066
693.33        68.10196
693.75        68.14921
694.17         68.1543
694.60         68.1198
695.02         68.1021
695.44        68.09142
695.87        68.18176
696.29         68.3332
696.71        68.18243
697.14        67.85108
697.56        67.94356
697.98        68.38939
698.41         68.5723
698.83        68.45052
699.25        68.37704
699.68        68.35945
700.10        68.30743
700.52        68.21857
700.94        68.13332
701.37        68.05412
701.79        68.00174
702.21        67.97345
702.64        67.97367
703.06         68.0071
703.48        68.09191
703.90        68.22607
704.33        68.40836
704.75         68.5742
705.17        68.68941
705.59        68.71452
706.01        68.66454
706.44        68.57574
706.86         68.5001
707.28        68.45367
707.70        68.46821
708.12        68.53035
708.55        68.51491
708.97        68.45673
709.39        68.55885
709.81        68.80834
710.23        69.01423
710.66         69.1443
711.08        69.31174
711.50        69.48427
711.92        69.59698
712.34        69.64433
712.76        69.64491
713.19        69.58534
713.61        69.49474
714.03        69.37187
714.45        69.22636
714.87        69.10592
715.29        69.07741
715.71        69.14856
716.13        69.29981
716.56        69.45827
716.98        69.58037
717.40        69.61036
717.82         69.5726
718.24         69.4994
718.66        69.42833
719.08        69.40732
719.50        69.38901
719.92        69.37702
720.34        69.36275
720.76        69.34172
721.19        69.31705
721.61        69.28628
722.03        69.21515
722.45        69.10276
722.87        68.95785
723.29        68.82194
723.71         68.7625
724.13        68.79378
724.55        68.89815
724.97        69.02814
725.39        69.10207
725.81        69.10247
726.23        69.05825
726.65        69.00913
727.07        69.02226
727.49         69.1096
727.91        69.23161
728.33        69.37298
728.75        69.50984
729.17         69.6247
729.59         69.7362
730.01        69.78967
730.43        69.69529
730.85        69.45937
731.27         69.1212
731.69        68.82043
732.10        68.77766
732.52        69.03239
732.94        69.51901
733.36        70.08858
733.78        70.47797
734.20        70.60138
734.62        70.50292
735.04        70.29673
735.46        70.24362
735.88        70.35909
736.30         70.3903
736.72        70.32024
737.13        70.33534
737.55        70.34507
737.97         70.2128
738.39        69.96231
738.81        69.55923
739.23        69.15797
739.65        69.30999
740.06        69.85081
740.48        70.03533
740.90        69.79514
741.32        69.55122
741.74        69.41849
742.16        69.40909
742.57        69.56865
742.99         69.8195
743.41        70.09328
743.83        70.37029
744.25        70.56918
744.67        70.49564
745.08        70.22662
745.50        70.08517
745.92        70.12364
746.34        70.16503
746.75        70.20053
747.17         70.2657
747.59        70.34358
748.01        70.49086
748.42        70.65893
748.84         70.5913
749.26         70.3531
749.68         70.2952
750.09        70.40717
750.51        70.43177
750.93        70.35789
751.35        70.35797
751.76        70.43092
752.18        70.48058
752.60        70.49644
753.01        70.51021
753.43        70.50994
753.85        70.50211
754.27        70.50766
754.68        70.56559
755.10        70.63932
755.52        70.67188
755.93        70.62742
756.35        70.48022
756.77        70.40102
757.18        70.52784
757.60        70.85415
758.02        71.73291
758.43        72.71873
758.85        72.15942
759.26        70.43855
759.68        69.91373
760.10        70.63518
760.51        70.90423
760.93        70.64191
761.34        70.65292
761.76        70.89864
762.18        71.18597
762.59        71.39079
763.01        70.96231
763.42        70.10725
763.84         69.7221
764.26        69.91622
764.67        70.11704
765.09        70.27281
765.50        70.64996
765.92         71.1449
766.33        71.27034
766.75        70.93169
767.16        71.07948
767.58        70.99078
768.00        70.78315
768.41        70.37427
768.83        70.61858
769.24        71.28442
769.66        71.22727
770.07        70.54211
770.49        70.20236
770.90        70.33266
771.32         70.6879
771.73         71.1418
772.15        71.32303
772.56        71.18225
772.97        71.19993
773.39        70.96268
773.80        70.99483
774.22        71.14577
774.63        71.44379
775.05        71.73576
775.46        71.87199
775.88        71.78162
776.29        71.55022
776.70        71.25838
777.12        71.05715
777.53        71.00242
777.95        71.03748
778.36        71.13963
778.77        71.25727
779.19        71.36433
779.60        71.51004
780.02        71.64549
780.43        71.76189
780.84        71.84024
781.26        71.79459
781.67        71.71907
782.09        71.92047
782.50        72.34266
782.91        72.57111
783.33        72.52522
783.74        72.42752
784.15        72.27153
784.57        71.92152
784.98        71.50071
785.39        71.30146
785.81        71.38319
786.22        71.65257
786.63        72.04609
787.04        72.45889
787.46        72.83611
787.87        73.17582
788.28        73.43957
788.70        73.56067
789.11        73.52592
789.52        73.37087
789.93        73.14131
790.35         72.9155
790.76        72.74613
791.17         72.6258
791.58        72.59596
792.00        72.67651
792.41         72.8727
792.82        73.20766
793.23        73.59406
793.65        73.73754
794.06        73.67389
794.47        73.76337
794.88        73.93515
795.29        73.81757
795.71        73.38004
796.12        72.85672
796.53        72.43169
796.94         72.3621
797.35        72.72482
797.76        73.44527
798.18        74.24521
798.59        74.71275
799.00        74.71078
799.41        74.35583
799.82        73.83321
800.23        73.46793
800.64        73.37484
801.06        73.44055
801.47        73.63091
801.88        73.80994
802.29        73.92196
802.70        73.99853
803.11        74.07088
803.52        74.17655
803.93        74.32873
804.34        74.51011
804.75        74.62727
805.17        74.59686
805.58        74.44795
805.99        74.02001
806.40        73.51234
806.81        73.68747
807.22        74.38973
807.63        74.50206
808.04        74.04221
808.45        73.98282
808.86        74.36168
809.27        74.58822
809.68        74.58323
810.09        74.53209
810.50        74.43207
810.91        74.21939
811.32        74.00514
811.73        73.97456
812.14         74.1594
812.55         74.5262
812.96        74.92261
813.37        75.05274
813.78        74.85273
814.19        74.44244
814.60        73.99326
815.01        73.74648
815.42        73.75967
815.83        73.94585
816.24        74.25658
816.65        74.58958
817.05        74.86955
817.46        75.08099
817.87        75.17889
818.28        75.03934
818.69        74.66467
819.10        74.09428
819.51        73.47978
819.92        73.11716
820.33        73.10614
820.74        73.36334
821.14        73.78508
821.55        74.20683
821.96        74.55128
822.37        74.86458
822.78        75.08884
823.19        75.12411
823.60        74.95598
824.00        74.59542
824.41         74.1659
824.82        73.90827
825.23        73.87909
825.64        74.04055
826.04        74.29089
826.45        74.35366
826.86        74.19267
827.27        73.89572
827.68        73.60206
828.08        73.55209
828.49        73.75589
828.90        74.16144
829.31         74.6749
829.72        75.13663
830.12        75.50993
830.53        75.75816
830.94        75.93292
831.35         76.0788
831.75        76.22687
832.16        76.27178
832.57        76.23046
832.97        76.10201
833.38        75.90187
833.79        75.70178
834.20         75.4775
834.60        75.15767
835.01         74.7851
835.42        74.35999
835.82        74.08421
836.23        74.21931
836.64         74.8236
837.04        75.83855
837.45        76.85526
837.86        77.34265
838.26        77.15042
838.67        76.43867
839.08         75.5355
839.48        74.94048
839.89        74.83306
840.29        75.05315
840.70        75.43903
841.11         75.7454
841.51         75.9073
841.92        75.97797
842.33        76.01701
842.73        76.09133
843.14        76.17733
843.54        76.27782
843.95        76.37501
844.35        76.51964
844.76        76.68485
845.17         76.8319
845.57        76.97494
845.98        77.10031
846.38        77.21178
846.79        77.31173
847.19         77.2782
847.60        76.86166
848.00        76.08233
848.41        75.05867
848.81         74.1237
849.22        73.76323
849.62        74.10861
850.03        74.98382
850.43        76.13885
850.84        76.89891
851.24        77.10207
851.65        76.80891
852.05        76.28275
852.46        75.91877
852.86        75.82296
853.27        75.93295
853.67        75.99682
854.07        75.87781
854.48        75.49632
854.88        74.94138
855.29        74.33006
855.69        74.11433
856.10        74.31911
856.50        74.91305
856.90        75.52818
857.31        75.65494
857.71        75.23585
858.12        74.38684
858.52        73.45763
858.92        72.98084
859.33        73.09215
859.73        73.67558
860.13        74.45039
860.54         74.9688
860.94        75.13107
861.34        74.97694
861.75        74.61552
862.15        74.29517
862.55        74.06701
862.96        73.89173
863.36        73.61443
863.76        73.02191
864.17        72.14354
864.57        71.12601
864.97        70.25128
865.38        69.88576
865.78        70.12865
866.18        70.82946
866.58         71.8131
866.99         72.6778
867.39        73.27299
867.79        73.66402
868.19         73.7601
868.60        73.44182
869.00        72.76231
869.40        71.74219
869.80         70.8171
870.21        70.73737
870.61         71.6828
871.01        73.37922
871.41        75.18774
871.81        76.08103
872.22        75.79685
872.62        74.63219
873.02        73.08111
873.42        71.98786
873.82        71.64174
874.22        71.83381
874.63        72.26624
875.03        72.47801
875.43        72.34792
875.83        72.03304
876.23        71.81323
876.63        72.11865
877.03        73.00406
877.44        74.22874
877.84        75.42374
878.24         75.9145
878.64        75.56638
879.04        74.65373
879.44        73.54816
879.84        72.78894
880.24        72.52288
880.64        72.56567
881.04        72.86711
881.44        73.33564
881.84        73.89388
882.24        74.60498
882.65        75.20049
883.05        75.34282
883.45        74.92258
883.85        74.06802
884.25        73.19031
884.65        72.93604
885.05        73.41507
885.45        74.38589
885.85        75.52567
886.25        76.26944
886.65        76.40449
887.05        76.12609
887.45           75.45
887.85        74.42632
888.25        73.23203
888.65        71.94846
889.04        70.88877
889.44        70.53806
889.84        70.90038
890.24        71.87901
890.64        73.19573
891.04        74.20865
891.44        74.62902
891.84        74.59676
892.24        74.31964
892.64        74.12125
893.04        74.10035
893.44        74.15645
893.83        74.27564
894.23         74.3755
894.63        74.45728
895.03        74.55289
895.43        74.68343
895.83        74.86272
896.23        75.07016
896.63        75.26423
897.02        75.35841
897.42        75.27952
897.82        75.00401
898.22        74.61855
898.62        74.16399
899.01        73.71693
899.41        73.32366
899.81        72.97014
900.21        72.81149
900.61        73.08245
901.00        73.77221
901.40         74.7876
901.80         75.7551
902.20        76.06029
902.59         75.5715
902.99        74.48405
903.39        73.20818
903.79        72.37159
904.18        72.14227
904.58        72.37782
904.98        72.83108
905.38        73.11676
905.77        73.09926
906.17        72.89547
906.57        72.66936
906.96        72.70049
907.36        73.01057
907.76        73.51795
908.15        73.98376
908.55        73.90785
908.95        73.27932
909.34        72.27888
909.74        71.37972
910.14        71.16074
910.53        71.77924
910.93        72.99209
911.33         74.5283
911.72        75.96742
912.12          77.036
912.52        77.82851
912.91        78.34198
913.31        78.56865
913.70        78.53576
914.10        78.19616
914.49        77.58612
914.89        76.76715
915.29        75.83847
915.68        74.88699
916.08        74.10555
916.47        73.62803
916.87        73.53809
917.26        73.74426
917.66        74.21571
918.05        74.91335
918.45        75.70273
918.84        76.59978
919.24        77.29758
919.64        77.45029
920.03        77.00417
920.42        76.05673
920.82        74.96705
921.21        74.19211
921.61        73.88137
922.00        73.94355
922.40        74.24254
922.79        74.61209
923.19        74.92562
923.58         75.2449
923.98        75.53034
924.37        75.72826
924.77        75.81877
925.16        75.79453
925.55         75.6647
925.95         75.4748
926.34        75.27663
926.74        75.06649
927.13        74.88632
927.52        74.75577
927.92        74.69308
928.31        74.68291
928.70        74.72639
929.10        74.80554
929.49        74.89655
929.89        74.94602
930.28        74.94206
930.67        74.79265
931.07        74.49249
931.46        74.12321
931.85        73.69447
932.24        73.21439
932.64         72.7388
933.03        72.30585
933.42        72.08018
933.82        72.31518
934.21        73.05273
934.60        74.11862
934.99        75.31474
935.39        76.29723
935.78        76.97355
936.17        77.38642
936.56        77.33345
936.96        76.57227
937.35        75.19862
937.74        73.40049
938.13        71.77012
938.53        71.04379
938.92        71.30038
939.31        72.41868
939.70        73.92485
940.09         74.8597
940.49        74.87885
940.88        74.22711
941.27        73.39359
941.66        73.14592
942.05        73.65507
942.44        74.71461
942.84        75.80598
943.23         76.0984
943.62        75.33373
944.01        73.82899
944.40        72.31037
944.79        71.81589
945.18        72.54813
945.57        74.20136
945.97        76.02149
946.36        76.93541
946.75        76.50736
947.14        75.09856
947.53        73.42326
947.92        72.55184
948.31        72.77145
948.70        73.80524
949.09        75.08738
949.48        75.61791
949.87        75.10405
950.26        73.86687
950.65        72.58865
951.04        72.19958
951.43        72.88406
951.82        74.40667
952.21        76.04721
952.60        76.50851
952.99        75.47507
953.38        73.40058
953.77        71.31751
954.16        70.59895
954.55        71.50166
954.94        73.73531
955.33        76.38303
955.72        77.44563
956.11        76.25652
956.50        73.53572
956.89        70.64745
957.28        69.35468
957.66        70.04993
958.05        72.14843
958.44        74.83467
958.83        76.43664
959.22        76.32107
959.61        75.05785
960.00        73.42878
960.39        72.41192
960.78        72.21546
961.16        72.55433
961.55        73.01523
961.94         72.9577
962.33        72.21134
962.72        71.13953
963.11        70.14548
963.49        69.71777
963.88        69.94204
964.27        70.60718
964.66        71.52872
965.04        72.44464
965.43        73.10368
965.82        73.58984
966.21        73.79213
966.60        73.53267
966.98         72.8677
967.37         71.9352
967.76        70.98411
968.15        70.33376
968.53        70.03725
968.92        69.96611
969.31        70.19733
969.69        70.85292
970.08        71.84336
970.47        73.25284
970.86        74.52556
971.24        74.73672
971.63        73.70162
972.02        71.70168
972.40        69.74778
972.79        69.46835
973.17        71.11476
973.56        74.10885
973.95        77.37601
974.33        78.87348
974.72        77.93373
975.11        75.27168
975.49        72.06159
975.88        70.42715
976.26        70.89415
976.65        72.78149
977.04        75.32311
977.42        77.09693
977.81        77.40749
978.19        76.82529
978.58        75.69919
978.96        74.45494
979.35        73.39338
979.74        72.36894
980.12        71.67602
980.51        71.82211
980.89        72.93475
981.28        74.73338
981.66        76.97276
982.05        78.87643
982.43         80.2594
982.82        81.21492
983.20        81.49181
983.59        80.63598
983.97          78.771
984.35        76.08579
984.74        73.68327
985.12        73.08659
985.51        74.43487
985.89        77.37949
986.28        80.59668
986.66        82.17956
987.04        81.41497
987.43         78.9244
987.81        75.61477
988.20        73.40788
988.58        72.87045
988.96         73.4888
989.35        74.47867
989.73        74.78648
990.12        74.03456
990.50        72.76534
990.88        71.28226
991.27        70.02058
991.65        69.13564
992.03        68.47835
992.42        68.27068
992.80        69.21896
993.18        71.25866
993.56        74.23725
993.95        77.27367
994.33        78.81274
994.71        78.29044
995.10          76.285
995.48        73.70758
995.86        71.99917
996.24        71.57139
996.63        71.90081
997.01        72.97766
997.39         74.5202
997.77        76.22717
998.15        78.21532
998.54        79.83427
998.92        80.06591
999.30        78.76028
999.68        76.11421
1000.06        73.13475
1000.45        71.79414
1000.83        72.77827
1001.21        75.53497
1001.59        79.04971
1001.97        81.59075
1002.35        82.55367
1002.73        82.38984
1003.12         81.4637
1003.50        80.27167
1003.88        79.13738
1004.26        77.97546
1004.64        76.87703
1005.02        76.08042
1005.40        75.68347
1005.78        75.64216
1006.16        76.08384
1006.54        77.16951
1006.92        78.83176
1007.30        81.00359
1007.69        83.01083
1008.07        83.59021
1008.45        82.23529
1008.83         79.3442
1009.21         75.8067
1009.59        73.18651
1009.97        72.04159
1010.35        71.93961
1010.73        72.84534
1011.11        74.58354
1011.49        76.83546
1011.86        79.69568
1012.24         82.0996
1012.62        82.60615
1013.00         80.9265
1013.38         77.1924
1013.76        72.68016
1014.14        70.26014
1014.52          71.005
1014.90         74.2616
1015.28        78.19229
1015.66        79.81992
1016.04        78.36301
1016.41        74.71191
1016.79        70.20534
1017.17        67.65601
1017.55        67.91153
1017.93        69.73804
1018.31         71.9317
1018.69        73.54351
1019.06        74.63612
1019.44        75.51103
1019.82        76.60748
1020.20        78.39888
1020.58        80.59226
1020.95        82.27099
1021.33        83.03461
1021.71        82.77178
1022.09        81.47211
1022.46        78.97319
1022.84        75.26986
1023.22        70.76468
1023.60        66.89264
1023.97        64.33221
1024.35        63.25867
1024.73        63.42526
