SpectraSmart Spectrum 2.9.0.0
--------- Device Information -----------
Spectrum Name :  反射率_0
Saving Time :  2024/04/30 00:25:45
Spectro-Module Model Name : SE2030-DUVN
Spectro-Module Serial Number : OS361AC55029948
Wavelength Start : 200
Wavelength End : 1025
Wavelength Unit : Wavelength(nm)
Spectrum Unit : Reflectance(%)
-----------Spectrum Setting ------------
Integration Time : 20ms
Average : 10
Boxcar : 0
Background removal :  enabled
linearity correction :  enabled
SC :  disabled
Intensity correction :  disabled
DWT denoise :  enabled
savitzky-golay :  disabled
FFT :  disabled
Running average :  disabled
Kalman :  disabled
High pass :  disabled
---------------BEGIN--------------------
Wavelength(nm)             Reflectance(%)
200.29               0
200.75        76.33163
201.21        63.89148
201.67        51.52386
202.13        42.87688
202.58        40.00144
203.04        42.41107
203.50        51.22999
203.96        67.83467
204.42        90.13992
204.88        114.8557
205.34        132.1297
205.80        130.3477
206.26        113.8016
206.72        92.56278
207.18        73.66566
207.64        60.25982
208.10         50.9387
208.55        43.23308
209.01        37.75145
209.47        37.51976
209.93        42.22879
210.39        49.85677
210.85        56.43502
211.31        58.68867
211.77        56.38155
212.23        48.99585
212.69        37.71366
213.14        31.79449
213.60        35.96275
214.06        45.63408
214.52        53.99637
214.98        56.37171
215.44        53.54664
215.90        47.44251
216.36        40.86499
216.81        39.16927
217.27        45.30441
217.73        59.42645
218.19        80.42677
218.65        97.42428
219.11        101.2648
219.57        94.75488
220.02        85.73587
220.48        80.73011
220.94        79.17651
221.40        79.09586
221.86        77.96438
222.32        71.33485
222.77        60.95589
223.23        52.47945
223.69         46.9638
224.15        43.63797
224.61         41.5629
225.06        39.94678
225.52        39.79361
225.98        42.57706
226.44        47.26502
226.90        52.13516
227.36         55.3685
227.81        55.83165
228.27        53.93934
228.73        50.04367
229.19        45.39572
229.65        42.97683
230.10        43.55615
230.56        45.76955
231.02        47.92263
231.48        48.52303
231.93        47.47696
232.39        45.41181
232.85        42.99787
233.31        41.52535
233.77        41.46342
234.22         42.5487
234.68        44.00492
235.14        44.46585
235.60        43.62867
236.05        42.00689
236.51        40.71598
236.97        41.20045
237.43        43.89707
237.88        48.94403
238.34        55.63567
238.80        61.28036
239.26        63.58216
239.71        62.85987
240.17        60.53267
240.63        59.22714
241.08         59.9966
241.54        62.77768
242.00        68.63238
242.46        77.34361
242.91        86.25032
243.37        92.60262
243.83         96.5363
244.28        101.0588
244.74        107.4737
245.20        115.0394
245.66        122.2032
246.11        125.2242
246.57        122.1092
247.03         114.969
247.48        105.6232
247.94        98.52712
248.40        96.25434
248.85        96.15501
249.31        98.08741
249.77        101.5391
250.22        106.9485
250.68        115.9591
251.14         127.105
251.59        127.7993
252.05        113.9143
252.51        97.11939
252.96        85.28274
253.42        80.02673
253.88        78.59842
254.33        79.33744
254.79        81.07108
255.25        81.03452
255.70        78.89155
256.16        76.62605
256.62        74.90319
257.07        74.03112
257.53        74.11539
257.99        74.41063
258.44        74.25938
258.90        73.62358
259.35        72.17618
259.81        70.71081
260.27        69.19403
260.72        67.56197
261.18        66.04762
261.63        64.34342
262.09        62.72611
262.55        61.21053
263.00         59.7729
263.46        58.60957
263.91        57.42986
264.37        56.21433
264.83        54.85018
265.28        53.31787
265.74        51.90917
266.19        50.83404
266.65        50.20216
267.11        49.86403
267.56        49.55677
268.02        48.91169
268.47        47.82206
268.93        46.41272
269.38        44.88003
269.84         43.6887
270.30        42.95913
270.75        42.55402
271.21        42.25818
271.66        41.71568
272.12        40.84692
272.57        39.73428
273.03        38.56319
273.48         37.5377
273.94        36.78285
274.39        36.18123
274.85        35.66245
275.31        35.05056
275.76        34.29145
276.22        33.47421
276.67        32.66763
277.13        32.06051
277.58        31.62925
278.04         31.3618
278.49        31.07384
278.95        30.60259
279.40        29.89419
279.86        29.09224
280.31        28.33569
280.77         27.9479
281.22        27.92347
281.68        28.16249
282.13        28.47011
282.59        28.63244
283.04        28.57217
283.50        28.36435
283.95        28.05278
284.41        27.72159
284.86        27.40059
285.32        27.11155
285.77        26.82895
286.22        26.59329
286.68        26.42397
287.13        26.28233
287.59        26.22446
288.04          26.267
288.50        26.41208
288.95         26.6092
289.41        26.78464
289.86        26.78788
290.32        26.63539
290.77        26.39168
291.22        26.16824
291.68        26.13354
292.13         26.3328
292.59        26.74368
293.04        27.37569
293.50        28.27358
293.95        29.41842
294.40        30.80658
294.86        32.30419
295.31        33.70759
295.77        34.96226
296.22        36.09905
296.68        37.26129
297.13        38.65883
297.58        40.33991
298.04        42.20012
298.49        44.09235
298.95        45.80149
299.40        47.26977
299.85        48.58339
300.31        49.86562
300.76        51.22179
301.21        52.73235
301.67         54.3913
302.12        56.13348
302.58        58.00896
303.03        59.97283
303.48        61.94724
303.94        63.95935
304.39        66.36197
304.84        68.53387
305.30        70.92558
305.75        73.19558
306.20        75.17982
306.66        76.85834
307.11        78.23447
307.57        79.49791
308.02        80.80825
308.47         82.2579
308.93        83.80312
309.38        85.33319
309.83         86.7495
310.29        88.02047
310.74        89.17212
311.19        90.21273
311.65        91.13667
312.10        91.94159
312.55        92.64494
313.00        93.34466
313.46        94.20217
313.91        95.22105
314.36        96.35259
314.82        97.46586
315.27        98.37281
315.72        98.99914
316.18        99.41131
316.63        99.65515
317.08        99.82236
317.53        99.97559
317.99        100.1227
318.44        100.3004
318.89        100.5825
319.35        100.9765
319.80        101.4593
320.25        102.0227
320.70        102.6444
321.16         103.263
321.61        103.9153
322.06        104.4563
322.51        104.6808
322.97        104.5553
323.42         104.157
323.87        103.6874
324.32        103.4903
324.78        103.6373
325.23        104.1111
325.68        104.7228
326.13        105.1431
326.59        105.2574
327.04        105.1891
327.49        105.1125
327.94        105.3643
328.39        106.0092
328.85        106.8803
329.30           107.8
329.75        108.2645
330.20        108.1488
330.66        107.6086
331.11        106.9526
331.56        106.5977
332.01        106.7014
332.46        107.1609
332.92        107.8293
333.37        108.5987
333.82        109.3264
334.27        110.0436
334.72        110.7468
335.17         111.429
335.63        112.0465
336.08        112.6288
336.53        113.0587
336.98        113.2364
337.43        113.1653
337.88        112.8971
338.34        112.6225
338.79         112.655
339.24        113.0637
339.69        113.7947
340.14        114.6359
340.59        115.2125
341.05         115.435
341.50        115.4113
341.95        115.3495
342.40        115.6065
342.85        116.2424
343.30        117.0885
343.75        117.9457
344.20        118.5049
344.66        118.6964
345.11        118.6627
345.56        118.4498
346.01        118.1188
346.46        117.7572
346.91        117.3553
347.36        117.1488
347.81        117.4998
348.26         118.419
348.72        119.7549
349.17        121.1486
349.62        121.9092
350.07        121.8617
350.52        121.2469
350.97        120.3771
351.42        119.7403
351.87        119.5022
352.32        119.5072
352.77        119.7604
353.22        120.2744
353.67        120.9644
354.13        121.7883
354.58        122.4941
355.03         122.658
355.48        122.1857
355.93        121.1979
356.38         119.903
356.83        118.6419
357.28        117.5433
357.73        116.5452
358.18        115.6554
358.63        114.8697
359.08        114.1731
359.53        113.5926
359.98        113.0686
360.43        112.4834
360.88        111.8094
361.33        111.0646
361.78        110.2948
362.23        109.5879
362.68        108.9625
363.13        108.3825
363.58        107.8217
364.03        107.2385
364.48        106.6192
364.93        105.9861
365.38        105.3351
365.83        104.6605
366.28        103.9725
366.73        103.2687
367.18        102.5911
367.63        102.0059
368.08        101.5098
368.53        101.0747
368.98        100.6286
369.43        100.0488
369.88         99.3241
370.33         98.5238
370.78        97.70575
371.23        96.97073
371.68         96.3536
372.13        95.79272
372.58        95.34841
373.03        95.11506
373.48        95.06159
373.93        95.14876
374.38        95.11827
374.83        94.55441
375.28        93.42017
375.72        91.86654
376.17        90.32408
376.62        89.26459
377.07        88.78616
377.52        88.72192
377.97        88.87745
378.42        88.93031
378.87        88.75771
379.32        88.45071
379.77        88.03671
380.22        87.54853
380.67        87.00402
381.11        86.37498
381.56        85.69456
382.01         85.0564
382.46         84.5089
382.91        84.06881
383.36        83.71038
383.81        83.37289
384.26        83.03397
384.71        82.69163
385.15         82.3762
385.60         82.1957
386.05        82.12373
386.50        82.11702
386.95         82.0462
387.40        81.72221
387.85        81.14132
388.29        80.35181
388.74        79.61465
389.19        79.07397
389.64        78.75666
390.09        78.57664
390.54        78.48366
390.98        78.38055
391.43        78.26377
391.88        78.15349
392.33        77.96468
392.78        77.64744
393.23        77.22482
393.67        76.55566
394.12        75.84141
394.57        75.88147
395.02        75.60138
395.47        75.80934
395.91         76.0583
396.36        76.12052
396.81        75.93784
397.26         75.5974
397.71        75.18376
398.15        74.75047
398.60        74.41497
399.05        74.13187
399.50        73.89233
399.95        73.69297
400.39        73.30292
400.84        73.44498
401.29        73.87234
401.74        73.88721
402.18        73.42007
402.63        72.80356
403.08        72.28929
403.53        72.10584
403.97        72.29234
404.42        72.74606
404.87        73.23276
405.32        73.32707
405.76        72.92677
406.21        72.36577
406.66        71.76326
407.11        70.99038
407.55        70.33127
408.00         70.3898
408.45        71.05509
408.90        71.68056
409.34        71.97007
409.79        71.66883
410.24        71.01804
410.68        70.83289
411.13         71.1856
411.58        71.57917
412.03        71.82529
412.47          71.854
412.92        71.58517
413.37        71.09558
413.81        70.52201
414.26        70.14162
414.71        69.98107
415.15        69.97536
415.60        70.05507
416.05        70.14669
416.49        70.21687
416.94        70.29966
417.39        70.34338
417.83         70.2407
418.28        69.99673
418.73        69.64117
419.17        69.31487
419.62        69.26108
420.07        69.49162
420.51        69.89737
420.96        70.34566
421.41        70.49397
421.85        70.25017
422.30        70.05198
422.74        69.86537
423.19        69.18302
423.64        68.28037
424.08        68.41379
424.53        69.44317
424.98        69.95567
425.42        69.79595
425.87        69.95586
426.31        70.36035
426.76        69.98777
427.21        68.94708
427.65        68.95455
428.10        69.73064
428.54        69.85226
428.99        68.83661
429.44        68.34542
429.88        68.33293
430.33        68.51643
430.77        68.75798
431.22        69.14917
431.66        69.54417
432.11        69.48042
432.56        69.01746
433.00        68.81054
433.45        69.13028
433.89        69.49326
434.34        69.58736
434.78         71.5667
435.23        69.14853
435.67        68.42567
436.12        67.92326
436.57        68.06841
437.01        68.66225
437.46        69.26772
437.90        69.07043
438.35        69.37291
438.79        69.88593
439.24        70.04341
439.68        69.86361
440.13        69.77086
440.57        69.81664
441.02        69.81388
441.46        69.74712
441.91        69.80768
442.35        69.87797
442.80        69.85515
443.24        69.89414
443.69        69.71819
444.13        69.44154
444.58         69.2792
445.02        69.19662
445.47        69.17836
445.91        69.22186
446.36        69.19471
446.80        69.03431
447.24        69.48547
447.69        69.35868
448.13        69.35231
448.58        69.46461
449.02        69.44302
449.47        69.44022
449.91        69.51961
450.36        69.71279
450.80         69.9575
451.25        70.19553
451.69        70.31065
452.13        70.28226
452.58        70.17393
453.02        70.02853
453.47        69.90894
453.91        69.82313
454.36        69.90482
454.80        69.81629
455.24        69.91013
455.69        70.04482
456.13        70.04037
456.58        69.90919
457.02        69.73001
457.46        69.54636
457.91        69.36049
458.35        69.16176
458.79        69.04224
459.24        69.05226
459.68        69.09222
460.13        69.10313
460.57        69.37167
461.01        69.24575
461.46        69.07734
461.90        68.78689
462.34        69.04137
462.79        69.62891
463.23        69.50218
463.68        68.75952
464.12        68.42884
464.56         68.5726
465.01        68.60147
465.45        68.44012
465.89        68.45806
466.34        68.62197
466.78        68.56035
467.22        68.51817
467.67        68.41926
468.11        68.37227
468.55        68.26411
468.99        68.11327
469.44        67.96377
469.88        67.82371
470.32        67.70547
470.77        67.60804
471.21        67.55257
471.65        67.52641
472.10        67.53442
472.54        67.57259
472.98        67.65429
473.42        67.76254
473.87        67.94868
474.31        68.11943
474.75        68.01816
475.20        67.71275
475.64        67.58495
476.08        67.66712
476.52        67.54564
476.97        67.19644
477.41        67.25919
477.85        67.25481
478.29        66.85184
478.74        67.55046
479.18        67.42445
479.62        67.05289
480.06        66.97565
480.50        67.24129
480.95        67.18414
481.39        67.83047
481.83        67.28409
482.27        68.00819
482.72        67.72674
483.16        67.95944
483.60        67.89097
484.04        68.16061
484.48        68.28034
484.93        68.10519
485.37         68.3866
485.81        67.35792
486.25        66.33173
486.69        67.59801
487.14        67.31261
487.58        67.03032
488.02        67.18465
488.46        67.70745
488.90        68.04346
489.34        67.08802
489.79         67.9744
490.23        67.38974
490.67        67.58128
491.11        67.59636
491.55        67.36603
491.99        66.99239
492.43        66.89055
492.88        67.11447
493.32        67.42904
493.76        67.75038
494.20        68.02905
494.64        68.19572
495.08        68.37658
495.52         68.5729
495.96        68.34949
496.41        67.77557
496.85        68.14087
497.29        68.40392
497.73        68.05176
498.17        67.70625
498.61        67.57851
499.05        67.26664
499.49        67.31245
499.93        67.45082
500.37        67.51578
500.82        67.47302
501.26        67.50648
501.70        67.61025
502.14        67.63714
502.58        67.61124
503.02        67.65292
503.46        67.77113
503.90        67.91758
504.34        68.06804
504.78        68.17819
505.22        68.21261
505.66        68.23269
506.10        68.23909
506.54        68.09573
506.98        67.84724
507.42        68.03027
507.86        67.40206
508.30        67.68803
508.74        67.29842
509.18        67.25562
509.62         67.2225
510.06        67.29974
510.50        67.48888
510.94        67.76495
511.38        68.04049
511.82        68.14194
512.26        68.04374
512.70        67.76936
513.14        67.42931
513.58        67.28345
514.02        67.39751
514.46          67.369
514.90        67.71788
515.34        67.80762
515.78        67.77636
516.22        67.65093
516.66        67.51073
517.10        67.46386
517.54        67.52873
517.98        67.67265
518.42         67.8097
518.86        67.80891
519.30        67.64616
519.74        67.36985
520.18        67.08543
520.62        66.94875
521.06        66.99953
521.50        67.20024
521.93        67.45636
522.37        67.58947
522.81        67.56205
523.25         67.4147
523.69         67.2581
524.13        67.26439
524.57        67.46005
525.01        67.78143
525.45        68.08636
525.89        68.14811
526.32        67.91344
526.76        67.49114
527.20        67.02849
527.64        66.75307
528.08        66.72097
528.52        66.85658
528.96        67.07224
529.40        67.22832
529.83        67.27219
530.27        67.25793
530.71         67.2012
531.15        67.13017
531.59        67.06103
532.03        66.97854
532.46        66.89034
532.90        66.84367
533.34        66.83872
533.78        66.87114
534.22        66.92162
534.66        66.95527
535.09        66.95596
535.53        66.94511
535.97        66.92303
536.41        66.90691
536.85        66.89978
537.28        66.88989
537.72          66.871
538.16        66.82977
538.60        66.76275
539.04        66.67825
539.47          66.571
539.91         66.4855
540.35        66.41438
540.79        66.36772
541.22        66.33543
541.66        66.31239
542.10        66.29568
542.54        66.29122
542.97        66.31763
543.41        66.42444
543.85        66.60179
544.29        66.83503
544.72        67.03903
545.16        67.13011
545.60        67.08206
546.04        66.87587
546.47         66.6181
546.91        66.60783
547.35         66.8385
547.79        67.01933
548.22        67.07065
548.66        67.23627
549.10        67.50593
549.53        67.53626
549.97          67.224
550.41        67.80947
550.84        67.26773
551.28        67.09371
551.72         66.7384
552.15          66.953
552.59        66.85694
553.03        66.97208
553.46         66.8129
553.90        66.83529
554.34        66.95036
554.77        67.03385
555.21        67.07852
555.65        67.10929
556.08        67.12546
556.52        67.13728
556.96        67.16061
557.39        67.29449
557.83        67.52075
558.27        67.64176
558.70        67.66375
559.14        67.76055
559.57        67.87009
560.01        67.88418
560.45        67.80431
560.88        67.48951
561.32        67.37715
561.75        67.39337
562.19        67.54497
562.63        67.71231
563.06        67.26397
563.50        67.18267
563.93        67.27415
564.37        67.32382
564.80          67.306
565.24        67.39167
565.68        67.52834
566.11        67.56192
566.55        67.50069
566.98        67.37145
567.42        67.30153
567.85        67.27673
568.29        67.30994
568.72        67.62693
569.16        68.26634
569.60        67.73687
570.03        68.03412
570.47        68.17256
570.90        68.05185
571.34        67.66707
571.77        67.83622
572.21        67.78522
572.64        67.80084
573.08        67.74184
573.51        67.63683
573.95        67.95152
574.38        68.33239
574.82        68.03468
575.25        68.01532
575.69        67.75375
576.12        67.60003
576.56        67.56818
576.99        67.50555
577.42        67.35629
577.86        67.01552
578.29        67.22699
578.73        68.15846
579.16        67.37833
579.60        67.88818
580.03        67.43819
580.47        67.98497
580.90        67.79447
581.33        67.37767
581.77        67.33777
582.20        67.49775
582.64         67.7478
583.07        67.41783
583.51         67.1013
583.94        66.89507
584.37        66.75332
584.81        66.86608
585.24        67.29534
585.68        67.40173
586.11        68.08796
586.54        67.26683
586.98        66.80724
587.41        68.13029
587.85        67.98499
588.28        67.77541
588.71        67.79357
589.15        67.32345
589.58         67.5125
590.01        66.95741
590.45        66.99842
590.88         67.3303
591.31        67.65002
591.75        67.76333
592.18        67.88387
592.61        68.22734
593.05        66.84151
593.48        67.58135
593.91        67.98761
594.35        66.82935
594.78        66.73063
595.21        66.85681
595.65        67.56799
596.08        66.84779
596.51        66.80916
596.94        67.74676
597.38        67.99315
597.81        67.64241
598.24        68.09826
598.68        67.67504
599.11        67.49766
599.54        67.96972
599.97        68.23386
600.41        66.82195
600.84        67.10454
601.27        67.15385
601.70        67.51015
602.14        68.19592
602.57        67.72945
603.00        67.40223
603.43         67.2733
603.87        67.48653
604.30        67.80048
604.73        67.56353
605.16        67.57613
605.60        67.63824
606.03        67.72351
606.46        67.72952
606.89        67.98063
607.32        67.85608
607.76        67.88923
608.19        67.94466
608.62        67.87616
609.05        67.75877
609.48        67.91944
609.92        68.24846
610.35        68.12213
610.78        68.13436
611.21        67.49664
611.64        67.87901
612.07        68.14185
612.50        68.17744
612.94         67.9826
613.37        68.38267
613.80        68.30708
614.23        68.44315
614.66        68.39734
615.09        68.31631
615.52        68.25445
615.96        68.20792
616.39        68.12268
616.82        67.95799
617.25        68.00741
617.68        67.49319
618.11        67.68562
618.54          68.212
618.97        68.31245
619.40        68.00644
619.84        67.96171
620.27        68.24254
620.70        68.47012
621.13        68.53072
621.56        68.48293
621.99        67.98374
622.42         67.7725
622.85        68.46289
623.28        68.09695
623.71        68.81786
624.14        67.50996
624.57        68.27902
625.00        68.12918
625.43         68.1144
625.86        68.07575
626.29        68.16281
626.72        68.17326
627.15        68.11321
627.58        68.02775
628.01        67.94347
628.44        67.90843
628.87        67.93193
629.30        68.00788
629.73        68.12062
630.16        68.20423
630.59        68.23325
631.02         68.3835
631.45        68.34023
631.88        68.33868
632.31        68.28678
632.74        68.19869
633.17        68.07997
633.60        67.94071
634.03        67.79282
634.46        67.65172
634.89        67.55531
635.32        67.45509
635.75        67.53572
636.18        67.62796
636.61        67.73999
637.04        67.80587
637.47        67.82207
637.89        67.75994
638.32        67.60549
638.75         67.5507
639.18        67.64478
639.61        67.17746
640.04        67.37651
640.47        67.29026
640.90        67.28474
641.33        67.33818
641.76        67.42249
642.18         67.4665
642.61        67.42046
643.04        67.31837
643.47        67.22441
643.90        67.22283
644.33        67.32175
644.76        67.57453
645.18        67.87178
645.61         67.8494
646.04        67.42384
646.47        67.42596
646.90        67.75587
647.33        67.81034
647.75        67.55946
648.18        67.33228
648.61        67.21831
649.04        67.26238
649.47        67.44302
649.89        67.65122
650.32        67.78106
650.75        67.78835
651.18        67.73676
651.61        67.70884
652.03        67.77341
652.46        68.13696
652.89        68.54314
653.32         68.3642
653.74        67.80581
654.17        67.25677
654.60        67.13829
655.03        68.70897
655.46        66.96993
655.88        68.14658
656.31        69.37225
656.74        69.62109
657.16        68.88501
657.59        67.54188
658.02        67.03506
658.45        68.44627
658.87        68.62682
659.30        67.90447
659.73        68.46036
660.15         69.0659
660.58        68.67652
661.01        68.67494
661.44        68.56604
661.86        68.15498
662.29        67.59503
662.72        67.76524
663.14        68.50633
663.57        68.39643
664.00        67.57672
664.42         67.3484
664.85        67.76946
665.27        68.08411
665.70        68.18857
666.13        68.30154
666.55        68.40241
666.98         68.4174
667.41        68.36579
667.83        68.28063
668.26         68.1706
668.69        68.04562
669.11        67.93524
669.54        67.87624
669.96         67.8742
670.39          67.948
670.82        68.05431
671.24        68.05611
671.67        67.95898
672.09        67.94305
672.52         68.0197
672.94        68.12769
673.37        67.74171
673.80        68.14771
674.22        67.85103
674.65        67.98755
675.07        68.16423
675.50        68.39567
675.92        68.61472
676.35        68.69866
676.77        68.64076
677.20        68.46409
677.62        68.26434
678.05        68.14181
678.47        68.21418
678.90        68.36864
679.32         68.5369
679.75        68.57548
680.17        68.44791
680.60          68.218
681.02         67.9631
681.45        67.80334
681.87        67.77769
682.30        67.85085
682.72        67.99711
683.15        68.09532
683.57        68.17858
684.00        68.36285
684.42        68.57498
684.85         68.8788
685.27        68.82965
685.70        68.73296
686.12        68.56264
686.54        68.88228
686.97        69.56459
687.39          69.761
687.82        69.36182
688.24        69.61694
688.66        69.32659
689.09        69.11559
689.51        68.70873
689.94        68.45486
690.36        68.38667
690.78         68.4303
691.21        68.55669
691.63        68.68523
692.06        68.78598
692.48        68.89776
692.90        68.98965
693.33        69.00117
693.75        68.92821
694.17        68.76766
694.60        68.60121
695.02        68.55318
695.44        68.64031
695.87        68.92657
696.29        69.28244
696.71        69.22683
697.14        68.83523
697.56         68.6909
697.98        68.84277
698.41        68.91457
698.83        68.90176
699.25        69.06079
699.68        69.30123
700.10        69.38765
700.52        69.26954
700.94        69.03739
701.37        68.75894
701.79        68.56032
702.21        68.47358
702.64        68.46603
703.06        68.52396
703.48        68.63951
703.90        68.79794
704.33        69.01533
704.75        69.21187
705.17        69.32231
705.59        69.30738
706.01        69.18856
706.44        69.03835
706.86        68.98487
707.28        69.05506
707.70        69.21065
708.12        69.40251
708.55        69.54771
708.97        69.61978
709.39        69.62149
709.81        69.59499
710.23         69.6478
710.66        69.79092
711.08        69.98965
711.50        70.18283
711.92        70.32124
712.34        70.38702
712.76        70.39624
713.19        70.35086
713.61        70.30102
714.03        70.24671
714.45        70.18957
714.87        70.14697
715.29        70.14262
715.71         70.1783
716.13        70.24532
716.56        70.31367
716.98        70.41784
717.40        70.51768
717.82        70.60741
718.24        70.66248
718.66        70.64756
719.08        70.56146
719.50        70.41994
719.92          70.259
720.34        70.13731
720.76        70.07335
721.19        70.04402
721.61        70.05274
722.03        70.07408
722.45        70.09473
722.87        70.11938
723.29         70.1304
723.71        70.09762
724.13        70.01861
724.55        69.90678
724.97        69.79157
725.39        69.71521
725.81        69.69442
726.23        69.74753
726.65        69.81628
727.07        69.91637
727.49        70.01812
727.91        70.10988
728.33        70.19547
728.75        70.28236
729.17        70.36671
729.59        70.45323
730.01        70.48352
730.43        70.36808
730.85         70.1112
731.27        69.75323
731.69        69.44028
732.10        69.39867
732.52        69.67328
732.94        70.20291
733.36        70.81608
733.78        71.23355
734.20        71.36214
734.62        71.18236
735.04        70.87545
735.46        70.92991
735.88         71.3261
736.30        71.52197
736.72        71.43491
737.13        71.43839
737.55         71.4708
737.97        71.13986
738.39        70.60611
738.81        70.51126
739.23         70.8302
739.65        71.00749
740.06        70.93732
740.48        70.88882
740.90        70.82869
741.32        70.59953
741.74        70.27968
742.16        70.13146
742.57        70.21558
742.99        70.35651
743.41        70.53161
743.83        70.87473
744.25        71.27041
744.67        71.31762
745.08        71.07104
745.50        70.98602
745.92        71.10999
746.34        71.16833
746.75        71.15993
747.17         71.2088
747.59        71.31172
748.01        71.44102
748.42        71.56154
748.84        71.58276
749.26        71.50227
749.68        71.35191
750.09        71.17515
750.51        71.07333
750.93        71.05661
751.35        71.09932
751.76        71.17906
752.18        71.25037
752.60        71.29421
753.01        71.33151
753.43        71.33988
753.85        71.31233
754.27        71.26659
754.68         71.2386
755.10          71.228
755.52        71.23657
755.93        71.24646
756.35        71.22415
756.77        71.27327
757.18        71.47221
757.60        71.81107
758.02        72.51758
758.43        73.25658
758.85         72.9174
759.26        71.73173
759.68        71.17273
760.10        71.38293
760.51        71.52534
760.93        71.54945
761.34        71.81573
761.76        72.18328
762.18        72.38098
762.59        72.33721
763.01        71.86006
763.42        71.18982
763.84        70.88043
764.26        71.03282
764.67        71.38346
765.09        71.78661
765.50        72.07469
765.92        72.20412
766.33        72.16519
766.75         71.9065
767.16        72.07683
767.58        71.82622
768.00        71.74323
768.41        71.60199
768.83        71.69463
769.24        71.90586
769.66        71.74765
770.07        71.32397
770.49        71.22643
770.90        71.49419
771.32         71.8411
771.73        72.15452
772.15         72.2849
772.56        72.20467
772.97         72.1405
773.39        71.72346
773.80        71.87412
774.22        72.37118
774.63        72.74141
775.05        72.84133
775.46        72.94724
775.88        73.00201
776.29        72.84005
776.70        72.51783
777.12        72.27168
777.53        72.16068
777.95        72.10886
778.36        72.12572
778.77        72.21217
779.19         72.3541
779.60        72.58781
780.02        72.83177
780.43        73.03632
780.84        73.16692
781.26        73.09679
781.67        72.93685
782.09        73.15047
782.50        73.63241
782.91        73.67284
783.33        73.26395
783.74        73.01262
784.15        72.94716
784.57        72.73333
784.98        72.43513
785.39        72.32611
785.81          72.439
786.22        72.68879
786.63        73.02968
787.04        73.38578
787.46        73.71638
787.87        74.01334
788.28        74.25535
788.70        74.38689
789.11        74.39342
789.52        74.33754
789.93        74.24886
790.35        74.01636
790.76        73.93245
791.17        73.79025
791.58        73.72333
792.00        73.77097
792.41        73.94966
792.82        74.28645
793.23        74.67226
793.65        74.76482
794.06        74.60993
794.47        74.62595
794.88        74.77402
795.29        74.69219
795.71        74.35255
796.12        73.99419
796.53        73.75765
796.94         73.8021
797.35        74.17266
797.76        74.82464
798.18        75.51037
798.59        75.87247
799.00        75.79767
799.41        75.38527
799.82        74.83855
800.23        74.51296
800.64        74.51885
801.06        74.73262
801.47        75.06751
801.88        75.29276
802.29        75.33203
802.70        75.24901
803.11         75.1211
803.52        75.06676
803.93        75.13013
804.34        75.27358
804.75        75.41437
805.17        75.46063
805.58        75.42487
805.99        75.20605
806.40        74.94033
806.81        75.13982
807.22        75.69713
807.63        75.85369
808.04         75.6095
808.45        75.59769
808.86        75.84055
809.27        75.95689
809.68        75.89445
810.09        75.77734
810.50        75.61576
810.91        75.37381
811.32        75.16568
811.73        75.17577
812.14        75.43148
812.55        75.88803
812.96        76.38201
813.37        76.60141
813.78        76.46351
814.19        76.07859
814.60         75.6051
815.01        75.26776
815.42        75.12648
815.83        75.10849
816.24        75.18545
816.65        75.30341
817.05        75.42401
817.46        75.53283
817.87        75.60971
818.28          75.557
818.69        75.37121
819.10        75.08328
819.51        74.77796
819.92         74.6253
820.33         74.6786
820.74        74.87216
821.14        75.17174
821.55         75.5313
821.96        75.90752
822.37         76.3223
822.78        76.65713
823.19        76.70262
823.60         76.4152
824.00        75.84152
824.41        75.19636
824.82        74.85449
825.23        74.90118
825.64        75.26605
826.04        75.73682
826.45        75.84245
826.86        75.49963
827.27        74.85461
827.68        74.19505
828.08        73.99506
828.49        74.32253
828.90        75.06415
829.31        75.98018
829.72        76.65907
830.12        76.98701
830.53        76.98666
830.94        76.85706
831.35        76.89523
831.75        77.19964
832.16        77.58624
832.57        77.90865
832.97        77.89075
833.38        77.48798
833.79        76.88782
834.20        76.23207
834.60        75.68533
835.01         75.3471
835.42         75.1337
835.82        75.16837
836.23        75.58288
836.64        76.38066
837.04        77.54444
837.45        78.65217
837.86        79.15278
838.26        78.90007
838.67        78.04389
839.08         76.9744
839.48        76.29649
839.89        76.21389
840.29        76.55419
840.70        77.08326
841.11        77.42856
841.51        77.49881
841.92        77.38026
842.33        77.22588
842.73        77.26436
843.14        77.49929
843.54        77.86389
843.95        78.22497
844.35        78.45229
844.76        78.47533
845.17        78.33109
845.57        78.09969
845.98        77.86996
846.38        77.70165
846.79        77.57516
847.19        77.42535
847.60        77.09351
848.00        76.59529
848.41        76.00906
848.81        75.54436
849.22        75.50041
849.62        75.95647
850.03        76.76259
850.43        77.73579
850.84        78.33454
851.24        78.45623
851.65        78.14017
852.05        77.60683
852.46         77.1788
852.86        76.95492
853.27        76.90894
853.67        76.86652
854.07         76.7908
854.48        76.60672
854.88        76.37523
855.29        76.09525
855.69        75.98412
856.10        75.99287
856.50        76.17645
856.90        76.33174
857.31        76.20132
857.71        75.79736
858.12        75.16381
858.52        74.58029
858.92        74.45261
859.33        74.84988
859.73        75.68199
860.13        76.64823
860.54        77.26686
860.94        77.43756
861.34        77.19852
861.75         76.6808
862.15        76.19199
862.55        75.81651
862.96        75.51706
863.36        75.17221
863.76         74.6107
864.17        73.85329
864.57        73.02061
864.97         72.3338
865.38        72.06139
865.78        72.28107
866.18        72.87435
866.58        73.67841
866.99        74.33551
867.39        74.73535
867.79        74.92685
868.19        74.89323
868.60        74.61897
869.00        74.15649
869.40        73.50207
869.80        72.93491
870.21        72.93355
870.61        73.61967
871.01        74.79942
871.41        76.03001
871.81        76.59917
872.22        76.32501
872.62        75.41723
873.02        74.21795
873.42        73.31478
873.82        72.92625
874.22        72.93193
874.63        73.14849
875.03        73.28458
875.43        73.26607
875.83        73.19105
876.23        73.26363
876.63        73.79581
877.03        74.80145
877.44        76.07168
877.84        77.29153
878.24        77.86961
878.64        77.68362
879.04        76.96538
879.44        76.02141
879.84        75.30513
880.24        74.94735
880.64        74.79301
881.04        74.85142
881.44        75.12524
881.84        75.56802
882.24        76.22765
882.65        76.78809
883.05        76.82848
883.45        76.22923
883.85        75.16364
884.25        74.11543
884.65        73.82941
885.05        74.43246
885.45         75.6454
885.85        77.08247
886.25        78.07381
886.65        78.36262
887.05        78.16117
887.45         77.5078
887.85        76.49535
888.25        75.31718
888.65        74.04202
889.04        72.96983
889.44        72.57646
889.84        72.86041
890.24        73.72563
890.64         74.9307
891.04        75.89829
891.44        76.36473
891.84        76.46893
892.24        76.33022
892.64        76.15363
893.04         76.0218
893.44        75.84455
893.83        75.75337
894.23          75.915
894.63        76.36933
895.03        77.06881
895.43         77.7672
895.83        78.07221
896.23        77.89769
896.63        77.32814
897.02        76.59603
897.42        76.15703
897.82        76.11327
898.22        76.38012
898.62        76.69527
899.01        76.62746
899.41        76.08463
899.81        75.23646
900.21        74.44018
900.61        74.23322
901.00        74.70415
901.40        75.65243
901.80        76.67868
902.20        77.13448
902.59         76.8483
902.99        76.03713
903.39        75.02406
903.79        74.29023
904.18        73.98057
904.58        73.98129
904.98        74.15379
905.38        74.30077
905.77        74.33208
906.17        74.31389
906.57        74.31069
906.96        74.44097
907.36        74.68393
907.76        75.00542
908.15        75.25369
908.55        75.07386
908.95        74.49242
909.34        73.63744
909.74         72.8943
910.14        72.70832
910.53        73.21079
910.93        74.21478
911.33        75.52277
911.72        76.82827
912.12        77.89513
912.52        78.78294
912.91        79.46256
913.31        79.87663
913.70        80.02375
914.10         79.8649
914.49        79.41232
914.89         78.6981
915.29        77.81026
915.68        76.82293
916.08        75.96376
916.47        75.42448
916.87        75.30701
917.26        75.53022
917.66        76.00021
918.05        76.56907
918.45        77.09403
918.84        77.62653
919.24        78.01709
919.64        78.18526
920.03        78.11594
920.42        77.79748
920.82        77.35976
921.21        76.91737
921.61        76.54185
922.00        76.24903
922.40        76.05405
922.79        76.05654
923.19        76.23423
923.58        76.58314
923.98        77.01406
924.37        77.39473
924.77        77.66662
925.16        77.84078
925.55        77.92714
925.95        77.96004
926.34        77.97285
926.74        77.94184
927.13        77.84941
927.52        77.63774
927.92        77.32158
928.31        76.91961
928.70        76.54337
929.10        76.34469
929.49        76.35508
929.89        76.50102
930.28        76.68031
930.67         76.6313
931.07        76.29745
931.46        75.79104
931.85        75.23183
932.24        74.80055
932.64         74.5666
933.03        74.49771
933.42        74.58849
933.82        74.80617
934.21        75.13786
934.60        75.52869
934.99        75.98037
935.39        76.46901
935.78         77.0193
936.17        77.59648
936.56         77.9457
936.96        77.70907
937.35        76.87813
937.74        75.61862
938.13        74.44429
938.53        74.00709
938.92         74.3735
939.31        75.43085
939.70        76.71736
940.09        77.32733
940.49        76.98311
940.88        75.97453
941.27        74.84688
941.66        74.42001
942.05        74.87428
942.44        75.98796
942.84        77.26041
943.23        77.87458
943.62        77.52026
944.01        76.46273
944.40        75.29114
944.79        74.85599
945.18        75.34332
945.57        76.52338
945.97        77.76343
946.36        78.22968
946.75        77.58457
947.14        76.11891
947.53        74.56417
947.92        74.00749
948.31        74.69817
948.70        76.36332
949.09        78.23007
949.48        78.91138
949.87        78.04374
950.26        76.08739
950.65        74.02628
951.04        73.23199
951.43        73.97746
951.82        75.88071
952.21        78.08224
952.60         78.9997
952.99        78.17587
953.38        76.15561
953.77        73.94373
954.16        72.85702
954.55        73.16122
954.94        74.54052
955.33        76.25331
955.72        76.74651
956.11        75.53773
956.50        73.24916
956.89        70.97089
957.28        70.07345
957.66        70.86929
958.05         72.8828
958.44        75.42889
958.83        77.07972
959.22        77.27665
959.61        76.47163
960.00        75.33549
960.39        74.75272
960.78        74.90714
961.16         75.5231
961.55        76.21889
961.94        76.39471
962.33        75.86107
962.72        74.97678
963.11        73.99797
963.49        73.19958
963.88        72.67867
964.27        72.31377
964.66        72.24438
965.04        72.77546
965.43        73.82134
965.82        75.32024
966.21         76.8218
966.60        77.49619
966.98        77.16414
967.37        76.14691
967.76        74.90253
968.15        74.06163
968.53        73.76797
968.92        73.76802
969.31        74.11665
969.69        74.92391
970.08        76.04919
970.47        77.59328
970.86        78.91557
971.24        78.91941
971.63        77.41847
972.02        74.81389
972.40        72.20761
972.79        71.34409
973.17        72.51547
973.56        75.08772
973.95        78.13176
974.33        79.85433
974.72        79.59695
975.11        77.99561
975.49        75.83944
975.88        74.63522
976.26        74.77329
976.65        75.70085
977.04        77.08418
977.42        78.32434
977.81        78.98211
978.19        79.39082
978.58        79.48002
978.96        79.00706
979.35        78.07884
979.74        76.75381
980.12        75.56322
980.51        75.40636
980.89        76.55442
981.28        78.58483
981.66        81.11818
982.05        83.16967
982.43        84.47691
982.82        85.19227
983.20        85.16837
983.59        84.09734
983.97        82.16267
984.35        79.53137
984.74        77.17715
985.12        76.42439
985.51        77.40614
985.89        79.84797
986.28        82.65535
986.66        84.30702
987.04        84.15398
987.43        82.66006
987.81        80.44724
988.20        78.91958
988.58        78.46311
988.96         78.7009
989.35        78.96245
989.73        78.42327
990.12        76.83839
990.50        74.69745
990.88        72.49466
991.27        70.96519
991.65        70.30777
992.03        70.34124
992.42        70.95937
992.80        72.31347
993.18        74.23688
993.56        76.72107
993.95        79.24441
994.33        80.96082
994.71        81.45068
995.10        80.92978
995.48        79.92999
995.86        79.40161
996.24        79.60592
996.63        80.19775
997.01        81.05848
997.39        81.70747
997.77        81.94569
998.15        82.01714
998.54        81.84663
998.92        81.28255
999.30        80.35749
999.68        79.10226
1000.06        78.00079
1000.45        77.92724
1000.83        79.14792
1001.21        81.35989
1001.59        83.91975
1001.97         85.7531
1002.35        86.50587
1002.73        86.44311
1003.12        85.80766
1003.50        84.93884
1003.88        84.08361
1004.26        83.19073
1004.64        82.43871
1005.02        82.16025
1005.40        82.39392
1005.78        83.00539
1006.16        83.84499
1006.54         84.6802
1006.92        85.42441
1007.30        86.16607
1007.69         86.5858
1008.07        86.24707
1008.45         84.9996
1008.83        82.99611
1009.21        80.96883
1009.59        80.15031
1009.97        80.82876
1010.35        82.61374
1010.73        84.84071
1011.11        86.37516
1011.49         86.8142
1011.86        86.53295
1012.24        85.53092
1012.62        84.01413
1013.00         82.1063
1013.38        79.68256
1013.76        77.10043
1014.14        75.25097
1014.52        74.52283
1014.90        74.85915
1015.28        75.77976
1015.66         76.3436
1016.04        76.30039
1016.41        76.00098
1016.79        75.63128
1017.17        75.61976
1017.55        76.12437
1017.93        76.87642
1018.31        77.94157
1018.69        79.68667
1019.06        82.42051
1019.44        86.26115
1019.82        91.29052
1020.20        95.76002
1020.58        97.63669
1020.95        96.78735
1021.33        94.26467
1021.71        91.12645
1022.09        87.44463
1022.46        82.63395
1022.84        76.97675
1023.22        72.12243
1023.60        69.89271
1023.97        70.17484
1024.35        72.23962
1024.73        75.25719
