SpectraSmart Spectrum 2.9.0.0
--------- Device Information -----------
Spectrum Name :  反射率_0
Saving Time :  2024/04/30 00:27:09
Spectro-Module Model Name : SE2030-DUVN
Spectro-Module Serial Number : OS361AC55029948
Wavelength Start : 200
Wavelength End : 1025
Wavelength Unit : Wavelength(nm)
Spectrum Unit : Reflectance(%)
-----------Spectrum Setting ------------
Integration Time : 20ms
Average : 10
Boxcar : 0
Background removal :  enabled
linearity correction :  enabled
SC :  disabled
Intensity correction :  disabled
DWT denoise :  enabled
savitzky-golay :  disabled
FFT :  disabled
Running average :  disabled
Kalman :  disabled
High pass :  disabled
---------------BEGIN--------------------
Wavelength(nm)             Reflectance(%)
200.29               0
200.75        83.22633
201.21        72.91653
201.67        62.24768
202.13          52.655
202.58        45.13964
203.04        39.45532
203.50        36.90539
203.96        40.22284
204.42        49.65846
204.88        63.68492
205.34        77.12031
205.80        82.41811
206.26        79.71734
206.72        73.40421
207.18        66.65749
207.64        61.17954
208.10        56.71471
208.55        52.32635
209.01        48.45983
209.47        47.39225
209.93        49.38469
210.39        53.31684
210.85        56.97802
211.31        58.53095
211.77        57.91499
212.23        55.10992
212.69        51.07394
213.14        50.64876
213.60        55.00992
214.06         61.5117
214.52        66.73339
214.98        68.73002
215.44        68.15865
215.90        65.89934
216.36        63.71186
216.81        64.93508
217.27        71.41352
217.73        83.81481
218.19        100.7458
218.65        112.3766
219.11        111.9042
219.57         102.753
220.02        92.88135
220.48        88.42987
220.94        88.59114
221.40         91.8737
221.86        95.38134
222.32        91.82325
222.77        81.17812
223.23        70.44265
223.69        62.76959
224.15        58.70556
224.61        57.12141
225.06        56.94942
225.52        58.02203
225.98        59.62834
226.44        61.03123
226.90        62.14758
227.36        62.81298
227.81        62.95933
228.27        62.75577
228.73        62.09795
229.19        61.14815
229.65        60.39434
230.10        60.03365
230.56         60.0957
231.02        60.18191
231.48        59.94189
231.93        59.25814
232.39        58.25609
232.85        57.23261
233.31        56.84692
233.77        57.26511
234.22          58.461
234.68        59.59582
235.14        59.22469
235.60        57.19056
236.05        54.12476
236.51        51.47971
236.97        51.08857
237.43        53.43249
237.88        58.58367
238.34        65.87685
238.80        72.59064
239.26        76.16689
239.71        76.76981
240.17        75.28284
240.63        73.79475
241.08        73.09488
241.54        72.26287
242.00        71.68635
242.46        72.94817
242.91         77.4519
243.37        84.56029
243.83        91.69589
244.28        96.88168
244.74        100.2686
245.20         101.629
245.66         101.894
246.11        103.4312
246.57          107.08
247.03        113.4365
247.48         118.358
247.94        113.4929
248.40        101.4832
248.85        88.27385
249.31        80.11548
249.77        79.26031
250.22        85.40057
250.68        99.80438
251.14        121.9795
251.59        133.6002
252.05        122.6005
252.51        103.5927
252.96        89.22624
253.42        83.74574
253.88        84.15428
254.33         87.7979
254.79        92.38343
255.25        93.00636
255.70        89.21665
256.16        84.62904
256.62        81.02922
257.07        79.26779
257.53        79.31381
257.99        80.14661
258.44        80.57298
258.90        79.91454
259.35        77.90199
259.81        75.70677
260.27        73.83448
260.72        72.69975
261.18        72.38263
261.63        72.22276
262.09        71.94379
262.55        70.82146
263.00         68.8619
263.46        66.69782
263.91        64.54498
264.37        63.00655
264.83        61.97733
265.28        61.18878
265.74        60.58351
266.19        59.82337
266.65        58.94092
267.11        58.00202
267.56        57.04568
268.02        56.13052
268.47        55.21674
268.93        54.26522
269.38        53.26022
269.84        52.31548
270.30        51.44397
270.75        50.64056
271.21        49.82608
271.66        48.80613
272.12        47.56926
272.57        46.15197
273.03        44.74511
273.48        43.56271
273.94        42.73281
274.39        42.13177
274.85         41.6884
275.31        41.19741
275.76        40.58184
276.22        39.93377
276.67        39.26439
277.13        38.70899
277.58        38.22924
278.04        37.83194
278.49        37.39828
278.95        36.88395
279.40        36.23424
279.86        35.55765
280.31        34.88665
280.77         34.4041
281.22         34.0835
281.68        33.89948
282.13        33.75777
282.59        33.59507
283.04        33.35786
283.50          33.084
283.95        32.74549
284.41        32.32888
284.86        31.83987
285.32        31.34058
285.77        30.86239
286.22        30.53084
286.68        30.37654
287.13        30.32565
287.59         30.3665
288.04         30.4108
288.50        30.44536
288.95        30.44889
289.41        30.42928
289.86        30.34883
290.32        30.24238
290.77        30.13134
291.22        30.04335
291.68        30.01337
292.13        30.06244
292.59        30.22829
293.04         30.5982
293.50        31.33444
293.95        32.44143
294.40        33.87064
294.86        35.45211
295.31        36.92634
295.77        38.21419
296.22        39.36509
296.68        40.50614
297.13        41.81861
297.58        43.35545
298.04        45.02238
298.49        46.72148
298.95        48.31886
299.40        49.77268
299.85        51.14764
300.31        52.52094
300.76        53.92258
301.21        55.41211
301.67         57.0014
302.12        58.65555
302.58        60.47204
303.03        62.41456
303.48        64.39922
303.94        66.42048
304.39        68.75346
304.84        70.81902
305.30        73.06001
305.75        75.20175
306.20        77.16361
306.66        78.93542
307.11        80.47768
307.57        81.92522
308.02        83.35506
308.47        84.84083
308.93        86.36919
309.38        87.84326
309.83        89.18941
310.29        90.39322
310.74        91.47298
311.19        92.46807
311.65        93.42045
312.10        94.33246
312.55        95.21338
313.00        96.11093
313.46        97.10352
313.91        98.17655
314.36        99.30067
314.82        100.3975
315.27        101.3693
315.72        102.1558
316.18        102.7843
316.63        103.2403
317.08        103.5219
317.53        103.6705
317.99        103.7335
318.44        103.7826
318.89        103.9469
319.35        104.2571
319.80        104.6708
320.25        105.1992
320.70        105.8499
321.16        106.5607
321.61        107.3706
322.06        108.0726
322.51        108.3508
322.97        108.1519
323.42        107.5856
323.87        106.9448
324.32        106.7235
324.78        107.0234
325.23        107.7785
325.68         108.715
326.13        109.3556
326.59        109.5342
327.04        109.4181
327.49        109.2243
327.94        109.3634
328.39        109.9296
328.85        110.7293
329.30        111.5926
329.75        112.0238
330.20        111.9007
330.66        111.3928
331.11         110.787
331.56        110.4531
332.01        110.5391
332.46         110.945
332.92        111.5645
333.37        112.3696
333.82         113.231
334.27        114.1571
334.72        115.0696
335.17         115.838
335.63        116.3863
336.08        116.7785
336.53         116.985
336.98         117.056
337.43        117.0383
337.88        116.9425
338.34        116.8714
338.79        116.9994
339.24        117.3568
339.69        117.9242
340.14        118.5702
340.59        119.0529
341.05        119.3161
341.50         119.431
341.95        119.5077
342.40        119.7498
342.85        120.1966
343.30        120.7426
343.75        121.3145
344.20        121.8018
344.66        122.1746
345.11        122.4942
345.56        122.6971
346.01        122.6695
346.46        122.4405
346.91        122.0565
347.36         121.778
347.81        122.0045
348.26        122.7736
348.72        123.9153
349.17        125.1265
349.62        125.8171
350.07        125.8233
350.52        125.3523
350.97        124.6303
351.42        124.0053
351.87        123.6143
352.32        123.3562
352.77        123.2878
353.22        123.5067
353.67        123.9725
354.13        124.6277
354.58        125.2504
355.03        125.4626
355.48        125.1615
355.93        124.4411
356.38        123.4417
356.83           122.4
357.28        121.4108
357.73        120.4298
358.18        119.4839
358.63        118.6061
359.08        117.8049
359.53        117.1087
359.98        116.4721
360.43        115.7994
360.88        115.0715
361.33        114.3029
361.78        113.5524
362.23        112.9215
362.68        112.4189
363.13        111.9974
363.58        111.5709
364.03         111.006
364.48        110.2727
364.93        109.4183
365.38        108.5143
365.83        107.6825
366.28        106.9655
366.73        106.3277
367.18        105.7456
367.63        105.1776
368.08        104.5969
368.53        104.0163
368.98        103.4173
369.43         102.761
369.88        102.0593
370.33        101.3476
370.78        100.6537
371.23        100.0314
371.68        99.49519
372.13        98.99734
372.58        98.59055
373.03        98.35854
373.48        98.26926
373.93        98.27531
374.38        98.14544
374.83        97.51443
375.28        96.35475
375.72        94.80734
376.17        93.25802
376.62        92.10324
377.07        91.43237
377.52        91.10645
377.97        90.99849
378.42        90.89649
378.87        90.71019
379.32        90.50295
379.77        90.23472
380.22        89.83751
380.67        89.30366
381.11        88.62426
381.56        87.89095
382.01        87.29682
382.46        86.89764
382.91        86.65982
383.36        86.46635
383.81        86.12208
384.26        85.58891
384.71        84.93227
385.15        84.26352
385.60         83.8158
386.05        83.60469
386.50         83.5434
386.95        83.50936
387.40        83.31838
387.85        82.94002
388.29          82.413
388.74        81.90452
389.19        81.42331
389.64        80.98263
390.09        80.52834
390.54        80.13087
390.98        79.90243
391.43        79.88297
391.88        80.01852
392.33        80.09007
392.78        79.86038
393.23        79.32548
393.67        78.41449
394.12        77.43124
394.57        77.32689
395.02        77.03977
395.47        77.35032
395.91        77.74606
396.36        77.90097
396.81        77.72288
397.26        77.33071
397.71        76.85694
398.15        76.40992
398.60        76.12373
399.05        75.95695
399.50        75.84146
399.95        75.66299
400.39        75.19867
400.84         75.2492
401.29        75.60394
401.74        75.69488
402.18        75.38156
402.63         74.6493
403.08         73.8065
403.53        73.47517
403.97        73.72401
404.42        74.24395
404.87        74.74169
405.32        74.83482
405.76         74.4157
406.21        73.69165
406.66        72.88992
407.11        72.30521
407.55        72.11403
408.00        72.30637
408.45        72.74622
408.90        73.21551
409.34        73.48078
409.79        73.16954
410.24        72.51189
410.68        72.28972
411.13        72.57787
411.58        72.94934
412.03        73.23299
412.47        73.32647
412.92        73.14056
413.37        72.76143
413.81        72.28438
414.26        71.92377
414.71         71.6978
415.15        71.55921
415.60        71.48019
416.05        71.46343
416.49        71.50071
416.94        71.60537
417.39        71.69499
417.83        71.61622
418.28        71.35262
418.73        70.93543
419.17        70.53178
419.62         70.4285
420.07         70.6603
420.51         71.1163
420.96        71.60339
421.41        71.76461
421.85        71.51679
422.30        71.08831
422.74        70.59339
423.19        70.26139
423.64        70.15506
424.08        70.28448
424.53        70.57189
424.98        70.92769
425.42        71.22777
425.87        71.40003
426.31        71.40958
426.76        71.07093
427.21        70.40164
427.65        70.41252
428.10        70.90182
428.54         70.7738
428.99        70.13876
429.44        69.78023
429.88        69.79768
430.33        70.06976
430.77        70.39683
431.22        70.72304
431.66        70.95821
432.11        70.64484
432.56        69.90033
433.00        69.76888
433.45        70.55964
433.89        70.04778
434.34        70.92063
434.78        72.18246
435.23         70.3587
435.67        69.68042
436.12        69.23595
436.57        69.27322
437.01        69.59039
437.46        70.34823
437.90        70.05152
438.35        70.28773
438.79         70.8876
439.24        71.08734
439.68        71.00063
440.13        71.04341
440.57        71.22987
441.02        71.32381
441.46         71.2966
441.91        71.24799
442.35        71.13822
442.80        71.27296
443.24        71.52054
443.69        71.37811
444.13        70.88238
444.58        70.59501
445.02         70.4923
445.47        70.30961
445.91        70.11438
446.36        70.11456
446.80        70.28683
447.24        70.73707
447.69        71.20872
448.13        71.20887
448.58         70.8091
449.02        70.67092
449.47        70.84909
449.91        70.88355
450.36        70.80503
450.80        70.89222
451.25        71.12034
451.69         71.2632
452.13        71.29839
452.58        71.31293
453.02        71.32032
453.47        71.32638
453.91        71.31432
454.36        71.44775
454.80        71.40115
455.24        71.41185
455.69        71.33041
456.13        71.30286
456.58        71.42886
457.02        70.56393
457.46        70.82835
457.91        70.66579
458.35        70.63158
458.79         70.5698
459.24        70.50729
459.68        70.52201
460.13         70.6251
460.57         70.5005
461.01        70.64887
461.46        70.57092
461.90        70.45052
462.34        70.57999
462.79        70.83878
463.23        70.74332
463.68         70.3189
464.12         70.0522
464.56        69.99045
465.01        69.82452
465.45        69.56582
465.89        69.61642
466.34        69.88474
466.78        70.06549
467.22         69.8371
467.67        69.72314
468.11        69.67019
468.55        69.45258
468.99        69.13197
469.44        68.90356
469.88        68.80073
470.32        68.78613
470.77        68.81577
471.21        68.83982
471.65        68.82301
472.10        68.79541
472.54        68.78156
472.98        68.83195
473.42        68.93618
473.87        69.14904
474.31        69.37453
474.75        69.24953
475.20        68.85744
475.64        68.79153
476.08        69.07056
476.52        68.65362
476.97        68.55894
477.41        68.23907
477.85        68.16004
478.29         67.8417
478.74        68.65372
479.18        68.56653
479.62        68.07529
480.06        67.96323
480.50        68.28723
480.95        68.15089
481.39        68.60324
481.83        68.25259
482.27        68.96249
482.72        68.74247
483.16        69.01377
483.60        69.10905
484.04        69.32784
484.48        69.50145
484.93        69.44461
485.37         69.6236
485.81        68.34319
486.25        67.81082
486.69        68.99442
487.14         68.4647
487.58        68.03428
488.02        68.63072
488.46        69.09191
488.90        69.17535
489.34        68.71452
489.79        69.53666
490.23        68.43695
490.67        68.46059
491.11        68.59927
491.55        68.51361
491.99        68.22272
492.43         68.1613
492.88        68.35663
493.32        68.56696
493.76         68.7645
494.20        68.97951
494.64        69.17904
495.08        69.46558
495.52        69.72974
495.96        69.51102
496.41        68.94431
496.85        68.76863
497.29        68.96966
497.73        69.04843
498.17        68.68165
498.61        68.76845
499.05        68.39912
499.49        68.43732
499.93        68.56554
500.37        68.70439
500.82        68.84494
501.26        68.54288
501.70          68.791
502.14        68.72755
502.58        68.63519
503.02        68.65997
503.46        68.80594
503.90        69.02175
504.34        69.24925
504.78        69.41823
505.22        69.48383
505.66        69.49347
506.10        69.46439
506.54        69.36664
506.98         69.1897
507.42        69.37304
507.86        68.78693
508.30        69.09509
508.74        68.71835
509.18        68.67053
509.62        68.61261
510.06         68.6628
510.50        68.82302
510.94        69.06841
511.38        69.30166
511.82        69.32703
512.26        69.11542
512.70        68.73281
513.14        68.32619
513.58         68.1226
514.02        68.17562
514.46        68.41555
514.90        68.73215
515.34        68.94318
515.78        68.98591
516.22        68.90752
516.66         68.7682
517.10        68.66017
517.54        68.61328
517.98        68.60189
518.42        68.57946
518.86        68.47894
519.30        68.29493
519.74        68.05998
520.18        67.86126
520.62        67.82224
521.06        67.96663
521.50        68.26215
521.93        68.60098
522.37        68.78245
522.81        68.76611
523.25        68.59713
523.69        68.40424
524.13         68.3919
524.57        68.59547
525.01        68.94157
525.45        69.28448
525.89        69.38927
526.32        69.19538
526.76        68.81377
527.20          68.377
527.64        68.09052
528.08        68.00992
528.52         68.0648
528.96        68.18992
529.40        68.29102
529.83        68.32068
530.27        68.30358
530.71        68.24748
531.15        68.18139
531.59        68.11637
532.03        68.03628
532.46        67.94112
532.90        67.86997
533.34        67.82571
533.78        67.80711
534.22        67.82032
534.66        67.87044
535.09        67.94576
535.53        68.05305
535.97        68.15965
536.41        68.22917
536.85        68.24831
537.28        68.21944
537.72        68.15873
538.16        68.08444
538.60        68.00521
539.04        67.93616
539.47        67.85833
539.91        67.76454
540.35        67.65831
540.79        67.62679
541.22        67.65799
541.66        67.67741
542.10        67.67622
542.54        67.70105
542.97        67.75087
543.41        67.82583
543.85        67.91537
544.29        68.02811
544.72        68.11707
545.16         68.1479
545.60        68.11191
546.04        67.99356
546.47        67.85902
546.91        67.92165
547.35        68.15584
547.79        68.30088
548.22         68.2986
548.66        68.42823
549.10        68.68612
549.53        68.70477
549.97        68.38192
550.41        68.97498
550.84        68.42386
551.28        68.29133
551.72        67.98925
552.15        68.15814
552.59        67.95715
553.03        68.02988
553.46        68.11269
553.90        68.19343
554.34        68.24171
554.77        68.32792
555.21        68.43316
555.65        68.36772
556.08        68.18681
556.52        68.20242
556.96        68.39571
557.39        68.55585
557.83        68.64452
558.27        68.69707
558.70        68.72567
559.14        68.66973
559.57        68.55378
560.01        68.67934
560.45        68.96013
560.88        68.72978
561.32        68.41149
561.75        68.31614
562.19        68.53455
562.63        68.48387
563.06        68.22292
563.50         68.3402
563.93        68.72812
564.37          68.886
564.80        68.76194
565.24         68.6287
565.68        68.53315
566.11        68.46342
566.55        68.53302
566.98        68.51492
567.42        68.51618
567.85        68.60271
568.29        68.72808
568.72        68.93996
569.16        69.34227
569.60        68.68355
570.03        69.01926
570.47        69.23637
570.90        69.10593
571.34        68.83797
571.77        69.00057
572.21        69.05766
572.64        69.21717
573.08         69.0912
573.51         68.6908
573.95        69.17864
574.38        69.53649
574.82        69.06747
575.25        69.55395
575.69        69.36608
576.12        69.08186
576.56        68.86079
576.99        68.62189
577.42        68.91335
577.86        68.64854
578.29        68.50601
578.73        69.29331
579.16        68.74393
579.60        69.04359
580.03        68.67662
580.47        69.22195
580.90         69.2804
581.33        68.77397
581.77        68.58025
582.20        69.05911
582.64        69.29682
583.07        68.70376
583.51        68.37848
583.94        68.40161
584.37        68.19288
584.81          67.972
585.24        68.45393
585.68        68.90166
586.11        69.52474
586.54        68.67583
586.98        68.15174
587.41        68.68878
587.85         69.3115
588.28        69.15547
588.71        69.48501
589.15         68.8051
589.58        68.88218
590.01        68.30425
590.45        68.40072
590.88        68.85902
591.31        69.14816
591.75        68.99955
592.18        69.08979
592.61        69.73795
593.05        67.98761
593.48        69.08919
593.91        69.88911
594.35        68.11243
594.78        68.03445
595.21         68.4958
595.65        68.85887
596.08        68.15939
596.51        68.52937
596.94        68.82729
597.38        69.00753
597.81        68.68254
598.24        69.00426
598.68        68.62612
599.11        68.46877
599.54        69.21653
599.97        69.76428
600.41        68.03644
600.84        68.44582
601.27        68.44964
601.70        69.07315
602.14        69.48958
602.57        69.13692
603.00        68.37843
603.43        68.21531
603.87        68.57635
604.30        68.72115
604.73        68.59541
605.16        68.60055
605.60        68.71217
606.03        68.93314
606.46        69.10462
606.89        69.19769
607.32        68.92159
607.76        68.85751
608.19        68.97021
608.62        69.02904
609.05        69.05715
609.48        69.10073
609.92        69.11971
610.35        69.10159
610.78        69.53743
611.21        68.77034
611.64        68.64674
612.07        68.68547
612.50        69.30988
612.94         69.3982
613.37        69.50576
613.80        69.45211
614.23        69.60582
614.66        69.64762
615.09        69.62589
615.52        69.66803
615.96        69.71053
616.39        69.50678
616.82        69.01424
617.25        69.03584
617.68        68.83424
618.11        69.07368
618.54        69.39187
618.97        69.35437
619.40        69.03864
619.84        68.97344
620.27        69.21739
620.70        69.56049
621.13        69.86465
621.56        69.53685
621.99        69.13344
622.42        68.81853
622.85        69.51815
623.28        69.24342
623.71        69.42393
624.14        68.90179
624.57        69.18042
625.00        69.19324
625.43         69.2408
625.86        69.21244
626.29        69.12018
626.72         69.1172
627.15        69.19292
627.58         69.2833
628.01        69.33591
628.44         69.3583
628.87        69.34985
629.30        69.16886
629.73        69.51133
630.16         69.5192
630.59        69.38681
631.02        69.40769
631.45        69.28839
631.88        69.22936
632.31         69.1366
632.74        69.04401
633.17        68.94671
633.60        68.84573
634.03        68.74731
634.46        68.64316
634.89        68.55588
635.32        68.53019
635.75        68.56802
636.18        68.64406
636.61        68.72599
637.04        68.77592
637.47        68.79635
637.89          68.757
638.32        68.63261
638.75        68.59321
639.18        68.68412
639.61        68.19098
640.04        68.37821
640.47        68.30779
640.90        68.35568
641.33        68.48936
641.76        68.65427
642.18         68.7364
642.61        68.67298
643.04         68.5087
643.47         68.3361
643.90        68.28344
644.33        68.37167
644.76        68.64884
645.18        68.97655
645.61        68.93697
646.04        68.43756
646.47        68.34155
646.90        68.58934
647.33        68.62476
647.75        68.42341
648.18        68.33129
648.61        68.38961
649.04         68.4521
649.47        68.51786
649.89        68.78281
650.32        69.10774
650.75        69.03793
651.18        68.70126
651.61        68.68819
652.03         69.0676
652.46        69.53431
652.89        69.76781
653.32        69.68334
653.74        69.55625
654.17        68.44186
654.60        68.19851
655.03         70.1648
655.46        68.10815
655.88        68.96432
656.31        71.27087
656.74        71.65086
657.16        70.73104
657.59        68.84866
658.02        68.48622
658.45        69.55096
658.87        69.52758
659.30        69.00671
659.73        69.46116
660.15        70.17751
660.58         69.6909
661.01         69.6633
661.44        69.52628
661.86        68.95913
662.29         68.1921
662.72        68.34121
663.14        69.25884
663.57        69.35191
664.00        68.69294
664.42        68.57455
664.85        69.02859
665.27        69.29671
665.70        69.31716
666.13        69.26217
666.55        69.36469
666.98        69.35135
667.41        69.29855
667.83        69.21662
668.26        69.10657
668.69        68.98154
669.11        68.89093
669.54         68.8814
669.96         68.9519
670.39        69.18023
670.82        69.46109
671.24        69.39408
671.67        69.05042
672.09         69.0107
672.52        69.26907
672.94        69.42378
673.37        68.93532
673.80        69.30732
674.22        69.02476
674.65         69.1834
675.07        69.36587
675.50        69.53693
675.92        69.65953
676.35        69.72958
676.77        69.75031
677.20        69.67353
677.62        69.54583
678.05        69.46842
678.47         69.4586
678.90        69.49574
679.32        69.53518
679.75         69.5168
680.17        69.42342
680.60        69.29143
681.02        69.16522
681.45        69.11081
681.87        69.14599
682.30        69.25031
682.72        69.40543
683.15        69.47443
683.57        69.49033
684.00        69.61995
684.42        69.81482
684.85        69.90952
685.27        69.89795
685.70        69.74423
686.12        69.56393
686.54        69.85938
686.97         70.4837
687.39        70.71719
687.82        70.48979
688.24        70.37941
688.66        70.39201
689.09        70.17326
689.51        69.78401
689.94        69.52692
690.36        69.44272
690.78        69.40936
691.21        69.42757
691.63        69.60654
692.06        69.87539
692.48        70.00629
692.90        69.98848
693.33        70.01006
693.75        70.07146
694.17        70.02188
694.60        69.91943
695.02        69.90414
695.44        69.98042
695.87        70.25117
696.29        70.59466
696.71        70.42564
697.14        69.88657
697.56        69.82704
697.98        70.21313
698.41        70.34628
698.83        70.20587
699.25        70.15677
699.68        70.16436
700.10        70.37873
700.52        70.20015
700.94        70.15972
701.37        70.08198
701.79        69.99211
702.21        69.88866
702.64         69.7825
703.06        69.71373
703.48        69.74331
703.90        69.88268
704.33        70.12509
704.75        70.37558
705.17        70.54599
705.59        70.57889
706.01        70.50098
706.44        70.38273
706.86        70.32093
707.28        70.33662
707.70        70.47286
708.12        70.66724
708.55        70.64398
708.97        70.46138
709.39         70.5259
709.81        70.82783
710.23        71.01243
710.66        71.04926
711.08        71.16071
711.50        71.32555
711.92        71.44416
712.34        71.51075
712.76        71.55029
713.19        71.54711
713.61        71.52495
714.03        71.47386
714.45        71.39987
714.87        71.32857
715.29         71.2972
715.71        71.31145
716.13        71.35921
716.56        71.40404
716.98        71.47278
717.40        71.52655
717.82        71.56647
718.24        71.58406
718.66        71.56821
719.08        71.51954
719.50        71.44083
719.92         71.3505
720.34        71.27935
720.76        71.23651
721.19        71.20898
721.61         71.1989
722.03        71.17916
722.45        71.14389
722.87        71.10153
723.29        71.06199
723.71        71.03945
724.13        71.03952
724.55        71.05952
724.97        71.09387
725.39        71.13291
725.81        71.17455
726.23        71.22094
726.65        71.27708
727.07        71.35475
727.49        71.44833
727.91        71.53793
728.33        71.61424
728.75        71.66328
729.17        71.67953
729.59        71.68074
730.01        71.63819
730.43        71.50451
730.85        71.29312
731.27        71.03269
731.69        70.82958
732.10        70.85069
732.52        71.12141
732.94        71.58876
733.36         72.1237
733.78         72.4974
734.20        72.63344
734.62        72.57065
735.04        72.40913
735.46        72.36304
735.88         72.4499
736.30        72.49689
736.72        72.48306
737.13        72.47976
737.55        72.42474
737.97        72.35933
738.39        72.27811
738.81          71.955
739.23        71.53017
739.65        71.65654
740.06        72.18484
740.48        72.34564
740.90        72.07624
741.32        71.81086
741.74        71.64846
742.16        71.58286
742.57          71.665
742.99        71.79591
743.41        71.94856
743.83        72.25234
744.25         72.5963
744.67        72.56355
745.08        72.24435
745.50        72.16512
745.92        72.37988
746.34        72.58862
746.75        72.73597
747.17        72.84653
747.59        72.89201
748.01        72.92574
748.42        72.95785
748.84        72.82985
749.26        72.63163
749.68        72.69659
750.09        72.93653
750.51         72.9694
750.93        72.76228
751.35        72.52775
751.76        72.36357
752.18        72.32896
752.60        72.44885
753.01        72.70945
753.43        72.98427
753.85        73.09576
754.27        73.01518
754.68        72.82814
755.10        72.62003
755.52        72.53039
755.93        72.56944
756.35        72.65091
756.77        72.81555
757.18        73.02509
757.60        73.24951
758.02        73.83359
758.43        74.47025
758.85        73.96654
759.26        72.66616
759.68         72.2447
760.10        72.77232
760.51        73.31338
760.93        73.68398
761.34        73.54465
761.76        73.52792
762.18        73.46214
762.59        73.52946
763.01          73.029
763.42        72.30163
763.84        71.97385
764.26        72.18841
764.67         72.4892
765.09        72.79865
765.50         73.3182
765.92        73.96366
766.33        73.86761
766.75        73.93845
767.16        73.79269
767.58        73.73351
768.00        73.36075
768.41        72.84502
768.83        72.97155
769.24        73.55292
769.66        73.56423
770.07        73.06374
770.49        72.92728
770.90        73.21825
771.32        73.60887
771.73        73.97128
772.15        74.05376
772.56        73.82151
772.97        73.66956
773.39        73.22927
773.80        73.20191
774.22        73.45405
774.63        73.97214
775.05        74.51205
775.46        74.76712
775.88         74.6274
776.29        74.23788
776.70        73.74859
777.12        73.42068
777.53        73.34074
777.95        73.41343
778.36        73.61009
778.77        73.80978
779.19        73.94951
779.60         74.2727
780.02        74.66426
780.43        74.53951
780.84         74.0632
781.26        74.24175
781.67         74.9923
782.09        75.29671
782.50        75.10686
782.91        75.01334
783.33        75.00906
783.74        74.82888
784.15        74.48324
784.57        74.08128
784.98        73.73225
785.39        73.60013
785.81        73.72636
786.22         74.0486
786.63        74.48287
787.04        74.89572
787.46        75.23349
787.87        75.49546
788.28        75.68664
788.70        75.81874
789.11        75.89005
789.52        75.90536
789.93        75.86707
790.35        75.78178
790.76        75.67697
791.17        75.56606
791.58        75.49958
792.00        75.50572
792.41         75.6021
792.82        75.83004
793.23         76.1271
793.65        76.19222
794.06        76.09674
794.47        76.30405
794.88        76.67905
795.29        76.65689
795.71        76.18536
796.12        75.58846
796.53        75.08352
796.94        74.95932
797.35        75.31542
797.76        76.06353
798.18        76.91722
798.59        77.45415
799.00        77.52618
799.41        77.25212
799.82        76.79388
800.23        76.43814
800.64        76.29045
801.06        76.24118
801.47        76.28831
801.88        76.35086
802.29        76.39118
802.70        76.43504
803.11        76.48621
803.52        76.52982
803.93        76.57347
804.34        76.62727
804.75        76.64426
805.17        76.61251
805.58        76.57594
805.99        76.34321
806.40        76.07442
806.81        76.46488
807.22        77.33776
807.63        77.60853
808.04        77.27381
808.45        77.25082
808.86        77.57334
809.27        77.67303
809.68        77.50915
810.09        77.33062
810.50        77.16193
810.91        76.93422
811.32        76.74276
811.73        76.73699
812.14        76.93721
812.55        77.32187
812.96          77.739
813.37        77.89438
813.78        77.71641
814.19        77.30449
814.60        76.83503
815.01        76.56035
815.42        76.54041
815.83        76.70193
816.24         76.9576
816.65        77.13701
817.05        77.17105
817.46        77.07644
817.87        76.93526
818.28        76.80491
818.69        76.71397
819.10        76.65244
819.51        76.61585
819.92        76.60491
820.33        76.62378
820.74        76.66853
821.14        76.78473
821.55        77.04971
821.96        77.45454
822.37        77.97137
822.78        78.46356
823.19        78.68613
823.60        78.56633
824.00        78.16934
824.41        77.64922
824.82        77.28683
825.23        77.15739
825.64        77.20011
826.04        77.32854
826.45        77.29893
826.86         77.0849
827.27         76.7756
827.68        76.48008
828.08         76.3808
828.49         76.4766
828.90        76.73586
829.31         77.1014
829.72        77.47935
830.12          77.853
830.53        78.15959
830.94        78.43182
831.35        78.67815
831.75        78.91566
832.16        79.05477
832.57        79.08991
832.97         78.9819
833.38        78.74342
833.79        78.44653
834.20        78.13753
834.60        77.85598
835.01        77.65491
835.42        77.49763
835.82        77.47729
836.23        77.66804
836.64        78.08363
837.04        78.72305
837.45        79.29109
837.86        79.46535
838.26         79.1684
838.67        78.50765
839.08        77.73944
839.48        77.24322
839.89        77.16179
840.29        77.37777
840.70        77.75343
841.11        78.07777
841.51        78.29726
841.92        78.43709
842.33        78.55118
842.73        78.70878
843.14         78.8732
843.54         79.0403
843.95        79.17403
844.35         79.2955
844.76        79.37684
845.17        79.40385
845.57        79.40123
845.98        79.36868
846.38        79.33099
846.79        79.29468
847.19        79.19334
847.60        78.86317
848.00         78.3257
848.41        77.65356
848.81        77.08667
849.22        76.97522
849.62         77.4127
850.03        78.24725
850.43        79.26517
850.84        79.86035
851.24        79.91269
851.65        79.46973
852.05        78.81161
852.46        78.35583
852.86        78.21529
853.27        78.33558
853.67        78.44483
854.07        78.38225
854.48        78.05532
854.88        77.55183
855.29         76.9836
855.69        76.80444
856.10        77.03275
856.50        77.64651
856.90        78.25784
857.31        78.33189
857.71        77.81586
858.12         76.8309
858.52        75.79864
858.92        75.36977
859.33        75.69539
859.73        76.61868
860.13        77.74261
860.54        78.42463
860.94        78.51633
861.34        78.11246
861.75         77.4175
862.15        76.85609
862.55        76.54548
862.96        76.39991
863.36        76.23051
863.76        75.77161
864.17        75.01634
864.57        74.11194
864.97        73.32899
865.38        73.00593
865.78        73.24304
866.18        73.91455
866.58        74.81056
866.99        75.48138
867.39        75.79942
867.79        75.84405
868.19        75.69875
868.60        75.49843
869.00        75.31006
869.40        75.06539
869.80        74.91879
870.21        75.13557
870.61        75.77907
871.01        76.73471
871.41        77.63969
871.81        77.90803
872.22        77.41625
872.62        76.34294
873.02        75.07383
873.42        74.26416
873.82        74.12318
874.22        74.50324
874.63        75.10695
875.03        75.46297
875.43        75.44919
875.83        75.19332
876.23        74.97981
876.63         75.2714
877.03        76.13081
877.44        77.31474
877.84        78.45036
878.24        78.84952
878.64        78.38184
879.04        77.33929
879.44        76.10986
879.84        75.24684
880.24        74.90552
880.64        74.90584
881.04        75.18961
881.44        75.65509
881.84        76.21552
882.24        76.91599
882.65        77.51529
883.05        77.72478
883.45        77.43419
883.85        76.76707
884.25        76.02692
884.65        75.70138
885.05        75.88803
885.45         76.3895
885.85        77.07716
886.25        77.71776
886.65        78.17147
887.05        78.53034
887.45        78.55318
887.85        77.85596
888.25        76.50752
888.65        74.73631
889.04        73.08951
889.44        72.35867
889.84        72.60854
890.24        73.66307
890.64        75.12354
891.04        76.12164
891.44        76.32044
891.84        75.97509
892.24        75.45446
892.64        75.28343
893.04        75.58608
893.44        76.17614
893.83        76.92175
894.23        77.52438
894.63        77.90302
895.03        78.15733
895.43        78.34793
895.83        78.55885
896.23        78.80292
896.63        78.99273
897.02        79.10066
897.42        79.16161
897.82        79.14856
898.22        79.11217
898.62         78.9389
899.01        78.44183
899.41        77.62723
899.81        76.59809
900.21        75.68417
900.61        75.37796
901.00        75.75925
901.40        76.67915
901.80        77.73761
902.20        78.26793
902.59        78.08166
902.99        77.35271
903.39        76.43941
903.79        75.89077
904.18        75.84506
904.58        76.17684
904.98        76.59087
905.38        76.64489
905.77        76.22914
906.17        75.49718
906.57        74.79323
906.96        74.67696
907.36        75.22357
907.76        76.27805
908.15        77.38776
908.55        77.67168
908.95        77.00335
909.34        75.65953
909.74        74.29156
910.14        73.76228
910.53        74.31008
910.93        75.61497
911.33        77.28436
911.72        78.70509
912.12        79.55954
912.52        80.01685
912.91        80.22086
913.31        80.39619
913.70        80.62079
914.10        80.75092
914.49        80.64382
914.89        80.10284
915.29        79.15819
915.68        77.96789
916.08        76.85088
916.47        76.13428
916.87        75.96459
917.26        76.21361
917.66        76.75825
918.05        77.40957
918.45        78.00449
918.84        78.61349
919.24        79.08506
919.64        79.32571
920.03        79.31971
920.42        79.05583
920.82        78.65981
921.21        78.25114
921.61        77.89761
922.00        77.59325
922.40        77.38309
922.79        77.41811
923.19        77.67591
923.58        78.14898
923.98        78.64204
924.37         78.8522
924.77        78.71364
925.16        78.30876
925.55        77.84074
925.95        77.65894
926.34        77.86736
926.74        78.33629
927.13        78.86774
927.52         79.1093
927.92        78.97817
928.31        78.57012
928.70        78.07192
929.10        77.76112
929.49        77.72561
929.89        77.85839
930.28        78.05104
930.67        78.03922
931.07        77.76242
931.46         77.3362
931.85        76.90932
932.24        76.69649
932.64        76.76142
933.03        77.06055
933.42        77.48512
933.82        77.82745
934.21        78.03734
934.60        78.09686
934.99        78.16464
935.39        78.48535
935.78        79.14687
936.17        80.03281
936.56        80.71809
936.96        80.55061
937.35        79.45665
937.74        77.73361
938.13        76.03548
938.53        75.18021
938.92        75.27612
939.31        76.15451
939.70         77.3522
940.09        77.97363
940.49        77.72333
940.88        76.87907
941.27        75.93092
941.66        75.61654
942.05        76.09573
942.44        77.16295
942.84         78.3179
943.23        78.76376
943.62         78.2231
944.01        76.97553
944.40        75.66914
944.79        75.23924
945.18        75.87628
945.57        77.31256
945.97         78.8634
946.36        79.59035
946.75        79.10728
947.14         77.7387
947.53        76.18025
947.92        75.47123
948.31        75.87351
948.70          77.117
949.09        78.58218
949.48         79.1649
949.87        78.55582
950.26        77.11858
950.65        75.60076
951.04        75.03125
951.43        75.61472
951.82        77.06574
952.21        78.68325
952.60        79.20593
952.99        78.29053
953.38         76.3729
953.77        74.35995
954.16        73.42559
954.55        73.81665
954.94        75.33047
955.33         77.2095
955.72        77.83974
956.11        76.72514
956.50        74.42102
956.89        72.24368
957.28        71.93319
957.66        73.82737
958.05        77.36479
958.44        81.33295
958.83        83.25256
959.22        82.32118
959.61        79.43297
960.00        76.05231
960.39        74.03382
960.78        73.73632
961.16        74.64898
961.55        76.05325
961.94        76.63301
962.33        75.94203
962.72        74.59988
963.11        73.17233
963.49        72.35301
963.88        72.32314
964.27        72.77402
964.66          73.628
965.04        74.85441
965.43        76.21436
965.82        77.71478
966.21        79.01052
966.60        79.46158
966.98        78.97499
967.37        77.84926
967.76        76.44927
968.15         75.2647
968.53         74.4269
968.92        73.73025
969.31        73.44505
969.69        74.07006
970.08        75.58085
970.47        77.98342
970.86        80.29165
971.24        80.79617
971.63         79.1429
972.02        75.91516
972.40        72.57573
972.79        71.39388
973.17        72.77358
973.56        75.91802
973.95        79.66318
974.33        81.80473
974.72        81.54029
975.11        79.63028
975.49        77.05442
975.88        75.61059
976.26        75.77903
976.65        76.92706
977.04        78.55419
977.42        79.77973
977.81        80.08494
978.19        79.89524
978.58        79.38448
978.96        78.67165
979.35        77.94842
979.74        77.19423
980.12        76.64845
980.51        76.70784
980.89        77.51249
981.28        78.75657
981.66        80.45481
982.05        82.29893
982.43         84.1959
982.82        86.10091
983.20        87.35771
983.59         86.7706
983.97        84.27419
984.35        80.32659
984.74        76.43678
985.12        74.67202
985.51        75.36003
985.89        78.06496
986.28        81.33304
986.66        83.05227
987.04        82.42667
987.43        80.07272
987.81        77.12289
988.20        75.85449
988.58        76.83587
988.96        79.39928
989.35        82.02878
989.73        82.54068
990.12        80.34774
990.50        76.32631
990.88        71.84052
991.27          69.069
991.65        68.59895
992.03         69.8177
992.42        71.91833
992.80        73.95697
993.18         75.4636
993.56        76.75803
993.95         77.8013
994.33         78.6459
994.71        79.19492
995.10         79.3504
995.48        79.19699
995.86        79.05464
996.24        79.02372
996.63        78.97073
997.01        79.05508
997.39        79.28575
997.77        79.62861
998.15        80.14117
998.54        80.51722
998.92        80.27382
999.30         79.3404
999.68        77.85569
1000.06        76.40989
1000.45        76.06525
1000.83        77.18166
1001.21        79.41325
1001.59         82.0744
1001.97        84.03281
1002.35        84.90448
1002.73        84.95888
1003.12        84.49745
1003.50        83.93712
1003.88        83.53142
1004.26        83.22428
1004.64        83.00741
1005.02        82.90221
1005.40        82.91274
1005.78        83.00888
1006.16        83.38413
1006.54         84.3067
1006.92        85.77975
1007.30         87.7772
1007.69         89.6134
1008.07        90.05827
1008.45        88.60207
1008.83        85.55348
1009.21        82.04377
1009.59        80.01835
1009.97        80.02168
1010.35        81.51878
1010.73        83.64668
1011.11         84.9124
1011.49        84.85827
1011.86        84.07177
1012.24        82.72581
1012.62        81.26662
1013.00         79.8699
1013.38        78.25333
1013.76        76.73403
1014.14        76.10412
1014.52        76.54928
1014.90        77.91128
1015.28        79.34966
1015.66        79.43806
1016.04        77.89333
1016.41        75.25066
1016.79        72.22597
1017.17        70.45452
1017.55        70.51318
1017.93        71.66445
1018.31         73.4958
1018.69        75.93524
1019.06        79.24159
1019.44        83.79922
1019.82        89.56277
1020.20        94.19157
1020.58        95.39478
1020.95        93.22466
1021.33        89.54185
1021.71        86.28476
1022.09         83.5853
1022.46         80.7439
1022.84         77.6368
1023.22        74.17777
1023.60        71.32462
1023.97        69.87399
1024.35        69.87032
1024.73        71.04272
