SpectraSmart Spectrum 2.9.0.0
--------- Device Information -----------
Spectrum Name :  反射率_0
Saving Time :  2024/04/30 00:24:23
Spectro-Module Model Name : SE2030-DUVN
Spectro-Module Serial Number : OS361AC55029948
Wavelength Start : 200
Wavelength End : 1025
Wavelength Unit : Wavelength(nm)
Spectrum Unit : Reflectance(%)
-----------Spectrum Setting ------------
Integration Time : 20ms
Average : 10
Boxcar : 0
Background removal :  enabled
linearity correction :  enabled
SC :  disabled
Intensity correction :  disabled
DWT denoise :  enabled
savitzky-golay :  disabled
FFT :  disabled
Running average :  disabled
Kalman :  disabled
High pass :  disabled
---------------BEGIN--------------------
Wavelength(nm)             Reflectance(%)
200.29               0
200.75        62.01345
201.21        54.05753
201.67        46.40205
202.13         40.2698
202.58        36.46792
203.04        34.68597
203.50        36.81997
203.96        46.58537
204.42        63.63991
204.88        85.18411
205.34        101.6081
205.80        100.6992
206.26        86.07996
206.72        67.37408
207.18        51.47387
207.64        41.98402
208.10        37.60477
208.55        35.77652
209.01        36.26381
209.47        39.30334
209.93        43.64571
210.39        48.73548
210.85        52.23803
211.31        52.02765
211.77        47.85286
212.23        38.75316
212.69        26.06501
213.14        20.05066
213.60        25.77225
214.06        37.67448
214.52        48.31538
214.98        52.90886
215.44        52.38545
215.90        48.81054
216.36        44.35345
216.81        43.06382
217.27        47.16195
217.73        56.25855
218.19        69.91333
218.65        81.86699
219.11        85.92203
219.57        83.29704
220.02        77.90627
220.48        73.12844
220.94        68.50613
221.40        62.65739
221.86        54.67752
222.32        46.40671
222.77        41.15657
223.23        39.53484
223.69        39.79633
224.15        40.42689
224.61        41.13072
225.06        42.10703
225.52        43.54527
225.98        45.06177
226.44        46.20241
226.90        46.80524
227.36        47.01157
227.81        47.05495
228.27        47.02195
228.73        46.82408
229.19        46.48662
229.65        46.10343
230.10         45.7703
230.56        45.62267
231.02        45.47042
231.48        45.11583
231.93        44.48407
232.39        43.69209
232.85        42.97144
233.31        42.84048
233.77        43.45152
234.22        44.79562
234.68        46.34301
235.14         47.1208
235.60        46.93999
236.05        46.10405
236.51        45.52485
236.97        46.46846
237.43        49.36747
237.88        54.45273
238.34        61.19669
238.80        67.35099
239.26        70.72366
239.71        71.34173
240.17        70.19245
240.63        69.53403
241.08        70.33058
241.54         72.2934
242.00        75.93237
242.46        80.50778
242.91         84.2216
243.37        86.04458
243.83        86.88763
244.28        88.63458
244.74        91.71506
245.20        95.44056
245.66        99.17275
246.11         101.334
246.57        100.9445
247.03        99.32584
247.48        95.58115
247.94        88.72027
248.40        81.65018
248.85         75.6904
249.31         73.1757
249.77        74.72702
250.22        80.51432
250.68        92.22122
251.14        109.8417
251.59        119.7574
252.05        112.4332
252.51        98.42541
252.96        87.64755
253.42        83.94128
253.88        84.98248
254.33        88.63762
254.79        93.05765
255.25        93.90276
255.70        90.76099
256.16        87.01561
256.62         84.0624
257.07         82.5294
257.53        82.55453
257.99        83.23678
258.44         83.8116
258.90        84.10485
259.35        83.53432
259.81         82.8315
260.27        82.03143
260.72        81.18705
261.18        80.56477
261.63        79.73283
262.09        78.74039
262.55        77.21106
263.00        75.18504
263.46        73.17802
263.91        71.22449
264.37         69.7695
264.83        68.68546
265.28        67.77122
265.74        67.08109
266.19        66.41396
266.65        65.80888
267.11        65.23261
267.56        64.60624
268.02        63.84841
268.47        62.88665
268.93        61.74612
269.38        60.44629
269.84        59.16956
270.30        57.98117
270.75        56.86007
271.21        55.79966
271.66        54.69257
272.12        53.52129
272.57        52.28285
273.03        51.03941
273.48        49.79185
273.94        48.64025
274.39        47.53529
274.85        46.54508
275.31        45.64119
275.76        44.78648
276.22        44.02806
276.67        43.30431
277.13        42.66178
277.58        42.03261
278.04        41.45318
278.49        40.85307
278.95        40.26244
279.40        39.62683
279.86        39.03318
280.31        38.42471
280.77        37.86534
281.22        37.32184
281.68        36.82819
282.13        36.40818
282.59         36.1727
283.04        36.07979
283.50        36.09551
283.95        36.07423
284.41        35.82855
284.86        35.32232
285.32        34.68999
285.77        34.02407
286.22        33.54356
286.68        33.30988
287.13         33.2132
287.59        33.24993
288.04        33.34319
288.50        33.47123
288.95        33.60622
289.41        33.71244
289.86        33.67712
290.32        33.52649
290.77        33.30186
291.22        33.07566
291.68        32.95955
292.13        32.99259
292.59        33.18712
293.04        33.60113
293.50        34.35818
293.95        35.44672
294.40        36.83289
294.86        38.34766
295.31        39.73071
295.77        40.90908
296.22        41.93406
296.68        42.94392
297.13        44.13917
297.58        45.57716
298.04        47.15604
298.49        48.77632
298.95        50.30161
299.40         51.6815
299.85         52.9786
300.31        54.24772
300.76        55.48398
301.21        56.74632
301.67         58.0617
302.12        59.42707
302.58        60.99012
303.03        62.72511
303.48        64.53308
303.94        66.38873
304.39        68.53709
304.84        70.38947
305.30        72.40833
305.75        74.32481
306.20        76.06781
306.66        77.63787
307.11        78.99895
307.57            80.3
308.02         81.6397
308.47        83.09018
308.93        84.62791
309.38        86.13835
309.83        87.51794
310.29        88.74213
310.74        89.83589
311.19        90.84113
311.65        91.80696
312.10        92.73849
312.55        93.63791
313.00        94.55958
313.46        95.59357
313.91        96.72694
314.36        97.93099
314.82        99.10896
315.27        100.1318
315.72        100.9345
316.18        101.5529
316.63        102.0054
317.08        102.3429
317.53        102.6157
317.99        102.8547
318.44        103.0899
318.89         103.384
319.35        103.7536
319.80        104.1779
320.25        104.7066
320.70        105.4109
321.16         106.242
321.61        107.2098
322.06        108.0772
322.51        108.4797
322.97        108.3418
323.42        107.7878
323.87        107.1058
324.32        106.7822
324.78        106.9282
325.23        107.4869
325.68        108.2249
326.13        108.7343
326.59        108.8748
327.04        108.8073
327.49        108.7189
327.94         108.965
328.39        109.6175
328.85        110.4852
329.30        111.4171
329.75        111.9531
330.20        111.9709
330.66        111.6221
331.11        111.1346
331.56         110.793
332.01        110.7316
332.46        110.8752
332.92        111.2098
333.37        111.8672
333.82        112.7659
334.27        113.8825
334.72        115.0379
335.17        115.9225
335.63        116.4144
336.08        116.6348
336.53        116.6566
336.98        116.7035
337.43        116.8674
337.88        117.0921
338.34        117.3949
338.79        117.8243
339.24        118.3647
339.69        119.0283
340.14         119.709
340.59        120.2051
341.05        120.4813
341.50        120.6024
341.95        120.6709
342.40        120.8834
342.85        121.2845
343.30        121.7773
343.75         122.334
344.20        122.9073
344.66        123.4729
345.11        124.0707
345.56        124.5492
346.01         124.657
346.46        124.3919
346.91        123.8324
347.36        123.3451
347.81        123.4924
348.26        124.3471
348.72        125.7037
349.17        127.1449
349.62        127.8845
350.07        127.7249
350.52        126.9497
350.97        125.9435
351.42        125.2902
351.87        125.1678
352.32        125.3848
352.77        125.8481
353.22        126.4182
353.67        126.9794
354.13        127.5373
354.58        127.9543
355.03        127.9908
355.48        127.5954
355.93        126.8294
356.38        125.7976
356.83        124.6824
357.28        123.5764
357.73        122.4721
358.18        121.4488
358.63        120.6131
359.08        119.9742
359.53        119.5094
359.98        119.1138
360.43        118.6017
360.88        117.9255
361.33        117.1369
361.78        116.2867
362.23        115.4664
362.68        114.7083
363.13        113.9743
363.58        113.2842
364.03        112.6725
364.48        112.1302
364.93        111.6496
365.38        111.1532
365.83        110.5157
366.28        109.7178
366.73        108.7976
367.18        107.8479
367.63        107.0156
368.08        106.3308
368.53        105.7487
368.98         105.202
369.43        104.5729
369.88        103.8479
370.33        103.1019
370.78        102.3733
371.23        101.7249
371.68        101.1762
372.13         100.662
372.58        100.2546
373.03        100.0744
373.48        100.0951
373.93        100.2707
374.38        100.3132
374.83        99.76138
375.28         98.5724
375.72         96.9103
376.17        95.26228
376.62        94.17547
377.07        93.75587
377.52         93.8096
377.97        94.07929
378.42        94.13592
378.87         93.8402
379.32        93.33505
379.77        92.70774
380.22        92.07645
380.67        91.48343
381.11        90.86745
381.56         90.2599
382.01        89.75305
382.46        89.37151
382.91        89.12045
383.36        88.91376
383.81         88.5985
384.26        88.14362
384.71          87.586
385.15        87.01717
385.60        86.64676
386.05        86.48376
386.50        86.45695
386.95        86.43466
387.40        86.22343
387.85        85.78977
388.29        85.15588
388.74        84.54485
389.19         84.0369
389.64         83.6573
390.09        83.35142
390.54        83.07072
390.98        82.76476
391.43        82.46857
391.88        82.10136
392.33        81.67998
392.78        81.50449
393.23        81.48033
393.67        80.95405
394.12        80.10822
394.57        80.10683
395.02        79.80596
395.47        79.83934
395.91        79.81056
396.36        79.73623
396.81        79.59867
397.26        79.41583
397.71        79.18976
398.15        78.85416
398.60        78.51118
399.05        78.13841
399.50        77.78823
399.95        77.61057
400.39        77.34494
400.84        77.54092
401.29         77.9268
401.74         77.9502
402.18        77.51373
402.63        76.78062
403.08        76.03976
403.53        75.69411
403.97        75.81196
404.42        76.23002
404.87         76.6794
405.32        76.75552
405.76        76.36066
406.21        75.67348
406.66        74.90009
407.11        74.40971
407.55        74.32845
408.00        74.38744
408.45        74.52438
408.90        74.96377
409.34        75.46413
409.79         75.2514
410.24        74.53703
410.68        74.33296
411.13        74.70631
411.58        75.10255
412.03        75.34113
412.47        75.36797
412.92         75.1014
413.37        74.62241
413.81         74.0477
414.26         73.6216
414.71        73.36896
415.15        73.24168
415.60        73.20244
416.05        73.23266
416.49        73.31506
416.94        73.46636
417.39        73.60735
417.83        73.58517
418.28        73.38696
418.73        73.04984
419.17         72.7205
419.62        72.65536
420.07         72.8692
420.51        73.24458
420.96        73.64588
421.41         73.7298
421.85        73.40924
422.30        73.12506
422.74        72.84597
423.19        72.09603
423.64        71.13345
424.08        71.14536
424.53        72.02416
424.98        72.45302
425.42        72.27538
425.87        72.51423
426.31         73.0462
426.76         72.5034
427.21        71.05652
427.65        71.13773
428.10         72.3923
428.54        72.19529
428.99        70.77817
429.44        70.26122
429.88        70.70338
430.33        71.06089
430.77        71.15724
431.22        71.48961
431.66        71.92245
432.11        71.64702
432.56        70.76948
433.00        70.52298
433.45         71.2159
433.89        70.91253
434.34        71.27344
434.78        72.98381
435.23        70.98138
435.67        70.36958
436.12        69.84905
436.57        69.89516
437.01        70.33615
437.46        70.67242
437.90        70.85807
438.35         70.5413
438.79        71.39446
439.24        71.47272
439.68        71.32237
440.13        71.30914
440.57        71.45197
441.02        71.54056
441.46        71.53546
441.91        71.51784
442.35        71.41772
442.80        71.57812
443.24        71.82293
443.69        71.47411
444.13        70.68939
444.58         70.3342
445.02        70.40857
445.47        70.52085
445.91        70.57327
446.36        70.61329
446.80        70.59229
447.24        70.52726
447.69        70.44775
448.13         70.3736
448.58        70.33521
449.02        70.29876
449.47        70.30309
449.91        70.37289
450.36        70.51667
450.80        70.70585
451.25        70.88809
451.69        70.94501
452.13        70.85989
452.58        70.69548
453.02        70.51646
453.47        70.37688
453.91        70.27523
454.36        70.42516
454.80        70.50748
455.24         70.3702
455.69        70.58112
456.13        70.46217
456.58        70.36807
457.02         69.5914
457.46         69.8133
457.91        69.78248
458.35        69.84908
458.79        69.78493
459.24        69.60574
459.68        69.42897
460.13        69.30914
460.57        69.08221
461.01        69.28357
461.46         69.1449
461.90        68.94228
462.34        69.45876
462.79        69.36332
463.23         69.1625
463.68        68.58767
464.12        68.25912
464.56        68.22259
465.01        68.18575
465.45        68.07393
465.89        68.01942
466.34        68.03609
466.78        68.02464
467.22        68.16775
467.67        68.05329
468.11        67.77118
468.55        67.42014
468.99         67.0882
469.44        66.82096
469.88         66.6478
470.32        66.59805
470.77        66.60426
471.21        66.56152
471.65        66.43278
472.10        66.26506
472.54        66.12652
472.98        66.13357
473.42        66.28962
473.87        66.62675
474.31        66.99088
474.75        66.97115
475.20        66.62672
475.64        66.51707
476.08        66.68092
476.52        66.49223
476.97        65.90781
477.41        66.00156
477.85         65.9036
478.29        65.17982
478.74        65.84649
479.18        65.75883
479.62        65.60643
480.06        65.59609
480.50        65.75925
480.95        65.53966
481.39        65.99537
481.83        65.49498
482.27         66.1568
482.72        66.07973
483.16        66.14409
483.60        66.14433
484.04        66.13663
484.48        66.25113
484.93        66.51395
485.37        66.02219
485.81        65.14684
486.25        65.52767
486.69         67.5519
487.14        66.56371
487.58        65.49999
488.02        65.19832
488.46        65.97097
488.90        65.81583
489.34        65.14133
489.79        65.51591
490.23        64.73126
490.67        64.91792
491.11        65.22002
491.55         65.0222
491.99         64.4093
492.43         64.2009
492.88        64.46169
493.32        64.76075
493.76        64.98241
494.20        65.15361
494.64        65.23356
495.08        65.20113
495.52        65.10762
495.96        65.05158
496.41        65.05821
496.85        65.09776
497.29        65.09219
497.73        65.03107
498.17        64.68261
498.61        64.41319
499.05        64.24142
499.49        64.11646
499.93        64.00719
500.37        64.06266
500.82        64.32442
501.26        64.02119
501.70        64.32531
502.14        64.65501
502.58        64.59278
503.02         64.6822
503.46        64.70248
503.90        64.66038
504.34        64.57611
504.78        64.54049
505.22        64.56681
505.66        64.63374
506.10        64.70514
506.54        64.71105
506.98        64.63343
507.42         64.6887
507.86        64.26106
508.30        64.46966
508.74        63.98123
509.18        63.76726
509.62        63.55953
510.06        63.52743
510.50        63.68538
510.94        63.99459
511.38        64.34024
511.82        64.49546
512.26        64.40718
512.70        64.14134
513.14        63.81248
513.58        63.60005
514.02        63.55552
514.46        63.62727
514.90        63.75148
515.34        63.82612
515.78        63.81678
516.22        63.75399
516.66        63.68049
517.10        63.65675
517.54        63.69389
517.98        63.76745
518.42        63.81986
518.86         63.7655
519.30        63.59352
519.74        63.34044
520.18        63.08971
520.62          62.964
521.06        62.99476
521.50        63.15353
521.93        63.37037
522.37        63.50653
522.81        63.53114
523.25        63.47181
523.69        63.40233
524.13        63.43979
524.57        63.60118
525.01        63.83983
525.45        64.05729
525.89        64.09808
526.32        63.92437
526.76        63.61817
527.20        63.28053
527.64        63.06895
528.08         63.0233
528.52        63.09117
528.96        63.21875
529.40        63.31947
529.83        63.35684
530.27        63.36842
530.71        63.34889
531.15        63.29427
531.59        63.21159
532.03        63.09624
532.46        62.97425
532.90        62.91758
533.34        62.93233
533.78        63.00624
534.22        63.09813
534.66        63.14067
535.09        63.11404
535.53        63.05108
535.97        62.98258
536.41        62.97096
536.85        63.02267
537.28        63.12066
537.72        63.23013
538.16        63.24795
538.60        63.14847
539.04        63.13906
539.47        62.91974
539.91        62.80669
540.35        62.71112
540.79        62.64085
541.22         62.5905
541.66        62.56948
542.10        62.57494
542.54         62.6048
542.97        62.65755
543.41        62.74533
543.85        62.85478
544.29        62.99232
544.72        63.09382
545.16        63.09677
545.60        62.99112
546.04        62.77111
546.47        62.54087
546.91        62.56681
547.35        62.83516
547.79        63.08088
548.22        63.19424
548.66        63.34553
549.10        63.51616
549.53        63.40186
549.97        62.94955
550.41         63.3798
550.84        62.82028
551.28        62.68302
551.72        62.41952
552.15        62.60912
552.59        62.46752
553.03        62.58143
553.46        62.68308
553.90        62.74141
554.34        62.72542
554.77        62.66424
555.21        62.58921
555.65        62.49324
556.08        62.40811
556.52        62.42156
556.96        62.50636
557.39        62.62474
557.83        62.74866
558.27        62.75747
558.70        62.69534
559.14        62.77166
559.57         62.9394
560.01        63.05373
560.45        63.09389
560.88        62.90955
561.32        62.85664
561.75        62.84701
562.19        62.94498
562.63        62.81784
563.06        62.52251
563.50        62.49335
563.93        62.67562
564.37        62.73436
564.80        62.63869
565.24        62.59249
565.68        62.59529
566.11        62.62163
566.55        62.67768
566.98        62.63354
567.42        62.58287
567.85        62.65628
568.29        62.82102
568.72        62.98048
569.16        63.34199
569.60        62.78552
570.03        63.26967
570.47        63.39782
570.90        63.58688
571.34        63.25707
571.77        63.61719
572.21         63.7065
572.64        63.80989
573.08        63.83084
573.51        63.34999
573.95        63.58263
574.38        64.12836
574.82        63.92726
575.25        64.03535
575.69        63.91539
576.12         63.4679
576.56        62.96023
576.99        63.42249
577.42         63.2932
577.86        63.23359
578.29        63.37389
578.73        64.24801
579.16        63.71705
579.60        63.45793
580.03        63.52092
580.47        63.94087
580.90        63.83102
581.33        63.23057
581.77        63.68177
582.20        64.20427
582.64        64.23733
583.07        63.78004
583.51        63.26848
583.94        63.08438
584.37        62.80209
584.81        62.72242
585.24        63.09533
585.68        63.94022
586.11        64.64762
586.54        63.24624
586.98         63.1023
587.41         63.3965
587.85        64.08631
588.28        64.14656
588.71        64.06401
589.15        63.68618
589.58        63.45372
590.01        62.78997
590.45        62.72216
590.88        63.10513
591.31        63.36712
591.75        63.20379
592.18        63.55055
592.61        63.83152
593.05         62.3777
593.48        63.53903
593.91        64.07353
594.35        62.96878
594.78        62.68953
595.21        62.52171
595.65        63.24506
596.08        62.81751
596.51        62.88926
596.94        63.07764
597.38        63.11555
597.81        62.99269
598.24        63.13782
598.68        62.96552
599.11        62.73281
599.54        63.58652
599.97        64.06012
600.41        62.48016
600.84        62.98127
601.27        62.83772
601.70        62.99308
602.14        63.21357
602.57        62.88833
603.00        62.36184
603.43         62.3239
603.87        62.59999
604.30        62.94722
604.73         62.7558
605.16        62.67271
605.60        62.56498
606.03        62.77461
606.46        63.13294
606.89        63.13695
607.32        62.81205
607.76        62.67458
608.19        62.79924
608.62        62.78137
609.05        62.65395
609.48        62.75651
609.92        62.86457
610.35        62.75103
610.78        63.18534
611.21        62.49883
611.64        62.37721
612.07        62.91275
612.50        62.76396
612.94        63.00346
613.37        63.14522
613.80        62.84259
614.23        63.08127
614.66        63.02577
615.09        62.98324
615.52        63.01456
615.96        63.07391
616.39        62.91247
616.82        62.51377
617.25        62.53024
617.68        61.90915
618.11        62.18608
618.54        62.83115
618.97        62.89109
619.40        62.38752
619.84        62.20715
620.27        62.42515
620.70        62.59264
621.13        62.40783
621.56        62.36789
621.99         62.3592
622.42        62.19072
622.85        62.46683
623.28        62.17374
623.71        62.81156
624.14        61.99422
624.57        62.38166
625.00         62.2163
625.43        62.17984
625.86        62.09041
626.29        62.07426
626.72        62.08448
627.15        62.12711
627.58        62.26305
628.01        62.43175
628.44        62.40024
628.87        62.20757
629.30        62.19178
629.73        62.35251
630.16        62.38284
630.59        62.26649
631.02        62.32917
631.45        62.29079
631.88        62.28364
632.31        62.21796
632.74        62.16651
633.17         62.0635
633.60        61.96812
634.03        61.87045
634.46        61.76399
634.89        61.66993
635.32        61.63307
635.75         61.6581
636.18        61.72065
636.61        61.79937
637.04        61.87154
637.47        61.93762
637.89        61.96387
638.32        61.90742
638.75        61.88897
639.18        61.94301
639.61         61.4377
640.04        61.53211
640.47        61.41213
640.90        61.42776
641.33        61.54311
641.76        61.70728
642.18        61.81282
642.61        61.79848
643.04         61.7048
643.47        61.60659
643.90        61.60531
644.33        61.71561
644.76        61.98101
645.18        62.27958
645.61        62.24384
646.04        61.79078
646.47        61.69238
646.90        61.89801
647.33        61.91029
647.75        61.71427
648.18        61.63198
648.61        61.67926
649.04        61.71268
649.47         61.7322
649.89        61.83916
650.32        61.96653
650.75        61.97893
651.18        61.90985
651.61         61.8765
652.03         61.9364
652.46        62.13854
652.89        62.32034
653.32        62.26188
653.74        62.13305
654.17        61.56808
654.60        61.34253
655.03        62.60569
655.46        61.29668
655.88         62.6654
656.31        66.20839
656.74        67.98602
657.16         66.9836
657.59        64.06717
658.02         62.2706
658.45        62.71605
658.87        62.34911
659.30         62.5862
659.73         62.5924
660.15         63.2635
660.58        62.62194
661.01         62.5508
661.44        62.48315
661.86        62.12056
662.29        61.58748
662.72        61.65641
663.14        62.21483
663.57         62.1058
664.00        61.44689
664.42        61.26982
664.85        61.61682
665.27        61.88047
665.70        61.96552
666.13        62.03782
666.55        62.08214
666.98        62.03805
667.41        61.94798
667.83        61.88639
668.26        61.86465
668.69        61.87182
669.11        61.90357
669.54        61.93228
669.96        61.94627
670.39        62.01839
670.82        62.11539
671.24        62.03291
671.67        61.82895
672.09        61.86459
672.52         62.1142
672.94        62.28839
673.37        61.89081
673.80        62.23096
674.22        61.94248
674.65        62.00221
675.07        62.05684
675.50        62.13504
675.92        62.21878
676.35        62.26996
676.77        62.29478
677.20        62.28265
677.62        62.25465
678.05         62.2465
678.47        62.26182
678.90        62.29338
679.32         62.3169
679.75         62.3066
680.17        62.25317
680.60        62.17785
681.02        62.10172
681.45        62.05944
681.87        62.06289
682.30        62.09458
682.72        62.16113
683.15        62.20123
683.57         62.2448
684.00        62.37768
684.42        62.55049
684.85        62.65981
685.27        62.69735
685.70        62.58019
686.12        62.41725
686.54        62.72966
686.97        63.36498
687.39         63.5601
687.82        63.26435
688.24        63.12011
688.66        63.14095
689.09        62.93985
689.51        62.57343
689.94        62.33865
690.36        62.27171
690.78        62.27768
691.21        62.33477
691.63        62.46642
692.06        62.61978
692.48        62.68148
692.90        62.66488
693.33        62.69456
693.75        62.77871
694.17        62.83205
694.60        62.83636
695.02         62.8091
695.44        62.74793
695.87         62.6841
696.29        62.64569
696.71        62.57406
697.14        62.51827
697.56        62.62342
697.98        62.85015
698.41        62.99194
698.83        63.01694
699.25        63.04115
699.68        63.03955
700.10        62.97992
700.52        62.85462
700.94        62.68203
701.37        62.50478
701.79        62.41061
702.21         62.4095
702.64        62.49193
703.06        62.61015
703.48        62.69288
703.90        62.72421
704.33        62.73688
704.75        62.73244
705.17         62.7819
705.59        62.87866
706.01        63.00027
706.44        63.13194
706.86        63.25407
707.28        63.35105
707.70        63.44013
708.12        63.51977
708.55        63.55099
708.97        63.54647
709.39        63.55641
709.81        63.59494
710.23        63.65706
710.66        63.73961
711.08        63.87131
711.50        64.01608
711.92        64.13348
712.34        64.21261
712.76        64.26266
713.19        64.27129
713.61        64.26314
714.03         64.2284
714.45        64.16865
714.87        64.10822
715.29        64.08273
715.71        64.09706
716.13        64.14233
716.56        64.17604
716.98        64.20437
717.40        64.19262
717.82         64.1508
718.24        64.09412
718.66         64.0477
719.08        64.01893
719.50        63.99815
719.92         63.9814
720.34        63.96264
720.76        63.93876
721.19        63.90724
721.61        63.87569
722.03        63.83014
722.45        63.77113
722.87        63.70229
723.29        63.63823
723.71        63.60262
724.13         63.6013
724.55        63.62895
724.97        63.67342
725.39        63.71145
725.81        63.73918
726.23         63.7681
726.65        63.80375
727.07        63.85783
727.49        63.92998
727.91        64.00152
728.33        64.08408
728.75        64.19796
729.17        64.33913
729.59        64.50799
730.01        64.63714
730.43        64.61838
730.85        64.44437
731.27        64.15498
731.69        63.87993
732.10        63.82278
732.52        64.02353
732.94        64.42686
733.36        64.89189
733.78        65.17336
734.20        65.19518
734.62         65.0008
735.04        64.73121
735.46        64.65712
735.88        64.80087
736.30        64.97885
736.72        65.09852
737.13        65.10711
737.55        64.94064
737.97        64.69055
738.39        64.44714
738.81        64.16747
739.23        63.97681
739.65        64.30246
740.06        64.92905
740.48        65.16229
740.90        64.92177
741.32        64.56057
741.74         64.2186
742.16        64.02054
742.57         64.0473
742.99        64.16675
743.41        64.34271
743.83        64.67449
744.25        65.04781
744.67         65.0984
745.08        64.87407
745.50        64.79052
745.92        64.89047
746.34        64.92051
746.75        64.88032
747.17        64.88665
747.59        64.93948
748.01        65.01248
748.42         65.0838
748.84         65.0882
749.26        65.02393
749.68        64.91286
750.09        64.77656
750.51        64.67793
750.93         64.6226
751.35        64.60267
751.76        64.61081
752.18        64.62634
752.60        64.64234
753.01        64.67096
753.43        64.70477
753.85        64.75778
754.27        64.84023
754.68        64.97057
755.10        65.10954
755.52        65.19656
755.93        65.20257
756.35         65.1206
756.77        65.07049
757.18        65.16061
757.60        65.39791
758.02        65.99384
758.43        66.65683
758.85        66.34874
759.26        65.28389
759.68        64.91359
760.10        65.30949
760.51         65.4165
760.93         65.2207
761.34        65.44176
761.76          65.923
762.18        65.99387
762.59        65.63225
763.01        65.09712
763.42         64.6101
763.84        64.38003
764.26        64.49098
764.67        64.79748
765.09        65.20129
765.50        65.63678
765.92        65.98807
766.33        66.00886
766.75        65.68848
767.16        65.52498
767.58        65.54955
768.00        65.42344
768.41        65.19574
768.83        65.32259
769.24        65.66502
769.66        65.58468
770.07        65.16031
770.49         64.9978
770.90        65.16903
771.32        65.52155
771.73        65.92301
772.15        66.02961
772.56        65.79807
772.97        65.62937
773.39        65.20931
773.80        65.17389
774.22        65.41087
774.63        65.89479
775.05        66.40646
775.46         66.6805
775.88        66.60834
776.29        66.30493
776.70        65.88769
777.12        65.56662
777.53         65.4266
777.95        65.40601
778.36        65.47723
778.77        65.58344
779.19        65.69669
779.60        65.86111
780.02        66.05414
780.43        66.30454
780.84        66.59756
781.26        66.79425
781.67        66.88633
782.09        67.13564
782.50        67.50716
782.91        67.13211
783.33        66.99412
783.74        66.65691
784.15        66.44751
784.57        66.18923
784.98        65.94468
785.39        65.86739
785.81        65.97043
786.22        66.21893
786.63        66.56243
787.04        66.91544
787.46        67.23871
787.87        67.51608
788.28         67.7398
788.70        67.90034
789.11        67.98598
789.52        68.00952
789.93        67.95855
790.35        67.81419
790.76        67.60321
791.17        67.35033
791.58         67.1381
792.00        67.04631
792.41        67.10683
792.82        67.35833
793.23        67.71933
793.65        67.84396
794.06        67.78773
794.47        68.02918
794.88         68.4468
795.29        68.48866
795.71        68.10799
796.12        67.62379
796.53        67.20857
796.94        67.06673
797.35        67.28319
797.76        67.80212
798.18        68.42167
798.59          68.848
799.00         68.9699
799.41        68.87241
799.82        68.65051
800.23        68.47594
800.64        68.41116
801.06        68.37064
801.47        68.38465
801.88        68.43372
802.29        68.50141
802.70        68.60204
803.11        68.69116
803.52        68.67886
803.93        68.55373
804.34        68.34403
804.75         68.1089
805.17        67.96753
805.58        67.98341
805.99        68.04868
806.40         68.1475
806.81        68.40445
807.22        68.72584
807.63        68.76901
808.04         68.5823
808.45        68.55862
808.86        68.73531
809.27        68.90228
809.68        68.98215
810.09        68.95455
810.50        68.80611
810.91        68.54317
811.32        68.30593
811.73        68.31646
812.14        68.61273
812.55        69.13451
812.96        69.68698
813.37        69.90788
813.78         69.7078
814.19         69.2231
814.60        68.65881
815.01        68.30522
815.42        68.23603
815.83        68.35741
816.24        68.61768
816.65         68.9072
817.05        69.15794
817.46        69.37303
817.87        69.51813
818.28        69.48727
818.69        69.27934
819.10         68.9091
819.51         68.5118
819.92        68.35339
820.33        68.50396
820.74         68.8801
821.14        69.33584
821.55        69.64468
821.96         69.7344
822.37        69.68063
822.78        69.52097
823.19        69.33485
823.60        69.16633
824.00        68.97296
824.41        68.80701
824.82        68.78939
825.23         68.9256
825.64        69.20545
826.04        69.48899
826.45        69.44665
826.86        69.04565
827.27        68.39488
827.68        67.72946
828.08        67.44579
828.49        67.59943
828.90        68.10694
829.31        68.81625
829.72        69.45354
830.12        69.93132
830.53        70.23782
830.94        70.43408
831.35        70.58961
831.75        70.74193
832.16        70.77689
832.57        70.69412
832.97        70.47681
833.38        70.15405
833.79        69.82381
834.20        69.50997
834.60        69.20682
835.01        68.96046
835.42        68.73967
835.82        68.70563
836.23        69.05602
836.64        69.81456
837.04        70.93233
837.45          71.978
837.86        72.38132
838.26        72.00085
838.67        71.02026
839.08         69.8465
839.48        69.10043
839.89        68.99075
840.29        69.33241
840.70        69.91282
841.11        70.39195
841.51        70.67307
841.92        70.83633
842.33        70.95377
842.73        71.11918
843.14         71.3107
843.54         71.4907
843.95        71.64183
844.35        71.82355
844.76        72.00713
845.17        72.16853
845.57        72.26971
845.98        72.20756
846.38        71.98937
846.79        71.66241
847.19        71.24273
847.60        70.71762
848.00        70.15139
848.41        69.57356
848.81        69.16475
849.22        69.17895
849.62        69.67757
850.03        70.54807
850.43           71.58
850.84        72.19441
851.24        72.27424
851.65        71.85592
852.05        71.23303
852.46        70.86108
852.86        70.84769
853.27        71.10405
853.67        71.33315
854.07         71.3161
854.48        70.96194
854.88        70.37708
855.29        69.68429
855.69        69.33581
856.10        69.38565
856.50        69.80413
856.90        70.27541
857.31        70.36065
857.71        70.01096
858.12        69.32489
858.52        68.59955
858.92        68.27615
859.33        68.45762
859.73        69.04777
860.13        69.78339
860.54        70.24951
860.94        70.36439
861.34        70.16604
861.75        69.78398
862.15        69.49803
862.55        69.36289
862.96        69.31654
863.36        69.19207
863.76        68.75382
864.17        68.01071
864.57        67.11508
864.97        66.29952
865.38          65.858
865.78        65.88389
866.18        66.24574
866.58        66.86598
866.99        67.54656
867.39         68.1997
867.79         68.8383
868.19        69.26057
868.60        69.17789
869.00        68.58943
869.40        67.55439
869.80        66.53533
870.21         66.3291
870.61        67.14714
871.01         68.7189
871.41        70.40881
871.81        71.19946
872.22        70.83707
872.62        69.61099
873.02        68.07078
873.42         67.1442
873.82        67.10287
874.22        67.68417
874.63        68.43886
875.03        68.67652
875.43        68.24162
875.83        67.38271
876.23        66.52335
876.63        66.34277
877.03        66.98904
877.44        68.15273
877.84        69.45898
878.24        70.20961
878.64        70.21825
879.04        69.75883
879.44        69.05979
879.84        68.44781
880.24         68.0464
880.64        67.72311
881.04        67.60448
881.44        67.90678
881.84        68.63201
882.24        69.75897
882.65        70.85545
883.05        71.27829
883.45        70.81895
883.85        69.69477
884.25        68.44099
884.65        67.88297
885.05        68.18076
885.45        69.04311
885.85        70.08295
886.25        70.63392
886.65        70.47145
887.05        69.84991
887.45        68.88831
887.85        67.79221
888.25        66.76128
888.65        65.79633
889.04        65.10178
889.44        65.02299
889.84        65.53822
890.24        66.58298
890.64        67.90232
891.04        68.89461
891.44        69.30111
891.84        69.26507
892.24        68.98427
892.64        68.77663
893.04        68.73605
893.44        68.74069
893.83        68.84733
894.23        69.08784
894.63        69.46524
895.03        69.99261
895.43        70.47488
895.83         70.5943
896.23        70.29823
896.63        69.64732
897.02        68.90488
897.42        68.58241
897.82        68.77293
898.22        69.36466
898.62        70.00253
899.01        70.10144
899.41         69.5252
899.81        68.47939
900.21        67.39438
900.61        66.92376
901.00        67.20333
901.40         68.0272
901.80        68.97632
902.20        69.36465
902.59        69.02069
902.99        68.17779
903.39        67.22179
903.79        66.72095
904.18        66.81479
904.58        67.33477
904.98        68.00774
905.38        68.43363
905.77        68.46644
906.17        68.21194
906.57        67.86308
906.96        67.74582
907.36        67.90407
907.76        68.27413
908.15        68.57796
908.55         68.2484
908.95        67.28082
909.34        65.88948
909.74        64.67673
910.14        64.41374
910.53        65.27679
910.93        66.95375
911.33        68.98505
911.72        70.64391
912.12        71.58245
912.52        71.97813
912.91        71.99883
913.31        71.94795
913.70        71.94938
914.10        71.86572
914.49        71.60777
914.89         71.0423
915.29        70.20746
915.68        69.24198
916.08        68.40188
916.47        67.91796
916.87        67.89339
917.26        68.20006
917.66        68.72888
918.05         69.3149
918.45        69.81455
918.84        70.30227
919.24        70.60374
919.64         70.5825
920.03        70.23995
920.42        69.59832
920.82        68.91294
921.21        68.49088
921.61        68.42301
922.00        68.65054
922.40        69.02175
922.79        69.34369
923.19        69.50166
923.58        69.56429
923.98        69.56249
924.37        69.55901
924.77        69.56698
925.16        69.56606
925.55         69.5223
925.95        69.39719
926.34        69.21558
926.74        68.99426
927.13        68.80587
927.52        68.72305
927.92         68.7677
928.31        68.89046
928.70        69.04774
929.10        69.15563
929.49         69.1779
929.89        69.10368
930.28        68.94732
930.67        68.67126
931.07        68.29822
931.46        67.88963
931.85         67.4949
932.24        67.18185
932.64        66.99738
933.03          66.953
933.42        67.09152
933.82         67.4584
934.21         68.0346
934.60        68.69777
934.99        69.38987
935.39        70.00774
935.78        70.53786
936.17        70.98777
936.56        71.06443
936.96        70.35252
937.35        68.91079
937.74        66.98972
938.13        65.28279
938.53        64.66914
938.92        65.24339
939.31        66.81249
939.70        68.78016
940.09        69.95527
940.49        69.90808
940.88        68.96526
941.27        67.72256
941.66        67.08576
942.05         67.2821
942.44        68.09026
942.84         69.0172
943.23        69.26305
943.62        68.57854
944.01        67.25414
944.40        66.00474
944.79        65.85125
945.18        66.96494
945.57        69.02809
945.97        71.15553
946.36        72.04865
946.75        71.24744
947.14        69.20257
947.53        66.84512
947.92        65.57636
948.31        65.75495
948.70        67.00232
949.09        68.64019
949.48        69.43693
949.87        69.01339
950.26         67.7978
950.65        66.44334
951.04        65.83034
951.43        66.16694
951.82        67.19314
952.21        68.42473
952.60        69.01192
952.99        68.68565
953.38        67.70509
953.77        66.68127
954.16        66.42105
954.55        67.08794
954.94         68.5471
955.33        70.12578
955.72        70.42352
956.11        69.04337
956.50        66.49236
956.89        63.99964
957.28        63.14776
957.66        64.24189
958.05        66.81047
958.44        69.81483
958.83        71.13358
959.22        70.11634
959.61        67.54168
960.00         64.6894
960.39        63.18616
960.78        63.32955
961.16        64.65109
961.55        66.45304
961.94        67.39217
962.33        66.98222
962.72        65.79193
963.11          64.392
963.49        63.51963
963.88        63.37112
964.27        63.65082
964.66        64.29862
965.04        65.29498
965.43        66.44329
965.82         67.7833
966.21        68.99451
966.60        69.46338
966.98        69.09601
967.37        68.13711
967.76        66.96706
968.15        66.11238
968.53        65.69032
968.92        65.48965
969.31        65.62379
969.69        66.29735
970.08        67.42084
970.47        69.06441
970.86        70.52396
971.24        70.58469
971.63        69.04977
972.02        66.38473
972.40         63.7654
972.79        63.03002
973.17        64.49306
973.56        67.45758
973.95        70.99081
974.33        73.28815
974.72        73.62479
975.11        72.59007
975.49        70.81783
975.88        69.57997
976.26        69.23025
976.65        69.31287
977.04        69.65101
977.42        69.96647
977.81        69.99034
978.19        69.98711
978.58        69.94601
978.96        69.66985
979.35        69.21778
979.74        68.63963
980.12        68.16145
980.51        68.16308
980.89        68.77322
981.28        69.66959
981.66        70.86227
982.05        72.08855
982.43         73.3001
982.82        74.52738
983.20         75.2364
983.59        74.43921
983.97        72.12083
984.35        68.67402
984.74        65.48915
985.12        64.49587
985.51         65.9279
985.89        69.31855
986.28        73.14946
986.66         75.2099
987.04        74.67456
987.43         72.1988
987.81        68.89204
988.20        67.03869
988.58        67.27345
988.96        69.00452
989.35        70.97865
989.73        71.39549
990.12        69.74866
990.50        66.79092
990.88        63.59862
991.27        61.85275
991.65        61.96466
992.03        63.41697
992.42        65.51624
992.80        67.53572
993.18        69.07097
993.56         70.3439
993.95        71.29959
994.33        71.96715
994.71        72.26253
995.10        72.16338
995.48        71.73199
995.86        71.19507
996.24        70.65943
996.63        70.03909
997.01        69.63257
997.39        69.73394
997.77        70.36573
998.15        71.45135
998.54        72.50822
998.92        72.78882
999.30        72.13261
999.68         70.7563
1000.06        69.19005
1000.45        68.42505
1000.83        68.83469
1001.21         70.0732
1001.59        71.76605
1001.97        73.28485
1002.35        74.33381
1002.73        75.07561
1003.12        75.34244
1003.50        74.78165
1003.88        73.49353
1004.26        71.65128
1004.64        69.77151
1005.02        68.79715
1005.40        68.95335
1005.78        69.86639
1006.16        71.23354
1006.54        72.63969
1006.92        73.91787
1007.30        75.24295
1007.69        76.16994
1008.07        75.90151
1008.45        74.21108
1008.83        71.32558
1009.21        68.27586
1009.59        66.83008
1009.97        67.44292
1010.35        69.59254
1010.73        72.48317
1011.11        74.72065
1011.49        75.77341
1011.86        76.08949
1012.24        75.55798
1012.62        74.22644
1013.00        72.19849
1013.38        69.32294
1013.76        66.17061
1014.14        64.10739
1014.52        63.69279
1014.90        64.79896
1015.28        66.56213
1015.66        67.42135
1016.04        66.98637
1016.41        65.73672
1016.79        64.28942
1017.17        63.91098
1017.55        64.83654
1017.93        66.30408
1018.31        67.92331
1018.69        69.59904
1019.06        71.54535
1019.44        74.02335
1019.82        76.93888
1020.20        78.86506
1020.58        78.61206
1020.95        76.30523
1021.33        73.40756
1021.71        71.28569
1022.09        69.96591
1022.46        69.08862
1022.84        68.17668
1023.22        65.60762
1023.60        61.66385
1023.97        57.66076
1024.35        55.08786
1024.73        55.15187
