SpectraSmart Spectrum 2.9.0.0
--------- Device Information -----------
Spectrum Name :  反射率_0
Saving Time :  2024/04/30 00:00:13
Spectro-Module Model Name : SE2030-DUVN
Spectro-Module Serial Number : OS361AC55029948
Wavelength Start : 200
Wavelength End : 1025
Wavelength Unit : Wavelength(nm)
Spectrum Unit : Reflectance(%)
-----------Spectrum Setting ------------
Integration Time : 20ms
Average : 10
Boxcar : 0
Background removal :  enabled
linearity correction :  enabled
SC :  disabled
Intensity correction :  disabled
DWT denoise :  enabled
savitzky-golay :  disabled
FFT :  disabled
Running average :  disabled
Kalman :  disabled
High pass :  disabled
---------------BEGIN--------------------
Wavelength(nm)             Reflectance(%)
200.29               0
200.75        98.55997
201.21        80.42079
201.67        61.33076
202.13        48.65984
202.58        45.88418
203.04        51.51545
203.50         64.6136
203.96        81.80237
204.42        99.16926
204.88        115.7159
205.34        124.4777
205.80        118.0195
206.26        101.2163
206.72        81.65752
207.18        65.46418
207.64        55.67564
208.10        50.82422
208.55        48.84835
209.01        49.07955
209.47        50.93027
209.93        53.57071
210.39        57.03113
210.85         59.9448
211.31         61.3495
211.77         61.3192
212.23        59.24886
212.69        56.46642
213.14        58.29682
213.60         64.9993
214.06        73.54573
214.52        79.08369
214.98         78.4085
215.44        72.45679
215.90        62.35182
216.36         51.6438
216.81        47.51812
217.27        53.60872
217.73        70.44832
218.19        95.55198
218.65         112.607
219.11        110.8731
219.57        96.86792
220.02        82.19321
220.48        75.08743
220.94          74.473
221.40        77.61853
221.86         81.7807
222.32        79.88848
222.77        71.15653
223.23        62.28827
223.69        55.47219
224.15        50.56881
224.61        46.66033
225.06         42.6605
225.52        39.77871
225.98        40.64658
226.44          44.811
226.90        50.10778
227.36         54.1212
227.81        55.24371
228.27        53.89013
228.73        50.61266
229.19        46.62576
229.65        44.72475
230.10        45.54785
230.56        47.69867
231.02        49.72527
231.48        50.41537
231.93        49.65898
232.39        48.01117
232.85        45.83617
233.31        43.88244
233.77         42.4883
234.22         41.5345
234.68        40.73279
235.14        39.65559
235.60        38.35886
236.05        37.22123
236.51        36.76433
236.97        37.54887
237.43        39.79538
237.88        43.71173
238.34        49.14807
238.80        55.04028
239.26        59.78073
239.71        62.89658
240.17        64.35129
240.63        65.30828
241.08        66.50681
241.54        67.66129
242.00        69.05604
242.46        70.83816
242.91        72.91572
243.37        74.85728
243.83        76.90405
244.28        79.60741
244.74        83.22542
245.20          87.689
245.66        92.94295
246.11        98.27807
246.57        102.8842
247.03         107.674
247.48        110.3624
247.94        106.4406
248.40        98.37289
248.85        89.52169
249.31        84.39449
249.77        84.65717
250.22        90.26405
250.68        102.3312
251.14        120.6532
251.59        130.5442
252.05        121.7842
252.51        106.0694
252.96        93.30164
253.42        86.59197
253.88        83.37328
254.33        81.60532
254.79        80.40296
255.25        78.33926
255.70        75.53749
256.16        73.33598
256.62        71.95625
257.07        71.32604
257.53        71.52992
257.99        72.07533
258.44        72.05226
258.90        71.09731
259.35        69.04265
259.81        66.81337
260.27        64.90374
260.72        63.73996
261.18        63.33274
261.63        63.07804
262.09         62.6415
262.55        61.27079
263.00        59.03297
263.46        56.59564
263.91        54.23241
264.37        52.53635
264.83        51.42503
265.28        50.60888
265.74        50.08046
266.19        49.61492
266.65        49.20158
267.11        48.84583
267.56        48.42632
268.02        47.76327
268.47        46.80196
268.93        45.58976
269.38        44.25545
269.84        43.16885
270.30        42.42006
270.75        41.91343
271.21        41.49875
271.66        40.90215
272.12        40.05827
272.57        39.02593
273.03        37.92434
273.48        36.85667
273.94        35.94161
274.39        35.11663
274.85        34.40042
275.31        33.73614
275.76        33.08821
276.22         32.4968
276.67        31.95832
277.13        31.56064
277.58        31.24597
278.04        31.01083
278.49        30.71635
278.95         30.2655
279.40        29.61062
279.86        28.87736
280.31        28.12443
280.77        27.55917
281.22        27.18678
281.68        26.97595
282.13        26.87495
282.59        26.85923
283.04        26.87709
283.50        26.93146
283.95        26.94593
284.41        26.81517
284.86        26.52453
285.32        26.15716
285.77        25.76325
286.22        25.49201
286.68        25.38514
287.13        25.35615
287.59         25.4235
288.04        25.55394
288.50        25.73125
288.95        25.92692
289.41        26.07173
289.86         26.0183
290.32        25.78892
290.77        25.44704
291.22        25.11841
291.68        24.99808
292.13        25.13786
292.59         25.5081
293.04        26.10603
293.50        26.95247
293.95        28.02283
294.40        29.32111
294.86        30.71588
295.31        32.00877
295.77        33.14948
296.22         34.1669
296.68         35.2153
297.13        36.52257
297.58        38.13996
298.04        39.96141
298.49        41.82338
298.95        43.47984
299.40        44.87156
299.85         46.0964
300.31        47.29592
300.76        48.61023
301.21        50.11637
301.67        51.77663
302.12        53.51684
302.58        55.37229
303.03        57.29454
303.48        59.22059
303.94        61.13245
304.39        63.34798
304.84        65.20232
305.30        67.21323
305.75        69.15553
306.20        71.06563
306.66        72.94171
307.11        74.71538
307.57        76.39716
308.02        77.88797
308.47        79.23175
308.93        80.46939
309.38         81.6391
309.83        82.87675
310.29        84.20623
310.74        85.57283
311.19        86.88013
311.65        87.96297
312.10        88.78136
312.55        89.41875
313.00        90.02977
313.46        90.85637
313.91        91.93224
314.36        93.17603
314.82        94.44939
315.27         95.5598
315.72        96.41312
316.18        97.06287
316.63        97.52705
317.08        97.85057
317.53        98.08659
317.99        98.26672
318.44        98.42284
318.89        98.62456
319.35        98.89957
319.80        99.23357
320.25        99.70651
320.70        100.4336
321.16        101.3749
321.61        102.5265
322.06        103.6103
322.51         104.187
322.97         104.155
323.42        103.6489
323.87        102.9886
324.32        102.7168
324.78        102.9588
325.23        103.6356
325.68        104.4839
326.13        105.0458
326.59        105.1688
327.04        105.0347
327.49        104.8611
327.94        105.0462
328.39        105.6819
328.85        106.5755
329.30        107.5643
329.75        108.1738
330.20        108.2703
330.66        107.9984
331.11        107.6013
331.56        107.3896
332.01        107.4992
332.46        107.8532
332.92        108.3711
333.37         109.068
333.82        109.8432
334.27        110.6997
334.72        111.5923
335.17        112.4387
335.63        113.1678
336.08        113.8326
336.53         114.334
336.98         114.599
337.43        114.6405
337.88        114.4975
338.34        114.3437
338.79        114.4745
339.24         114.954
339.69        115.7297
340.14        116.6182
340.59         117.289
341.05        117.6584
341.50         117.826
341.95        117.9435
342.40        118.2776
342.85        118.8824
343.30        119.6283
343.75        120.4042
344.20        121.0411
344.66        121.4969
345.11        121.8572
345.56        122.0898
346.01        122.1303
346.46        122.0161
346.91        121.7644
347.36        121.6269
347.81        121.9913
348.26        122.8929
348.72        124.1851
349.17        125.5256
349.62        126.2552
350.07        126.2087
350.52        125.6109
350.97        124.8053
351.42        124.3206
351.87        124.3148
352.32        124.6252
352.77        125.1379
353.22        125.6759
353.67        126.1276
354.13        126.5065
354.58        126.7556
355.03        126.7667
355.48        126.5112
355.93         126.014
356.38        125.2705
356.83        124.2925
357.28        123.1411
357.73        121.8633
358.18        120.6449
358.63        119.7599
359.08        119.2521
359.53        119.0357
359.98        118.9124
360.43        118.5543
360.88        117.8719
361.33        116.9613
361.78        115.9316
362.23        114.9617
362.68        114.1185
363.13        113.3493
363.58        112.6428
364.03        111.9843
364.48        111.3589
364.93        110.7777
365.38        110.2274
365.83        109.6796
366.28        109.1213
366.73        108.5479
367.18        107.9434
367.63        107.2884
368.08          106.58
368.53        105.8285
368.98        105.0643
369.43        104.3335
369.88        103.6657
370.33        103.0743
370.78        102.5474
371.23        102.0646
371.68        101.6092
372.13        101.1506
372.58        100.7316
373.03        100.4228
373.48        100.2035
373.93        100.0377
374.38        99.74253
374.83         99.0356
375.28        97.91072
375.72        96.48321
376.17        95.10902
376.62        94.13517
377.07        93.63158
377.52        93.46958
377.97        93.49941
378.42        93.47427
378.87        93.29366
379.32        93.01637
379.77        92.64543
380.22        92.18326
380.67        91.63355
381.11        90.97602
381.56        90.24337
382.01        89.52761
382.46        88.88184
382.91        88.32977
383.36        87.84753
383.81        87.37527
384.26        86.90041
384.71        86.43159
385.15        86.02306
385.60         85.8198
386.05        85.79532
386.50        85.88219
386.95         85.9266
387.40        85.70022
387.85        85.18131
388.29        84.42725
388.74        83.68691
389.19        83.07768
389.64        82.63383
390.09        82.28011
390.54        82.02293
390.98        81.86064
391.43          81.804
391.88        81.83308
392.33        81.79844
392.78        81.54641
393.23        81.08181
393.67        80.33824
394.12        79.54082
394.57        79.44591
395.02        78.99229
395.47        79.24567
395.91        79.71148
396.36        79.90092
396.81        79.72488
397.26        79.41078
397.71        79.05834
398.15        78.65674
398.60        78.32732
399.05         78.1001
399.50        77.92988
399.95        77.62994
400.39        77.01318
400.84        77.14534
401.29        77.75144
401.74        77.79547
402.18        77.18533
402.63        76.45421
403.08        75.87605
403.53        75.61987
403.97        75.73431
404.42        76.13409
404.87         76.5891
405.32        76.69745
405.76        76.36204
406.21        75.85798
406.66        75.29505
407.11        74.66932
407.55        74.20554
408.00        74.18314
408.45         74.5645
408.90        75.19237
409.34        75.76383
409.79        75.60023
410.24        74.91263
410.68        74.74287
411.13        75.15816
411.58         75.5332
412.03         75.7123
412.47        75.74399
412.92        75.56004
413.37         75.2013
413.81        74.75158
414.26        74.41512
414.71        74.20578
415.15        74.08878
415.60        74.04272
416.05        74.07507
416.49        74.17694
416.94        74.35593
417.39         74.5228
417.83        74.51066
418.28        74.30332
418.73        73.94508
419.17        73.59607
419.62        73.53093
420.07         73.7761
420.51        74.21494
420.96        74.69518
421.41        74.86986
421.85        74.64269
422.30        74.38473
422.74        74.11141
423.19        73.54608
423.64        72.90456
424.08        73.08708
424.53        73.93453
424.98        74.37663
425.42        74.27567
425.87        74.27736
426.31          74.409
426.76        74.16454
427.21        73.52309
427.65        73.61581
428.10        74.16851
428.54        73.89391
428.99        72.97523
429.44        72.44551
429.88        72.45733
430.33        72.83619
430.77        73.34686
431.22        73.87873
431.66        74.25758
432.11        74.09593
432.56        73.53632
433.00        73.27599
433.45        73.55801
433.89        74.11577
434.34        74.31152
434.78        75.94357
435.23        73.77173
435.67        73.10196
436.12        72.74323
436.57        73.02504
437.01        73.77005
437.46         74.1758
437.90        74.20683
438.35        74.46475
438.79        74.93372
439.24        75.10065
439.68         74.9743
440.13        75.07755
440.57        75.41609
441.02        75.40073
441.46        74.93527
441.91        75.58241
442.35         74.8735
442.80        75.08755
443.24        75.37849
443.69        75.24158
444.13        74.73231
444.58        74.50816
445.02        74.54422
445.47         74.6136
445.91        74.70477
446.36         74.6618
446.80        74.39219
447.24        75.12894
447.69         74.7295
448.13        74.89027
448.58        74.99148
449.02        75.06995
449.47        75.13517
449.91         75.2018
450.36        75.30379
450.80        75.39677
451.25        75.48989
451.69        75.55522
452.13        75.59204
452.58        75.64086
453.02        75.68325
453.47        75.66415
453.91         75.5486
454.36        75.57525
454.80        75.43958
455.24        75.41555
455.69        75.38933
456.13        75.77084
456.58        75.86278
457.02        75.66563
457.46        75.12894
457.91        74.89397
458.35        74.91088
458.79        74.82273
459.24        74.69186
459.68        74.60122
460.13        74.53641
460.57        74.92588
461.01        74.95648
461.46        74.83907
461.90        74.90181
462.34        75.10435
462.79        75.32931
463.23        74.90123
463.68        73.99468
464.12        73.70329
464.56        73.98618
465.01        73.92117
465.45        73.48624
465.89        73.38512
466.34        73.60312
466.78        73.75458
467.22        73.79963
467.67        73.73591
468.11        73.58422
468.55        73.30614
468.99        72.97537
469.44        72.69784
469.88        72.50866
470.32         72.4012
470.77        72.36407
471.21        72.39659
471.65        72.46979
472.10        72.59414
472.54        72.72988
472.98        72.84634
473.42        72.92135
473.87        72.99058
474.31        73.01179
474.75        72.87186
475.20        72.60957
475.64        72.48656
476.08        72.55547
476.52         72.3569
476.97         71.8232
477.41        72.22169
477.85        72.06873
478.29        71.43739
478.74        72.31225
479.18        72.19366
479.62        71.85903
480.06        71.75535
480.50        71.92835
480.95        71.76643
481.39        72.13931
481.83        71.87672
482.27        71.96815
482.72         72.4446
483.16        72.39548
483.60        72.34632
484.04        72.62354
484.48        72.78406
484.93        72.81618
485.37         72.6124
485.81        71.59364
486.25        70.93518
486.69        71.94738
487.14        72.12489
487.58        71.16182
488.02        71.77361
488.46        72.47073
488.90        71.83324
489.34        71.46014
489.79        71.98332
490.23        71.44865
490.67         71.5392
491.11        71.47833
491.55        71.28867
491.99        71.00501
492.43         70.9024
492.88        71.00766
493.32        71.16334
493.76        71.31715
494.20        71.47266
494.64         71.6047
495.08        71.72203
495.52        71.77367
495.96        71.68962
496.41        71.53583
496.85        71.33693
497.29        71.09052
497.73        71.38012
498.17        71.32336
498.61        71.12874
499.05         70.6928
499.49        70.82167
499.93        71.33237
500.37        71.33098
500.82        70.95274
501.26        70.26047
501.70        70.91245
502.14        71.05398
502.58        71.11564
503.02        71.21684
503.46        71.34919
503.90        71.46082
504.34        71.51184
504.78        71.47642
505.22         71.3361
505.66        71.13995
506.10        70.96172
506.54         70.8359
506.98        70.76774
507.42        71.22015
507.86        70.94168
508.30        71.37784
508.74        70.86694
509.18        70.54806
509.62        70.18769
510.06        70.08321
510.50        70.28614
510.94        70.70983
511.38        71.19498
511.82        71.44063
512.26        71.36973
512.70        71.07652
513.14        70.69949
513.58        70.45113
514.02        70.39404
514.46        70.46254
514.90        70.58713
515.34        70.65985
515.78        70.64391
516.22        70.57686
516.66        70.50002
517.10        70.46783
517.54        70.49321
517.98        70.55523
518.42        70.60552
518.86        70.57377
519.30        70.45098
519.74        70.26543
520.18        70.09259
520.62         70.0437
521.06        70.14405
521.50        70.36611
521.93        70.63199
522.37        70.78915
522.81        70.80549
523.25        70.71047
523.69        70.59327
524.13        70.59549
524.57        70.74012
525.01        70.97681
525.45        71.19232
525.89        71.20548
526.32        70.97429
526.76        70.59476
527.20         70.1889
527.64        69.94465
528.08        69.90903
528.52        70.02042
528.96        70.20612
529.40        70.35086
529.83        70.40685
530.27        70.41425
530.71        70.38314
531.15        70.33525
531.59        70.28173
532.03        70.21208
532.46        70.12012
532.90        70.03152
533.34        69.94898
533.78        69.88071
534.22        69.84042
534.66        69.84212
535.09        69.88061
535.53        69.96505
535.97        70.06635
536.41        70.15437
536.85        70.21376
537.28        70.23631
537.72        70.23501
538.16        70.22863
538.60        70.21779
539.04        70.19985
539.47        70.13242
539.91        70.00839
540.35        69.81683
540.79        69.59161
541.22        69.38159
541.66         69.2747
542.10        69.28647
542.54        69.39148
542.97         69.5502
543.41        69.72005
543.85        69.86736
544.29        70.01322
544.72        70.10447
545.16        70.09911
545.60        69.99302
546.04        69.76925
546.47        69.52405
546.91         69.5297
547.35         69.7709
547.79        69.96111
548.22        70.01116
548.66        70.18121
549.10        70.38364
549.53        70.34608
549.97        69.98556
550.41        70.43492
550.84        69.97992
551.28        69.86566
551.72        69.58126
552.15        69.78616
552.59        69.59399
553.03        69.57581
553.46        69.49391
553.90         69.4966
554.34        69.56893
554.77        69.66172
555.21        69.75944
555.65        69.79292
556.08        69.76825
556.52        69.79985
556.96        69.87345
557.39        69.96959
557.83        70.07092
558.27        70.04067
558.70        69.92444
559.14        69.96402
559.57        70.11359
560.01        70.17568
560.45        70.14967
560.88        69.99271
561.32        70.04408
561.75        69.98399
562.19        69.91112
562.63        69.65321
563.06        69.31423
563.50        69.35325
563.93        69.67761
564.37        69.81506
564.80        69.72622
565.24        69.70323
565.68        69.73244
566.11        69.75338
566.55        69.77758
566.98        69.60381
567.42        69.39616
567.85        69.54858
568.29        69.95438
568.72        70.15193
569.16         70.2709
569.60        69.58975
570.03        70.24895
570.47        70.24269
570.90         70.1743
571.34        69.95947
571.77        70.14584
572.21        70.15916
572.64        70.09437
573.08        70.21056
573.51         70.0196
573.95        70.01998
574.38        70.26364
574.82        70.08005
575.25        69.99672
575.69        69.85073
576.12        69.63094
576.56        69.56978
576.99        69.91672
577.42        69.52391
577.86        69.72646
578.29        69.27059
578.73        69.91846
579.16        69.83891
579.60         69.8787
580.03        69.85107
580.47        70.24314
580.90        70.34051
581.33        69.45202
581.77        69.47669
582.20        69.88126
582.64         70.0332
583.07        69.69691
583.51         69.4139
583.94        69.41766
584.37        69.22711
584.81        69.06819
585.24        69.46613
585.68        69.82643
586.11        70.40577
586.54        69.68548
586.98        69.25594
587.41        69.78566
587.85        70.25345
588.28        70.21166
588.71        70.70628
589.15        69.74527
589.58        70.03098
590.01        69.34801
590.45        69.35072
590.88        69.59756
591.31        69.92326
591.75        70.00544
592.18        70.35645
592.61        70.35853
593.05        68.97837
593.48         69.7918
593.91        70.39845
594.35        69.40086
594.78        69.23708
595.21         69.1978
595.65        69.55346
596.08        69.27489
596.51        69.59616
596.94        69.92072
597.38        69.99544
597.81         69.6338
598.24        69.86792
598.68        69.56491
599.11        69.19173
599.54        69.76223
599.97        70.35964
600.41        68.79312
600.84         69.2241
601.27         69.3697
601.70        69.49249
602.14        70.06215
602.57        69.70187
603.00        68.92413
603.43        68.82471
603.87        69.22444
604.30        69.48903
604.73        69.29209
605.16        69.22703
605.60        69.21706
606.03         69.3884
606.46        69.60732
606.89        69.59586
607.32        69.33836
607.76        69.24897
608.19        69.42361
608.62        69.29726
609.05        68.88303
609.48        69.61737
609.92         69.6396
610.35        69.52077
610.78        69.82608
611.21        69.05401
611.64        69.15378
612.07        69.35986
612.50        69.40047
612.94        69.60425
613.37        69.79316
613.80        69.57797
614.23        69.90697
614.66        69.91615
615.09        69.89007
615.52        69.88139
615.96        69.84166
616.39        69.82013
616.82        69.15767
617.25        69.42427
617.68        69.13957
618.11        69.52621
618.54        69.99185
618.97        69.88796
619.40        69.32699
619.84        69.11739
620.27        69.35527
620.70        69.65256
621.13        69.89719
621.56        69.55376
621.99        69.36146
622.42        69.04977
622.85        69.50555
623.28        69.07683
623.71        69.87726
624.14        68.70788
624.57        69.56103
625.00        69.44566
625.43        69.39443
625.86        69.21672
626.29        68.92705
626.72        69.23767
627.15        68.95532
627.58        69.13406
628.01        69.32627
628.44        69.22263
628.87        68.94532
629.30        68.79687
629.73        69.44619
630.16        69.61131
630.59         69.4571
631.02        69.52161
631.45        69.51732
631.88        69.54449
632.31         69.5052
632.74        69.45411
633.17        69.38888
633.60          69.318
634.03        69.25217
634.46        69.17421
634.89         69.0932
635.32        69.05721
635.75        69.07204
636.18        69.02894
636.61        69.07858
637.04        69.10281
637.47        69.15018
637.89        69.20361
638.32          69.206
638.75        69.17968
639.18        69.13345
639.61        68.74369
640.04        68.68684
640.47        68.61477
640.90        68.73047
641.33        68.99147
641.76        69.28745
642.18        69.42464
642.61        69.32488
643.04        69.05566
643.47        68.75546
643.90        68.62466
644.33        68.70307
644.76        69.01239
645.18        69.39467
645.61        69.39894
646.04        68.92307
646.47        68.85368
646.90        69.11807
647.33        69.15077
647.75        68.92966
648.18        68.74435
648.61        68.68823
649.04        68.82069
649.47        69.08893
649.89        69.39856
650.32        69.59296
650.75        69.41069
651.18        69.00967
651.61        68.91095
652.03        69.17935
652.46        69.59993
652.89        69.87241
653.32        69.71599
653.74        69.31011
654.17        68.55953
654.60        68.05949
655.03        69.78542
655.46        68.01833
655.88        69.29408
656.31        69.99046
656.74        70.78078
657.16        71.15513
657.59        69.24632
658.02        68.66103
658.45        69.54385
658.87        69.12453
659.30        69.43756
659.73        69.78329
660.15        69.95134
660.58        69.92252
661.01        69.55681
661.44        69.05434
661.86        68.65235
662.29        68.47832
662.72        68.83251
663.14        69.49958
663.57        69.38654
664.00        68.64645
664.42        68.46395
664.85        68.89851
665.27        69.20791
665.70        69.29362
666.13        69.39656
666.55        69.50053
666.98        69.52187
667.41         69.4693
667.83        69.36243
668.26        69.20811
668.69        69.02302
669.11         68.8553
669.54        68.76766
669.96        68.77232
670.39        68.88779
670.82        69.05254
671.24        69.08533
671.67        68.98867
672.09        68.97836
672.52        69.07407
672.94        69.20257
673.37        68.82958
673.80        69.27084
674.22         68.9874
674.65        69.09109
675.07        69.17767
675.50         69.2993
675.92        69.42374
676.35        69.43793
676.77        69.33717
677.20        69.29829
677.62        69.06989
678.05         69.0489
678.47        69.36462
678.90        69.49979
679.32        69.46455
679.75        69.40246
680.17        69.30035
680.60        69.04263
681.02        68.74087
681.45        68.62968
681.87        68.74249
682.30        69.07414
682.72        69.50461
683.15        69.56516
683.57        69.32752
684.00        69.38042
684.42        69.68369
684.85        69.76717
685.27        69.63097
685.70        69.40665
686.12        69.22423
686.54        69.56659
686.97        70.26294
687.39        70.49887
687.82        70.19791
688.24         70.0623
688.66        70.05723
689.09        69.78426
689.51        69.32804
689.94        69.08693
690.36        69.09722
690.78        69.22352
691.21         69.4013
691.63         69.5517
692.06        69.63646
692.48        69.69171
692.90        69.71375
693.33        69.69151
693.75        69.62862
694.17        69.50578
694.60        69.38741
695.02         69.3456
695.44        69.38197
695.87        69.64808
696.29        70.01318
696.71        69.81622
697.14        69.22291
697.56        69.21037
697.98        69.73608
698.41        69.94853
698.83        69.81203
699.25        69.83241
699.68        69.98522
700.10         70.0395
700.52        69.96707
700.94        69.84789
701.37         69.7017
701.79        69.57787
702.21        69.48778
702.64        69.42619
703.06         69.3995
703.48        69.43197
703.90        69.52316
704.33        69.67525
704.75        69.82549
705.17        69.94003
705.59        69.97815
706.01        69.95347
706.44        69.89527
706.86        69.84719
707.28        69.82108
707.70        69.84235
708.12        69.90437
708.55         69.9033
708.97        69.87132
709.39        69.98743
709.81        70.23002
710.23          70.414
710.66        70.50775
711.08        70.62007
711.50        70.73761
711.92        70.83039
712.34        70.89902
712.76        70.95099
713.19         70.9559
713.61        70.91352
714.03        70.81178
714.45        70.66923
714.87        70.53875
715.29        70.49631
715.71        70.55283
716.13        70.68121
716.56        70.81441
716.98        70.92487
717.40        70.95768
717.82        70.93194
718.24        70.85928
718.66        70.76114
719.08        70.65268
719.50        70.52943
719.92        70.41614
720.34         70.3522
720.76        70.34648
721.19        70.38635
721.61        70.45639
722.03        70.49933
722.45        70.49816
722.87        70.45993
723.29        70.41065
723.71        70.39429
724.13        70.41875
724.55        70.47701
724.97        70.54642
725.39        70.52806
725.81        70.40601
726.23        70.32722
726.65        70.37087
727.07        70.06656
727.49        70.37688
727.91        70.49702
728.33        70.67718
728.75        70.83787
729.17        70.95858
729.59        71.05461
730.01         71.0725
730.43        70.95656
730.85        70.71609
731.27        70.37725
731.69        70.07826
732.10         70.0377
732.52        70.29657
732.94        70.79683
733.36        71.37125
733.78        71.74343
734.20        71.82461
734.62        71.60636
735.04        71.26111
735.46        71.24424
735.88        71.53111
736.30        71.62631
736.72        71.48012
737.13        71.40249
737.55        71.35676
737.97        71.20954
738.39        71.02409
738.81        70.87106
739.23        70.83136
739.65         71.1543
740.06        71.64729
740.48        71.81149
740.90          71.577
741.32        71.18597
741.74        70.79863
742.16        70.60865
742.57        70.69762
742.99        70.95757
743.41         71.2784
743.83        71.54633
744.25        71.67213
744.67        71.53938
745.08         71.2594
745.50         71.1545
745.92        71.28534
746.34        71.48215
746.75         71.6789
747.17        71.83323
747.59        71.91407
748.01        71.94251
748.42        71.93201
748.84        71.87384
749.26        71.79078
749.68        71.68253
750.09         71.5646
750.51        71.49939
750.93        71.48346
751.35        71.50856
751.76        71.56178
752.18         71.5966
752.60        71.59875
753.01        71.61273
753.43        71.63009
753.85        71.54696
754.27        71.57431
754.68        71.60088
755.10        71.67275
755.52        71.77157
755.93        71.85865
756.35        71.88334
756.77        71.96291
757.18        72.14805
757.60        72.42405
758.02         73.2029
758.43         74.0657
758.85        73.39452
759.26         71.6053
759.68        71.02544
760.10         71.7529
760.51        72.21292
760.93        72.22953
761.34        72.43192
761.76        72.70618
762.18        72.65611
762.59        72.32825
763.01        71.90895
763.42        71.55423
763.84        71.32349
764.26        71.28624
764.67        71.43962
765.09        71.74442
765.50        72.08443
765.92        72.39337
766.33        72.59267
766.75        72.59141
767.16        72.58978
767.58        72.56114
768.00        72.29902
768.41        71.91018
768.83        71.93877
769.24         72.2599
769.66        72.11482
770.07        71.60112
770.49        71.48524
770.90        71.81681
771.32        72.27032
771.73        72.70909
772.15        72.90097
772.56         72.7981
772.97        72.74813
773.39        72.36588
773.80        72.34553
774.22        72.55433
774.63        72.97118
775.05        73.39298
775.46        73.58742
775.88        73.46301
776.29        73.14451
776.70         72.7375
777.12         72.4354
777.53        72.29885
777.95        72.23529
778.36        72.26083
778.77        72.34496
779.19        72.46794
779.60        72.82875
780.02        73.23031
780.43        73.16946
780.84        72.77605
781.26        72.50182
781.67        72.52963
782.09        73.29846
782.50        74.43481
782.91        74.39656
783.33        73.30661
783.74         72.8667
784.15        73.17113
784.57        73.20082
784.98        72.92933
785.39        72.82405
785.81        72.90299
786.22        73.03297
786.63        73.22698
787.04        73.50675
787.46        73.85442
787.87        74.23759
788.28        74.59532
788.70        74.81931
789.11        74.87494
789.52         74.8101
789.93        74.65583
790.35        74.45963
790.76        74.27035
791.17        74.09093
791.58        73.97298
792.00        73.95595
792.41         74.0619
792.82        74.31462
793.23        74.65636
793.65        74.84666
794.06        74.91588
794.47        75.17732
794.88        75.52164
795.29        75.53766
795.71        75.17896
796.12        74.69097
796.53          74.238
796.94        74.05097
797.35        74.21753
797.76        74.67873
798.18        75.24173
798.59        75.62998
799.00        75.73254
799.41        75.62792
799.82        75.40817
800.23        75.23734
800.64        75.17505
801.06        75.14248
801.47        75.15513
801.88        75.16364
802.29        75.15075
802.70        75.13483
803.11        75.12878
803.52        75.14053
803.93        75.18191
804.34        75.25237
804.75        75.31764
805.17        75.37952
805.58        75.47127
805.99        75.39442
806.40        75.23402
806.81        75.57575
807.22        76.22604
807.63        76.12038
808.04        75.38187
808.45        75.15589
808.86        75.53968
809.27        75.91309
809.68        76.10308
810.09        76.12331
810.50        75.92832
810.91        75.51131
811.32        75.09848
811.73        75.05456
812.14        75.44944
812.55        76.18536
812.96        76.98367
813.37        77.32407
813.78        77.07229
814.19         76.4243
814.60        75.66026
815.01        75.17275
815.42        75.06359
815.83        75.20553
816.24        75.52597
816.65        75.87764
817.05        76.16824
817.46        76.40834
817.87         76.5608
818.28        76.50532
818.69        76.24368
819.10         75.7999
819.51        75.31377
819.92        75.06693
820.33        75.14357
820.74        75.45442
821.14        75.89204
821.55        76.28838
821.96        76.57015
822.37        76.79279
822.78        76.90083
823.19        76.80262
823.60         76.4967
824.00        75.99567
824.41        75.45757
824.82        75.17106
825.23        75.19322
825.64        75.47279
826.04        75.83871
826.45        75.88919
826.86        75.56215
827.27        74.98782
827.68        74.39285
828.08        74.15675
828.49        74.33163
828.90        74.83147
829.31        75.51448
829.72        76.13665
830.12         76.6215
830.53        76.94067
830.94        77.16692
831.35        77.37852
831.75        77.61783
832.16        77.77697
832.57        77.81116
832.97        77.62444
833.38        77.23062
833.79        76.73817
834.20         76.2765
834.60        75.99842
835.01        75.97298
835.42        76.12772
835.82        76.46353
836.23        76.90029
836.64        77.40269
837.04        78.00033
837.45        78.47205
837.86         78.6319
838.26        78.43533
838.67        77.93688
839.08        77.31847
839.48        76.84735
839.89        76.64786
840.29        76.66091
840.70        76.80225
841.11        76.94089
841.51        77.05366
841.92        77.13436
842.33        77.25272
842.73        77.50336
843.14        77.83691
843.54        78.24063
843.95        78.58234
844.35        78.72916
844.76        78.62389
845.17        78.28787
845.57        77.87285
845.98        77.59205
846.38        77.52587
846.79        77.63238
847.19        77.72739
847.60        77.44035
848.00        76.74816
848.41        75.80553
848.81        74.97025
849.22         74.7692
849.62        75.33469
850.03        76.44402
850.43        77.81091
850.84        78.70417
851.24        78.93819
851.65        78.59992
852.05        77.93822
852.46        77.32849
852.86        76.91683
853.27        76.68163
853.67        76.47363
854.07         76.2866
854.48        76.04697
854.88        75.80317
855.29        75.57654
855.69        75.61072
856.10        75.83872
856.50         76.2891
856.90        76.65395
857.31        76.52386
857.71        75.89312
858.12        74.85837
858.52        73.81824
858.92        73.39117
859.33        73.71783
859.73        74.64799
860.13        75.83049
860.54        76.69032
860.94        77.07759
861.34        77.05682
861.75        76.70534
862.15        76.23871
862.55         75.7313
862.96        75.16677
863.36        74.52395
863.76        73.79943
864.17         73.0547
864.57        72.36816
864.97        71.88595
865.38        71.75814
865.78        72.02647
866.18        72.60031
866.58        73.35468
866.99        74.00306
867.39        74.45852
867.79        74.74535
868.19        74.79369
868.60        74.51583
869.00        73.95582
869.40        73.13748
869.80        72.41792
870.21        72.40184
870.61        73.23838
871.01        74.69117
871.41         76.2201
871.81        76.96272
872.22        76.69453
872.62        75.65953
873.02        74.27837
873.42        73.26963
873.82        72.89076
874.22        72.99073
874.63        73.30431
875.03        73.41589
875.43        73.22609
875.83        72.86517
876.23        72.65359
876.63        73.09269
877.03        74.23552
877.44        75.81831
877.84         77.3537
878.24         77.9706
878.64        77.49785
879.04        76.27327
879.44        74.80603
879.84        73.84266
880.24        73.57197
880.64        73.74355
881.04        74.21604
881.44        74.74393
881.84        75.20764
882.24        75.73349
882.65        76.10337
883.05        76.06721
883.45        75.55764
883.85        74.67046
884.25        73.83294
884.65        73.72126
885.05        74.43452
885.45        75.72199
885.85        77.18402
886.25        78.11658
886.65        78.27234
887.05        77.88459
887.45        77.03997
887.85        75.92202
888.25        74.73998
888.65         73.5131
889.04        72.53095
889.44        72.25373
889.84        72.66717
890.24        73.69996
890.64        75.00188
891.04        75.79694
891.44        75.80658
891.84        75.25042
892.24        74.50855
892.64        74.12599
893.04        74.21815
893.44        74.60009
893.83         75.1464
894.23        75.56004
894.63        75.77116
895.03        75.90507
895.43        75.98549
895.83        76.03241
896.23        76.06441
896.63        76.01821
897.02        75.98582
897.42        76.19923
897.82        76.65379
898.22        77.31617
898.62        77.89572
899.01        77.91256
899.41        77.28256
899.81        76.18407
900.21        75.04595
900.61        74.53297
901.00        74.77434
901.40        75.54933
901.80         76.4645
902.20        76.86348
902.59        76.56293
902.99        75.79323
903.39        74.81336
903.79        73.99948
904.18        73.48537
904.58         73.1852
904.98        73.06163
905.38        73.08512
905.77         73.2008
906.17        73.42401
906.57        73.71606
906.96        74.02821
907.36        74.29742
907.76        74.53932
908.15        74.67787
908.55        74.49082
908.95        74.03349
909.34        73.36737
909.74        72.82131
910.14        72.76164
910.53        73.29178
910.93        74.26057
911.33        75.45787
911.72         76.5515
912.12        77.31977
912.52        77.83547
912.91        78.16306
913.31        78.40655
913.70        78.60732
914.10        78.69093
914.49        78.55878
914.89        78.06353
915.29        77.24455
915.68        76.21347
916.08        75.27656
916.47        74.75765
916.87        74.77998
917.26        75.20535
917.66        75.85149
918.05        76.43128
918.45        76.77127
918.84        76.98383
919.24         76.9995
919.64        76.87011
920.03        76.63988
920.42        76.27018
920.82        75.88021
921.21        75.56467
921.61         75.3717
922.00        75.31398
922.40        75.36451
922.79        75.54558
923.19        75.80608
923.58        76.14935
923.98        76.50106
924.37        76.76685
924.77        76.90421
925.16        76.91352
925.55         76.8306
925.95        76.72984
926.34        76.65771
926.74        76.60145
927.13        76.50377
927.52        76.23034
927.92        75.79282
928.31        75.24265
928.70        74.76821
929.10        74.64744
929.49        74.93084
929.89        75.48553
930.28        76.12882
930.67        76.46138
931.07         76.3602
931.46        75.96618
931.85        75.39751
932.24        74.83647
932.64         74.3847
933.03        74.03186
933.42        73.84471
933.82        73.92038
934.21         74.2821
934.60        74.82992
934.99        75.54044
935.39        76.33836
935.78        77.19683
936.17        78.07924
936.56         78.6058
936.96        78.21955
937.35        76.91891
937.74        74.98846
938.13        73.14456
938.53        72.29874
938.92        72.57116
939.31        73.77396
939.70        75.40036
940.09        76.43358
940.49        76.50016
940.88          75.882
941.27        75.05032
941.66        74.73447
942.05        75.11008
942.44         75.9748
942.84        76.87914
943.23        77.13205
943.62        76.50198
944.01         75.2494
944.40        74.00047
944.79        73.64722
945.18        74.35094
945.57        75.84465
945.97        77.40896
946.36        78.04099
946.75        77.35527
947.14        75.71938
947.53        73.86041
947.92        72.86406
948.31        73.01354
948.70        74.01524
949.09        75.34042
949.48        76.03581
949.87        75.79475
950.26        74.92224
950.65        73.93985
951.04        73.55624
951.43        73.93322
951.82        74.87715
952.21        75.92008
952.60        76.24573
952.99        75.63645
953.38        74.35953
953.77        73.09173
954.16        72.72377
954.55        73.42407
954.94        75.04617
955.33        76.87267
955.72        77.37116
956.11        76.09521
956.50        73.60606
956.89        71.15095
957.28        70.35366
957.66        71.54536
958.05        74.20173
958.44        77.38047
958.83        79.12276
959.22        78.74231
959.61        76.92001
960.00        74.66259
960.39        73.25089
960.78        72.94155
961.16        73.34547
961.55        74.01206
961.94        74.20008
962.33        73.65997
962.72         72.8083
963.11        71.90395
963.49        71.21478
963.88        70.83383
964.27        70.61333
964.66        70.68059
965.04        71.33956
965.43        72.50267
965.82        74.10701
966.21        75.70644
966.60        76.47672
966.98        76.23366
967.37        75.28562
967.76        74.09301
968.15        73.29271
968.53        73.03033
968.92        73.05981
969.31        73.41245
969.69        74.15235
970.08        75.13776
970.47        76.48901
970.86        77.63368
971.24        77.58968
971.63        76.19551
972.02        73.80927
972.40        71.45972
972.79        70.78696
973.17        72.06155
973.56        74.68295
973.95        77.73547
974.33        79.45681
974.72        79.19044
975.11        77.52939
975.49        75.29877
975.88        74.06218
976.26        74.22603
976.65        75.27738
977.04        76.73626
977.42        77.74451
977.81         77.8241
978.19        77.35364
978.58        76.64724
978.96        76.06343
979.35        75.80193
979.74        75.76548
980.12        75.89277
980.51        76.05473
980.89        76.26352
981.28        76.38196
981.66        76.76269
982.05        77.67776
982.43        79.26304
982.82        81.39667
983.20        83.28394
983.59        83.44497
983.97         81.6554
984.35        78.38194
984.74        75.18929
985.12        74.26445
985.51        75.90708
985.89        79.57047
986.28        83.54356
986.66        85.31875
987.04        84.02724
987.43        80.43891
987.81        76.00533
988.20        73.57187
988.58        73.94253
988.96        76.36312
989.35        79.22298
989.73        80.10896
990.12        78.32455
990.50        74.81613
990.88         70.8592
991.27        68.47933
991.65        68.21822
992.03        69.43059
992.42        71.42669
992.80        73.49867
993.18        75.22011
993.56        76.85474
993.95         78.2047
994.33        79.00903
994.71        79.12177
995.10        78.62856
995.48        77.82456
995.86        77.30475
996.24        77.25588
996.63         77.4518
997.01        78.06767
997.39        79.12771
997.77        80.47507
998.15        82.05344
998.54         83.2959
998.92        83.34983
999.30        82.05151
999.68        79.62118
1000.06        76.74884
1000.45        74.77352
1000.83        74.29453
1001.21        75.02462
1001.59         76.5272
1001.97         77.9903
1002.35        79.05614
1002.73        79.89056
1003.12        80.50257
1003.50        80.81438
1003.88         80.9052
1004.26         80.8177
1004.64        80.52601
1005.02        80.08045
1005.40        79.57452
1005.78        78.98381
1006.16        78.75587
1006.54        79.52728
1006.92        81.36236
1007.30        84.19581
1007.69        87.09776
1008.07        88.23063
1008.45        86.83787
1008.83        83.35761
1009.21        79.20838
1009.59        76.85649
1009.97        77.02144
1010.35         79.0137
1010.73        81.79854
1011.11         83.6121
1011.49        83.88941
1011.86        83.28574
1012.24        82.05614
1012.62         80.7727
1013.00        79.62228
1013.38        78.25021
1013.76        76.83211
1014.14         75.8926
1014.52        75.59742
1014.90        76.01797
1015.28         76.4942
1015.66        75.83052
1016.04        73.80691
1016.41        70.75626
1016.79        67.78961
1017.17        67.10844
1017.55        69.00938
1017.93        72.33128
1018.31        75.70618
1018.69        78.14149
1019.06         79.8526
1019.44        81.09864
1019.82        82.51521
1020.20        85.03802
1020.58        88.34883
1020.95        91.19132
1021.33        92.64783
1021.71        92.10783
1022.09        89.53453
1022.46        84.81834
1022.84        78.24546
1023.22        71.75084
1023.60        67.77138
1023.97        66.43027
1024.35        67.12449
1024.73        68.93336
