SpectraSmart Spectrum 2.9.0.0
--------- Device Information -----------
Spectrum Name :  反射率_0
Saving Time :  2024/04/30 00:31:51
Spectro-Module Model Name : SE2030-DUVN
Spectro-Module Serial Number : OS361AC55029948
Wavelength Start : 200
Wavelength End : 1025
Wavelength Unit : Wavelength(nm)
Spectrum Unit : Reflectance(%)
-----------Spectrum Setting ------------
Integration Time : 20ms
Average : 10
Boxcar : 0
Background removal :  enabled
linearity correction :  enabled
SC :  disabled
Intensity correction :  disabled
DWT denoise :  enabled
savitzky-golay :  disabled
FFT :  disabled
Running average :  disabled
Kalman :  disabled
High pass :  disabled
---------------BEGIN--------------------
Wavelength(nm)             Reflectance(%)
200.29               0
200.75        70.18861
201.21        63.97137
201.67        58.67476
202.13        54.56815
202.58        52.12138
203.04        51.07416
203.50         53.5404
203.96        64.01791
204.42        82.33778
204.88        104.9464
205.34        122.0313
205.80        121.3789
206.26        106.4842
206.72        87.16456
207.18         70.1031
207.64        58.38344
208.10        50.70113
208.55        44.64014
209.01         40.4885
209.47        40.45635
209.93        44.20971
210.39        50.37614
210.85        55.61134
211.31        57.03111
211.77        54.45154
212.23        47.42104
212.69        37.55538
213.14        34.36161
213.60        41.66455
214.06        53.97495
214.52        64.39607
214.98        68.85985
215.44        68.39825
215.90        64.66124
216.36         60.2976
216.81         60.3093
217.27        67.18792
217.73        81.20425
218.19        99.94675
218.65        110.5424
219.11        105.5712
219.57        91.25848
220.02        77.20554
220.48         69.3897
220.94        66.42532
221.40        66.01193
221.86        66.37592
222.32        63.93336
222.77        58.58504
223.23        53.99089
223.69        50.67544
224.15        48.11742
224.61        45.84092
225.06        43.36444
225.52        41.55258
225.98        42.13214
226.44        44.88388
226.90        48.33154
227.36        51.11926
227.81        52.48791
228.27         52.6645
228.73        51.85668
229.19        50.45422
229.65        49.36742
230.10        48.93436
230.56        48.97136
231.02        48.84267
231.48        47.89951
231.93        46.04108
232.39        43.53065
232.85        40.94174
233.31        39.46818
233.77         39.4907
234.22        40.79873
234.68        42.48395
235.14        42.86759
235.60        41.60932
236.05        39.38254
236.51        37.38692
236.97        37.16111
237.43        39.14019
237.88        43.26424
238.34        49.20708
238.80        55.29431
239.26        59.59794
239.71        62.09524
240.17        62.78722
240.63        62.64181
241.08        62.19392
241.54        60.51442
242.00        58.24957
242.46        59.22681
242.91         66.9222
243.37        79.99082
243.83        92.37546
244.28        99.14552
244.74         100.351
245.20        95.86412
245.66        88.66458
246.11        86.43392
246.57        92.76836
247.03        107.4233
247.48        122.3228
247.94        119.9459
248.40        102.3173
248.85        81.05633
249.31        66.50653
249.77        62.71919
250.22        68.81201
250.68        85.45256
251.14         112.257
251.59        127.8079
252.05         116.865
252.51         96.1953
252.96        80.36504
253.42        74.28374
253.88        74.82008
254.33        78.81281
254.79        83.98698
255.25        85.42612
255.70        82.34898
256.16        78.23865
256.62         74.7123
257.07        72.45715
257.53        71.51628
257.99        71.05384
258.44        70.20783
258.90        68.78228
259.35        66.61924
259.81        64.55672
260.27        62.89576
260.72         61.8784
261.18         61.5085
261.63        61.23516
262.09        60.81109
262.55          59.608
263.00        57.66268
263.46        55.54942
263.91         53.4432
264.37        51.82029
264.83        50.60887
265.28        49.58775
265.74        48.81752
266.19        48.17889
266.65        47.69096
267.11        47.32141
267.56        46.93703
268.02        46.34106
268.47        45.46201
268.93         44.3482
269.38        43.08878
269.84        41.98322
270.30        41.11224
270.75        40.41215
271.21         39.7813
271.66        39.01524
272.12         38.0725
272.57          37.005
273.03        35.93119
273.48        34.95165
273.94        34.16848
274.39        33.50385
274.85        32.96027
275.31        32.46553
275.76         31.9708
276.22         31.5111
276.67        31.05151
277.13        30.63684
277.58         30.2167
278.04        29.81147
278.49        29.34937
278.95        28.82085
279.40        28.20035
279.86        27.59551
280.31        27.00851
280.77        26.55684
281.22        26.22721
281.68        26.00375
282.13        25.90303
282.59        25.99713
283.04        26.23722
283.50        26.58255
283.95        26.84932
284.41        26.77148
284.86        26.31675
285.32        25.63733
285.77        24.90881
286.22        24.45642
286.68        24.35486
287.13        24.45987
287.59        24.70616
288.04        24.93068
288.50        25.08719
288.95        25.19994
289.41        25.24766
289.86        25.15211
290.32        24.95189
290.77        24.67704
291.22         24.4416
291.68        24.42537
292.13        24.66794
292.59         25.1479
293.04          25.834
293.50        26.70447
293.95        27.73075
294.40        28.92109
294.86         30.2007
295.31        31.46319
295.77        32.67619
296.22        33.84997
296.68        35.05324
297.13        36.37697
297.58         37.8504
298.04        39.41112
298.49        41.01548
298.95        42.60204
299.40        44.14273
299.85        45.66966
300.31        47.19205
300.76        48.64845
301.21        50.07972
301.67        51.52624
302.12        53.02586
302.58        54.78173
303.03        56.78272
303.48        58.89647
303.94        61.04342
304.39        63.45145
304.84        65.42462
305.30        67.51298
305.75        69.49081
306.20        71.38904
306.66        73.21735
307.11        74.90872
307.57        76.51389
308.02         77.9968
308.47         79.4108
308.93        80.77975
309.38        82.10144
309.83        83.44346
310.29        84.81263
310.74        86.17462
311.19        87.45818
311.65        88.53985
312.10        89.38731
312.55        90.06086
313.00        90.70344
313.46         91.5424
313.91        92.60311
314.36        93.81383
314.82        95.02437
315.27        96.01851
315.72        96.71233
316.18        97.18352
316.63        97.48816
317.08        97.73141
317.53        97.97729
317.99        98.22424
318.44        98.49699
318.89        98.85257
319.35        99.29593
319.80        99.81252
320.25        100.4039
320.70        101.0628
321.16        101.7345
321.61        102.4512
322.06        103.0728
322.51        103.3975
322.97        103.3921
323.42         103.138
323.87        102.8173
324.32         102.747
324.78        102.9913
325.23        103.5254
325.68        104.1998
326.13         104.753
326.59        105.0772
327.04        105.2799
327.49        105.4414
327.94        105.7456
328.39        106.2329
328.85        106.7829
329.30        107.3607
329.75        107.7154
330.20        107.7891
330.66        107.6568
331.11        107.4817
331.56        107.4432
332.01        107.6292
332.46        108.0091
332.92        108.5041
333.37         109.129
333.82        109.7956
334.27        110.4957
334.72        111.2359
335.17        112.0311
335.63        112.8314
336.08         113.671
336.53         114.382
336.98        114.7643
337.43        114.7967
337.88        114.5562
338.34        114.2751
338.79        114.3456
339.24        114.8584
339.69        115.7241
340.14        116.7305
340.59        117.5013
341.05        117.9317
341.50        118.1389
341.95        118.2686
342.40        118.5727
342.85        119.1137
343.30        119.7725
343.75        120.4642
344.20        121.0694
344.66        121.5499
345.11        121.9587
345.56        122.2596
346.01        122.3767
346.46        122.3354
346.91        122.1715
347.36        122.0597
347.81        122.2718
348.26        122.8386
348.72        123.6402
349.17        124.5172
349.62        125.1196
350.07        125.3404
350.52        125.3083
350.97        125.1032
351.42        124.8506
351.87        124.6278
352.32         124.393
352.77        124.2827
353.22        124.5274
353.67        125.1202
354.13        125.9469
354.58         126.728
355.03         127.001
355.48        126.6454
355.93         125.804
356.38        124.6585
356.83        123.4956
357.28        122.4383
357.73        121.4383
358.18        120.5285
358.63        119.7542
359.08        119.1123
359.53        118.6054
359.98        118.1775
360.43        117.7152
360.88          117.18
361.33        116.5895
361.78        115.9347
362.23        115.2166
362.68        114.4467
363.13        113.6198
363.58        112.7965
364.03        112.0755
364.48        111.4729
364.93        110.9648
365.38        110.4748
365.83        109.8773
366.28        109.1482
366.73        108.3311
367.18        107.4977
367.63        106.7586
368.08        106.1354
368.53        105.5867
368.98        105.0691
369.43        104.5084
369.88        103.8973
370.33        103.2935
370.78        102.7015
371.23        102.1307
371.68        101.5867
372.13        101.0213
372.58        100.5343
373.03        100.2907
373.48        100.2777
373.93        100.4348
374.38         100.464
374.83         99.8866
375.28        98.65535
375.72        96.94791
376.17        95.25026
376.62        94.10184
377.07        93.61326
377.52        93.59612
377.97        93.81308
378.42        93.86964
378.87        93.62989
379.32        93.21597
379.77        92.69373
380.22        92.15323
380.67        91.62141
381.11        91.03867
381.56        90.42522
382.01        89.85498
382.46        89.36266
382.91        88.97916
383.36        88.64019
383.81        88.22425
384.26        87.71323
384.71        87.12843
385.15        86.59229
385.60        86.36141
386.05        86.42898
386.50        86.69328
386.95         86.9186
387.40        86.74772
387.85        86.13397
388.29        85.18168
388.74        84.22388
389.19        83.48723
389.64         83.0329
390.09        82.76138
390.54        82.61234
390.98        82.48647
391.43        82.37221
391.88        82.24628
392.33        82.05781
392.78        81.84795
393.23        81.58162
393.67        81.02753
394.12        80.33603
394.57        80.16357
395.02        79.49257
395.47        79.66145
395.91        80.17215
396.36         80.3282
396.81        80.06082
397.26        79.66304
397.71        79.25893
398.15        79.04697
398.60        79.03126
399.05         78.6665
399.50        78.04867
399.95        77.79269
400.39        77.63995
400.84        77.87475
401.29        78.21208
401.74        78.18507
402.18        77.72304
402.63        77.04774
403.08        76.42178
403.53        76.13223
403.97        76.23144
404.42        76.61153
404.87         77.0502
405.32        77.15156
405.76        76.82131
406.21        76.34573
406.66        75.83424
407.11        75.26167
407.55        74.85693
408.00        74.93162
408.45        75.42413
408.90        76.11018
409.34        76.66644
409.79        76.41908
410.24        75.60563
410.68        75.32752
411.13        75.66597
411.58         75.9683
412.03        76.08881
412.47         76.1032
412.92        75.94147
413.37        75.63544
413.81        75.23572
414.26        74.89531
414.71         74.6209
415.15        74.39639
415.60        74.22934
416.05        74.18007
416.49        74.25754
416.94        74.45139
417.39        74.66898
417.83        74.73351
418.28        74.62148
418.73        74.38702
419.17        74.15303
419.62        74.13483
420.07        74.34416
420.51        74.67033
420.96        75.03483
421.41         75.1777
421.85        75.01425
422.30        74.97646
422.74        74.95723
423.19        74.30123
423.64        73.29036
424.08        73.32423
424.53        74.28902
424.98        74.74976
425.42        74.57672
425.87        74.72532
426.31        75.12187
426.76        74.89805
427.21        74.05847
427.65        73.91312
428.10        74.30083
428.54        74.22617
428.99        73.71398
429.44        73.16242
429.88        72.80672
430.33        73.01808
430.77        73.64344
431.22        74.45832
431.66        75.37956
432.11        75.20753
432.56        74.17175
433.00        73.70978
433.45        74.22707
433.89        74.37621
434.34        75.52303
434.78        76.52538
435.23        74.44502
435.67        73.60899
436.12        73.33893
436.57        73.46973
437.01         73.8329
437.46        74.38828
437.90        74.28777
438.35        74.71225
438.79        75.32847
439.24        75.57724
439.68         75.4629
440.13        75.42859
440.57        75.55123
441.02        75.61616
441.46          75.594
441.91        75.81977
442.35        75.95854
442.80        75.82195
443.24        75.67583
443.69        75.29388
444.13        74.90114
444.58        74.69086
445.02        74.65892
445.47        74.77772
445.91        74.97276
446.36        75.15942
446.80        75.28083
447.24        75.39438
447.69        75.49027
448.13        75.49084
448.58        75.43539
449.02        75.38526
449.47        75.39223
449.91        75.43164
450.36        75.52617
450.80        75.69176
451.25        75.88599
451.69        75.97758
452.13        75.95049
452.58        75.87103
453.02        75.78383
453.47        75.74014
453.91        75.72861
454.36        75.92376
454.80        75.93226
455.24        75.97312
455.69        75.92485
456.13        75.92047
456.58        75.92837
457.02        75.55011
457.46        74.95465
457.91        74.81412
458.35        75.04507
458.79        75.07703
459.24        74.93687
459.68        74.92889
460.13        75.02905
460.57        75.01485
461.01        75.48209
461.46        74.99996
461.90         74.5694
462.34        75.65163
462.79        75.09843
463.23        75.04097
463.68         74.5509
464.12        74.26824
464.56        74.22208
465.01        73.94871
465.45        73.99319
465.89        73.90434
466.34        73.85388
466.78        74.35535
467.22        74.62041
467.67        74.60689
468.11        74.33963
468.55        73.86784
468.99        73.40102
469.44        73.02951
469.88        72.82293
470.32        72.78626
470.77        72.85798
471.21        72.94203
471.65         72.9848
472.10        73.02879
472.54        73.07539
472.98        73.13964
473.42        73.20922
473.87        73.34788
474.31        73.47729
474.75        73.31305
475.20        72.95836
475.64        72.93156
476.08        73.18539
476.52        73.08632
476.97        72.59386
477.41        72.47843
477.85        72.05618
478.29        71.84726
478.74        72.33759
479.18         72.3382
479.62        72.09789
480.06        72.11115
480.50        72.40685
480.95         72.2487
481.39        72.79964
481.83        72.30251
482.27        73.13283
482.72        72.91431
483.16        72.84467
483.60        72.79379
484.04        72.93941
484.48        73.16148
484.93        73.29892
485.37        72.94328
485.81        72.34535
486.25        71.49432
486.69          72.472
487.14        72.16034
487.58        71.44071
488.02        72.12327
488.46        72.64657
488.90        72.79934
489.34         72.2869
489.79        72.87227
490.23        72.04793
490.67        71.95918
491.11        71.86027
491.55        71.70202
491.99        71.50401
492.43        71.44717
492.88        71.55179
493.32        71.73988
493.76        71.95821
494.20        72.16268
494.64         72.3022
495.08         72.4258
495.52        72.53844
495.96        72.47263
496.41        72.20002
496.85        72.59313
497.29        72.09355
497.73        72.24938
498.17        71.73856
498.61        71.84992
499.05        71.30197
499.49        71.45562
499.93        71.81035
500.37        72.01238
500.82        72.09927
501.26         71.4474
501.70        71.43442
502.14        71.99266
502.58        71.70956
503.02        71.84097
503.46         71.8576
503.90        71.93548
504.34        72.03171
504.78        72.06439
505.22         72.0387
505.66         71.9518
506.10         71.8415
506.54        71.84126
506.98        71.97927
507.42        72.07837
507.86        72.00365
508.30         72.3566
508.74        71.79615
509.18         71.4395
509.62        71.05831
510.06        70.94357
510.50        71.13622
510.94        71.56849
511.38        72.06736
511.82        72.30653
512.26        72.20775
512.70        71.87301
513.14        71.46625
513.58        71.24127
514.02        71.26455
514.46        71.45016
514.90        71.69851
515.34        71.85223
515.78        71.85863
516.22        71.77221
516.66        71.64191
517.10        71.53516
517.54        71.47652
517.98        71.44261
518.42        71.41054
518.86        71.35154
519.30        71.26109
519.74        71.15412
520.18        71.06817
520.62        71.05191
521.06        71.11501
521.50        71.25224
521.93        71.42025
522.37        71.48683
522.81        71.43183
523.25        71.34704
523.69        71.33204
524.13        71.18523
524.57        71.49779
525.01        71.75749
525.45        72.02013
525.89        72.08565
526.32        71.90917
526.76        71.57808
527.20        71.19051
527.64        70.91704
528.08        70.80408
528.52        70.79986
528.96        70.86818
529.40        70.94929
529.83        71.01167
530.27        71.08778
530.71        71.15063
531.15        71.16167
531.59        71.11546
532.03        71.00968
532.46        70.88416
532.90        70.83841
533.34        70.88157
533.78        70.99332
534.22        71.10661
534.66        71.11575
535.09        70.99783
535.53        70.80357
535.97        70.60413
536.41        70.52935
536.85        70.60464
537.28        70.77905
537.72        70.97466
538.16        71.06082
538.60        71.00622
539.04        70.86272
539.47        70.66695
539.91        70.53233
540.35        70.46906
540.79        70.45288
541.22        70.47588
541.66        70.54057
542.10        70.63081
542.54        70.75323
542.97        70.86703
543.41        70.92654
543.85        70.91494
544.29         70.8597
544.72        70.76509
545.16        70.68108
545.60        70.61889
546.04        70.53548
546.47        70.46596
546.91        70.57471
547.35        70.81654
547.79        70.94334
548.22        70.89923
548.66        70.97636
549.10        71.18028
549.53        71.13267
549.97        70.74852
550.41        71.36432
550.84        70.85251
551.28        70.80634
551.72        70.58959
552.15        70.84602
552.59        70.67754
553.03        70.71558
553.46         70.7112
553.90        70.72067
554.34        70.72115
554.77        70.77203
555.21        70.87947
555.65        70.69685
556.08         70.6742
556.52         70.6793
556.96        70.81271
557.39        70.96109
557.83         71.0949
558.27        71.11813
558.70        71.06585
559.14        71.11199
559.57        71.21158
560.01        71.29553
560.45        71.33307
560.88         71.0472
561.32        70.87032
561.75        70.83737
562.19         71.0115
562.63        70.91895
563.06        70.60426
563.50        70.56638
563.93        70.75951
564.37        70.84677
564.80        70.79038
565.24         70.7959
565.68        70.84258
566.11        70.84513
566.55        70.81393
566.98        70.72128
567.42        70.67033
567.85        70.62592
568.29        70.59673
568.72        70.83854
569.16        71.43262
569.60        70.82928
570.03        71.17714
570.47        71.42368
570.90        71.40832
571.34        71.03722
571.77         71.3642
572.21        71.40313
572.64        71.44733
573.08        71.34079
573.51        71.21864
573.95         70.9533
574.38        71.93269
574.82        71.53989
575.25        71.20193
575.69        71.23469
576.12        71.05002
576.56        70.88751
576.99        70.77081
577.42        70.97949
577.86        70.86739
578.29        70.33796
578.73        71.55318
579.16        71.00286
579.60        70.92712
580.03        70.96532
580.47        71.43336
580.90          71.305
581.33        70.65905
581.77        70.73719
582.20         70.7663
582.64        71.21442
583.07        70.82748
583.51        70.60487
583.94        70.49625
584.37        70.25206
584.81        70.15636
585.24         70.5789
585.68         71.0391
586.11        71.73161
586.54        70.82388
586.98        70.21375
587.41        71.04044
587.85        71.65258
588.28        71.23534
588.71        71.66538
589.15        70.67261
589.58        70.81496
590.01         70.8188
590.45        70.95676
590.88        71.08645
591.31        71.27412
591.75        71.25989
592.18        71.59882
592.61        71.70792
593.05        70.02901
593.48        71.16778
593.91        71.56064
594.35         70.5408
594.78        70.37263
595.21        70.35645
595.65         71.0679
596.08        70.35136
596.51        70.45412
596.94        71.09434
597.38         71.2578
597.81        70.95259
598.24         70.9732
598.68        71.11907
599.11        70.45154
599.54         71.4444
599.97        71.76218
600.41        70.37155
600.84        70.57446
601.27        70.60127
601.70        70.99503
602.14        71.16288
602.57        70.94263
603.00        70.41852
603.43        70.34544
603.87         70.5497
604.30        70.66022
604.73        70.61219
605.16        70.42304
605.60        70.38412
606.03        70.62312
606.46         70.9732
606.89        71.33679
607.32        70.73639
607.76        70.65974
608.19         70.8792
608.62        70.92133
609.05        70.81049
609.48        70.93353
609.92        70.98646
610.35          70.994
610.78         71.1578
611.21        70.44444
611.64        70.54059
612.07        70.66063
612.50        70.64551
612.94        70.78694
613.37        71.24815
613.80        70.82427
614.23        71.40997
614.66        71.40993
615.09        71.47124
615.52          71.132
615.96         71.1625
616.39        71.49917
616.82        70.62484
617.25        70.49218
617.68        70.56873
618.11        70.76554
618.54        70.94479
618.97        70.87525
619.40        70.63556
619.84        70.59185
620.27        70.81811
620.70        71.06408
621.13        71.18765
621.56        71.05981
621.99        70.93742
622.42        70.14838
622.85        71.02676
623.28        70.66033
623.71        71.45485
624.14        70.11768
624.57        70.99154
625.00        70.98019
625.43        71.12742
625.86        70.92971
626.29         70.4568
626.72        70.51371
627.15         70.4878
627.58        70.71179
628.01        70.89949
628.44        70.88934
628.87        70.70258
629.30        70.65688
629.73        70.78545
630.16        70.82483
630.59        70.76678
631.02        70.93549
631.45        70.97989
631.88        71.02413
632.31        70.95793
632.74        70.83379
633.17        70.68099
633.60        70.55524
634.03        70.47878
634.46        70.42379
634.89        70.39311
635.32        70.40182
635.75        70.44241
636.18        70.50146
636.61        70.55653
637.04        70.58356
637.47        70.59062
637.89        70.54115
638.32        70.40653
638.75        70.35766
639.18         70.4406
639.61        69.92722
640.04        70.11535
640.47        70.04301
640.90        70.09699
641.33        70.24406
641.76        70.43203
642.18        70.54989
642.61        70.53297
643.04        70.42275
643.47        70.30541
643.90        70.30163
644.33        70.42623
644.76        70.72382
645.18        71.05724
645.61        71.00911
646.04        70.48823
646.47        70.38081
646.90        70.60732
647.33        70.58743
647.75        70.30384
648.18        70.06616
648.61        69.95965
649.04        70.05466
649.47        70.31236
649.89        70.54476
650.32        70.63329
650.75        70.64499
651.18        70.63515
651.61        70.48953
652.03        70.38112
652.46        70.85822
652.89         71.5535
653.32        71.54887
653.74        71.07503
654.17        69.86378
654.60        69.81005
655.03        71.56805
655.46        69.57061
655.88        71.00908
656.31           72.79
656.74        73.14342
657.16        72.46419
657.59        70.64846
658.02        69.75378
658.45        71.41735
658.87        71.08562
659.30        70.83551
659.73        71.47094
660.15        71.52911
660.58         71.5519
661.01        71.36464
661.44        71.07895
661.86        70.59404
662.29        70.08671
662.72         70.2756
663.14        70.98753
663.57         70.9429
664.00        70.23825
664.42        70.03144
664.85         70.3709
665.27        70.55235
665.70        70.52238
666.13        70.57185
666.55        70.70373
666.98        70.82128
667.41        70.90862
667.83        70.94185
668.26        70.90072
668.69        70.80165
669.11        70.69282
669.54        70.61452
669.96        70.57296
670.39        70.66762
670.82        70.81445
671.24        70.61301
671.67        70.16542
672.09        70.12807
672.52        70.46983
672.94        70.67371
673.37        70.17477
673.80        70.56533
674.22        70.30834
674.65        70.47677
675.07        70.66251
675.50        70.90271
675.92        71.13696
676.35        71.26132
676.77        71.27125
677.20        71.16929
677.62        71.02602
678.05        70.96032
678.47        70.99669
678.90        71.10737
679.32        71.22383
679.75        71.24775
680.17        71.14771
680.60        70.96867
681.02        70.77472
681.45        70.64544
681.87        70.60325
682.30        70.67996
682.72        70.83595
683.15        70.76167
683.57        70.55445
684.00        70.70594
684.42        71.12563
684.85        71.31155
685.27        71.23813
685.70        71.02939
686.12        70.83601
686.54        71.19518
686.97        71.94112
687.39        72.22141
687.82        71.96119
688.24        71.86318
688.66        71.93125
689.09        71.72356
689.51        71.31211
689.94        71.04399
690.36        70.95994
690.78        70.97313
691.21        71.04284
691.63        71.10496
692.06        71.13303
692.48        71.16367
692.90        71.19853
693.33        71.22466
693.75        71.24419
694.17        71.24404
694.60        71.23941
695.02        71.25228
695.44        71.27836
695.87         71.3912
696.29        71.55217
696.71        71.46682
697.14        71.22464
697.56        71.27823
697.98        71.59372
698.41        71.74132
698.83        71.69011
699.25        71.69304
699.68        71.73204
700.10        71.71864
700.52        71.63823
700.94        71.53497
701.37        71.41433
701.79        71.30297
702.21        71.20537
702.64         71.1262
703.06        71.09198
703.48        71.15484
703.90         71.3174
704.33        71.57191
704.75        71.82036
705.17        71.97121
705.59         71.9724
706.01        71.85944
706.44        71.70182
706.86        71.61208
707.28        71.61883
707.70        71.71002
708.12        71.85781
708.55        71.95468
708.97        72.00593
709.39        72.13696
709.81        72.32854
710.23        72.45844
710.66        72.50603
711.08        72.54752
711.50        72.58419
711.92        72.62865
712.34        72.68867
712.76        72.75984
713.19        72.81109
713.61        72.83772
714.03        72.81713
714.45        72.76652
714.87        72.71091
715.29        72.68536
715.71        72.69614
716.13         72.7267
716.56        72.74934
716.98        72.80997
717.40        72.87358
717.82        72.94038
718.24        72.98277
718.66        72.95745
719.08        72.86063
719.50         72.7051
719.92        72.54126
720.34        72.45037
720.76        72.45161
721.19        72.51599
721.61        72.60656
722.03        72.63287
722.45        72.57076
722.87        72.44252
723.29        72.29597
723.71        72.20782
724.13        72.20016
724.55        72.25578
724.97        72.32882
725.39        72.34241
725.81        72.28664
726.23        72.19491
726.65         72.1275
727.07        72.18083
727.49        72.36625
727.91        72.62832
728.33        72.91441
728.75        73.13878
729.17         73.2649
729.59        73.32606
730.01         73.2831
730.43        73.09336
730.85        72.78255
731.27        72.35097
731.69        71.94521
732.10        71.94272
732.52        72.15055
732.94        72.70112
733.36        73.34294
733.78        73.78006
734.20        73.91036
734.62        73.72282
735.04        73.40263
735.46        73.43396
735.88        73.79084
736.30        73.94355
736.72        73.82417
737.13        73.74836
737.55        73.67889
737.97        73.45138
738.39        73.15359
738.81        72.97287
739.23        72.96596
739.65        73.20121
740.06         73.5311
740.48        73.66832
740.90        73.55557
741.32        73.33423
741.74        73.09628
742.16        72.97902
742.57         73.0422
742.99        73.15561
743.41        73.29802
743.83         73.5784
744.25        73.89995
744.67        73.92157
745.08        73.69659
745.50        73.62519
745.92        73.74268
746.34        73.79678
746.75        73.79347
747.17        73.82042
747.59        73.86808
748.01         74.0218
748.42        74.19907
748.84        74.00584
749.26        73.55693
749.68        73.39734
750.09        73.53146
750.51        73.64395
750.93        73.66473
751.35        73.62096
751.76        73.53979
752.18        73.54468
752.60        73.63743
753.01        73.69911
753.43        73.71478
753.85        73.76472
754.27        73.86342
754.68        74.02234
755.10         74.1672
755.52        74.18435
755.93        74.03381
756.35        73.72076
756.77        73.46647
757.18        73.48936
757.60        73.81219
758.02        74.75241
758.43        75.82463
758.85        75.42483
759.26        73.91825
759.68        73.44073
760.10        74.00163
760.51        74.77896
760.93        74.19119
761.34        74.38054
761.76        74.79752
762.18        75.01396
762.59        74.92995
763.01        74.34176
763.42        73.51385
763.84        73.11145
764.26         73.2551
764.67        73.53517
765.09        73.86212
765.50        74.31121
765.92        74.76225
766.33        74.88963
766.75        74.65487
767.16        74.65076
767.58        74.69831
768.00        74.63756
768.41        74.43194
768.83        74.43919
769.24        74.55869
769.66         74.3091
770.07        73.81028
770.49        73.63267
770.90        73.84352
771.32        74.28609
771.73        74.79913
772.15        74.99869
772.56        74.82259
772.97        74.68236
773.39        74.21963
773.80        74.19244
774.22        74.47565
774.63        75.02808
775.05        75.58873
775.46         75.8389
775.88        75.66245
776.29        75.20743
776.70        74.64437
777.12        74.27068
777.53        74.18867
777.95        74.29213
778.36        74.52483
778.77         74.7832
779.19        75.01942
779.60        75.29996
780.02        75.54862
780.43        75.75477
780.84        75.89886
781.26        75.75925
781.67         75.4837
782.09        75.78163
782.50         76.4732
782.91        76.43349
783.33        75.69795
783.74        75.30894
784.15         75.3228
784.57        75.15646
784.98        74.86072
785.39        74.79895
785.81        74.99749
786.22        75.34866
786.63         75.7806
787.04        76.17754
787.46        76.49222
787.87        76.72395
788.28        76.89405
788.70        77.02937
789.11        77.13055
789.52        77.20992
789.93        77.22329
790.35        77.09735
790.76        76.84449
791.17        76.49888
791.58        76.19893
792.00        76.08466
792.41        76.19953
792.82        76.64249
793.23         77.2366
793.65        77.27636
794.06        76.88693
794.47        77.03926
794.88        77.61478
795.29        77.70242
795.71        77.25211
796.12        76.80816
796.53        76.53566
796.94        76.49711
797.35        76.75209
797.76        77.28161
798.18        77.88349
798.59        78.26947
799.00        78.33298
799.41        78.15568
799.82        77.84222
800.23        77.58548
800.64        77.45926
801.06        77.37812
801.47        77.38084
801.88        77.45247
802.29         77.5708
802.70        77.73473
803.11        77.89955
803.52        77.97703
803.93        77.95743
804.34        77.87359
804.75        77.73174
805.17        77.61937
805.58        77.60759
805.99        77.44176
806.40         77.2346
806.81        77.69283
807.22        78.57951
807.63         78.6383
808.04        77.95177
808.45        77.76358
808.86        78.16011
809.27         78.4242
809.68        78.43629
810.09        78.36931
810.50        78.20978
810.91          77.907
811.32        77.62854
811.73        77.64145
812.14         77.9912
812.55        78.61843
812.96         79.2865
813.37         79.5481
813.78        79.29509
814.19        78.69145
814.60        78.00346
815.01        77.60865
815.42        77.59843
815.83        77.85557
816.24        78.27055
816.65        78.62385
817.05        78.80674
817.46        78.84654
817.87        78.78288
818.28        78.60747
818.69        78.34884
819.10        78.01466
819.51        77.67575
819.92        77.48315
820.33        77.48664
820.74        77.63366
821.14        77.91329
821.55        78.30862
821.96        78.77399
822.37        79.31313
822.78        79.75729
823.19        79.81015
823.60        79.40723
824.00        78.63061
824.41        77.74633
824.82        77.20678
825.23          77.127
825.64        77.42117
826.04        77.88799
826.45        78.06613
826.86        77.86346
827.27        77.41763
827.68        76.97073
828.08        76.92488
828.49        77.32584
828.90        78.07027
829.31        78.94129
829.72        79.57754
830.12        79.88409
830.53        79.86597
830.94        79.72198
831.35        79.74406
831.75        80.03198
832.16        80.41587
832.57        80.73885
832.97        80.69885
833.38        80.25006
833.79        79.58385
834.20        78.88244
834.60        78.37247
835.01        78.15806
835.42        78.13082
835.82        78.34719
836.23        78.82651
836.64        79.54039
837.04        80.49632
837.45        81.33669
837.86        81.63439
838.26        81.28491
838.67        80.41291
839.08        79.35037
839.48        78.60255
839.89        78.35955
840.29        78.49604
840.70        78.84082
841.11        79.12117
841.51         79.2654
841.92        79.30579
842.33        79.35983
842.73        79.59641
843.14        79.98547
843.54        80.48796
843.95        80.91315
844.35        81.04344
844.76        80.81237
845.17        80.28033
845.57        79.68774
845.98        79.38654
846.38         79.4855
846.79        79.88843
847.19        80.32652
847.60        80.28138
848.00        79.67641
848.41        78.70797
848.81        77.76366
849.22        77.41677
849.62        77.82822
850.03        78.76524
850.43        79.97528
850.84        80.78604
851.24         81.0326
851.65        80.78654
852.05        80.27549
852.46        79.82421
852.86        79.54248
853.27        79.41118
853.67        79.25035
854.07        79.02341
854.48        78.66109
854.88        78.23299
855.29        77.80146
855.69        77.71417
856.10        77.95065
856.50        78.51781
856.90        79.09608
857.31        79.26113
857.71        78.97301
858.12        78.29861
858.52        77.56907
858.92        77.28413
859.33          77.555
859.73        78.28741
860.13        79.14302
860.54        79.57738
860.94        79.48711
861.34        78.93147
861.75        78.16021
862.15        77.67258
862.55        77.57401
862.96        77.75226
863.36        77.87397
863.76        77.43986
864.17        76.41678
864.57        75.04646
864.97        73.75115
865.38        73.10168
865.78        73.26168
866.18        74.03019
866.58         75.1729
866.99           76.17
867.39        76.82582
867.79        77.23331
868.19        77.35924
868.60        77.16983
869.00        76.72426
869.40        75.99712
869.80        75.32674
870.21        75.30897
870.61        76.09409
871.01        77.47061
871.41        78.90506
871.81        79.53314
872.22        79.14294
872.62        77.98785
873.02        76.53085
873.42         75.5551
873.82        75.32314
874.22        75.65568
874.63        76.22144
875.03         76.5042
875.43         76.3759
875.83          75.984
876.23         75.6862
876.63        76.05476
877.03        77.16212
877.44        78.72048
877.84        80.21577
878.24        80.73183
878.64        80.09819
879.04        78.69282
879.44        77.05391
879.84        75.95953
880.24        75.61101
880.64        75.74563
881.04        76.23656
881.44         76.8633
881.84          77.501
882.24        78.26253
882.65        78.87256
883.05        78.98373
883.45        78.49647
883.85        77.53094
884.25        76.56899
884.65        76.37209
885.05         77.0687
885.45        78.39398
885.85        79.92667
886.25        80.92632
886.65        81.12654
887.05        80.75785
887.45        79.93482
887.85        78.88038
888.25        77.80251
888.65        76.71046
889.04        75.80705
889.44        75.44392
889.84        75.59219
890.24        76.19665
890.64         77.0555
891.04        77.69576
891.44        77.91891
891.84        77.84074
892.24        77.59232
892.64        77.38338
893.04         77.2783
893.44        77.19183
893.83        77.19057
894.23        77.32009
894.63         77.6045
895.03        78.04137
895.43        78.48261
895.83        78.68863
896.23        78.61139
896.63        78.29102
897.02        77.90054
897.42        77.79343
897.82        78.02795
898.22        78.53602
898.62        79.05801
899.01        79.17198
899.41         78.7795
899.81        78.02474
900.21        77.25959
900.61        77.02269
901.00        77.41368
901.40        78.25778
901.80        79.15437
902.20        79.45097
902.59          78.987
902.99        77.97783
903.39        76.82247
903.79        76.10934
904.18        75.99172
904.58        76.33646
904.98        76.84643
905.38        77.07155
905.77        76.88042
906.17        76.40739
906.57        75.95022
906.96        76.00385
907.36        76.62252
907.76        77.65897
908.15        78.68282
908.55        78.86008
908.95         78.0897
909.34        76.64695
909.74        75.18782
910.14        74.57833
910.53        75.05588
910.93        76.30151
911.33        77.93304
911.72        79.34431
912.12        80.22191
912.52          80.749
912.91        81.02685
913.31        81.20926
913.70         81.3634
914.10        81.35011
914.49        81.14117
914.89        80.71799
915.29        80.12482
915.68        79.45928
916.08        78.84235
916.47        78.29286
916.87        77.89819
917.26        77.61718
917.66         77.5547
918.05        77.90513
918.45        78.60214
918.84        79.60777
919.24        80.54727
919.64        80.93805
920.03        80.66891
920.42        79.88469
920.82        78.91166
921.21        78.15716
921.61        77.77516
922.00        77.66468
922.40        77.80354
922.79        78.23425
923.19        78.86153
923.58        79.68523
923.98        80.47873
924.37        80.89096
924.77        80.84573
925.16        80.43029
925.55        79.83846
925.95         79.4236
926.34         79.3172
926.74        79.40728
927.13        79.59787
927.52        79.68719
927.92        79.62214
928.31        79.46518
928.70        79.26762
929.10        79.08365
929.49        78.93301
929.89        78.74084
930.28        78.53333
930.67        78.28388
931.07        78.00457
931.46        77.76879
931.85        77.54275
932.24        77.26175
932.64        76.95473
933.03        76.66474
933.42        76.56059
933.82        76.90916
934.21        77.74963
934.60        78.88313
934.99        80.09283
935.39        81.00961
935.78        81.54639
936.17        81.77333
936.56        81.50422
936.96        80.52711
937.35        78.96423
937.74        77.00119
938.13        75.27235
938.53         74.5668
938.92        74.95033
939.31        76.28059
939.70        77.98847
940.09        78.93362
940.49         78.7337
940.88        77.71163
941.27        76.46809
941.66        75.92342
942.05         76.2923
942.44        77.32772
942.84        78.51666
943.23        79.03202
943.62        78.58202
944.01        77.46812
944.40        76.32722
944.79        76.07521
945.18        76.88779
945.57        78.46933
945.97        80.13004
946.36        80.93404
946.75        80.48669
947.14        79.12346
947.53        77.49313
947.92        76.55759
948.31        76.58721
948.70        77.35087
949.09        78.37777
949.48        78.82728
949.87        78.45396
950.26         77.5266
950.65        76.61623
951.04        76.50716
951.43        77.34264
951.82        78.90137
952.21        80.53387
952.60        81.07147
952.99        80.21492
953.38        78.36837
953.77        76.42661
954.16        75.57118
954.55        76.02991
954.94        77.55517
955.33        79.41353
955.72        80.02823
956.11        78.89711
956.50         76.6105
956.89        74.27129
957.28         73.2874
957.66        73.97513
958.05        75.84705
958.44        78.19146
958.83        79.55001
959.22        79.38685
959.61        78.19747
960.00        76.70319
960.39        75.82035
960.78        75.73074
961.16        76.16113
961.55        76.71405
961.94        76.77171
962.33        76.15034
962.72        75.20763
963.11        74.24751
963.49        73.61488
963.88        73.40894
964.27        73.48911
964.66        73.87866
965.04        74.68036
965.43        75.74523
965.82        77.04597
966.21        78.28404
966.60        78.91238
966.98        78.80544
967.37        78.17098
967.76        77.28375
968.15        76.52445
968.53        75.99614
968.92        75.54046
969.31        75.32024
969.69        75.65265
970.08         76.5016
970.47        77.92385
970.86        79.28771
971.24        79.49398
971.63        78.31331
972.02         76.1288
972.40        73.93853
972.79        73.34558
973.17        74.61852
973.56        77.15099
973.95        80.05956
974.33        81.65699
974.72        81.31213
975.11        79.60795
975.49        77.34881
975.88        76.05561
976.26        76.12153
976.65        77.04571
977.04        78.37506
977.42        79.28783
977.81        79.33411
978.19        78.91679
978.58        78.30988
978.96        77.81197
979.35        77.60736
979.74        77.57767
980.12        77.79628
980.51        78.35703
980.89        79.29807
981.28        80.42074
981.66         81.7272
982.05        82.90913
982.43        83.94321
982.82        84.77844
983.20        85.14674
983.59        84.50683
983.97        82.90883
984.35        80.62541
984.74        78.50986
985.12        77.67574
985.51        78.27399
985.89        80.09137
986.28        82.28054
986.66        83.77228
987.04        84.01891
987.43        83.32494
987.81        82.12278
988.20        81.44653
988.58        81.52417
988.96        82.10128
989.35        82.41042
989.73        81.49282
990.12        79.15891
990.50        75.93504
990.88          72.758
991.27        71.09827
991.65        71.26571
992.03        72.83335
992.42        75.11552
992.80        77.35361
993.18        79.12452
993.56        80.61983
993.95        81.68019
994.33        82.21251
994.71        82.13994
995.10         81.5587
995.48        80.72555
995.86        80.15105
996.24        79.99966
996.63        80.05322
997.01        80.57934
997.39        81.74905
997.77        83.42229
998.15        85.50059
998.54        87.20898
998.92        87.37015
999.30        85.78792
999.68        82.80083
1000.06        79.38803
1000.45        77.44475
1000.83        77.71631
1001.21        79.65482
1001.59        82.58118
1001.97        85.29228
1002.35        87.24568
1002.73        88.72989
1003.12        89.51055
1003.50        89.15392
1003.88        87.76559
1004.26        85.47129
1004.64         82.9653
1005.02        81.54437
1005.40        81.55447
1005.78        82.60506
1006.16        84.19021
1006.54        85.56388
1006.92        86.49083
1007.30        87.18739
1007.69         87.4805
1008.07          87.208
1008.45        86.28667
1008.83        84.72778
1009.21         82.9483
1009.59        81.72143
1009.97        81.26134
1010.35        81.37862
1010.73         81.8764
1011.11        82.34132
1011.49        82.59241
1011.86         82.8509
1012.24        82.74919
1012.62        81.91545
1013.00        80.31875
1013.38        77.95732
1013.76        75.50194
1014.14        74.44931
1014.52         75.2776
1014.90        77.54707
1015.28        80.17592
1015.66        81.43063
1016.04        80.86311
1016.41        79.09574
1016.79        76.54262
1017.17        74.33097
1017.55        73.17015
1017.93        72.73752
1018.31        73.10608
1018.69        74.53282
1019.06        77.20501
1019.44        81.37757
1019.82        86.95305
1020.20        91.49984
1020.58        92.70164
1020.95        90.65876
1021.33        87.19709
1021.71        84.25014
1022.09        81.96255
1022.46        79.62231
1022.84        76.99778
1023.22        73.67062
1023.60        70.45731
1023.97        68.33344
1024.35         67.6265
1024.73        68.28066
