SpectraSmart Spectrum 2.9.0.0
--------- Device Information -----------
Spectrum Name :  反射率_0
Saving Time :  2024/04/30 00:06:09
Spectro-Module Model Name : SE2030-DUVN
Spectro-Module Serial Number : OS361AC55029948
Wavelength Start : 200
Wavelength End : 1025
Wavelength Unit : Wavelength(nm)
Spectrum Unit : Reflectance(%)
-----------Spectrum Setting ------------
Integration Time : 20ms
Average : 10
Boxcar : 0
Background removal :  enabled
linearity correction :  enabled
SC :  disabled
Intensity correction :  disabled
DWT denoise :  enabled
savitzky-golay :  disabled
FFT :  disabled
Running average :  disabled
Kalman :  disabled
High pass :  disabled
---------------BEGIN--------------------
Wavelength(nm)             Reflectance(%)
200.29               0
200.75        77.87672
201.21        75.52867
201.67        73.20067
202.13        69.20464
202.58        63.10434
203.04        54.77815
203.50        47.12318
203.96        47.10357
204.42        56.70115
204.88        73.11475
205.34        88.54756
205.80        91.84525
206.26        84.03384
206.72        72.43844
207.18        61.50551
207.64        53.25032
208.10        47.08198
208.55        41.45893
209.01        37.20119
209.47        37.44736
209.93        42.06816
210.39        49.05839
210.85        55.31024
211.31        58.53817
211.77        58.80204
212.23        56.06589
212.69        51.01023
213.14        48.50039
213.60        50.44718
214.06        54.86084
214.52        58.22781
214.98        57.88303
215.44        54.31399
215.90        48.74187
216.36        43.18898
216.81        41.62672
217.27        46.35701
217.73        57.45702
218.19        74.72695
218.65        90.81873
219.11        97.73839
219.57        95.92137
220.02        90.23045
220.48        85.43652
220.94        81.19778
221.40        75.98533
221.86        67.97992
222.32        57.16353
222.77        47.70107
223.23        42.33365
223.69        40.23762
224.15        40.00508
224.61        40.82932
225.06        42.37858
225.52        44.69868
225.98        46.92843
226.44        48.25125
226.90        48.82316
227.36        48.32798
227.81        46.39269
228.27        43.12072
228.73        38.42794
229.19        33.67271
229.65        32.01332
230.10        33.92263
230.56        37.66639
231.02        41.02787
231.48        42.07466
231.93        40.81622
232.39        38.04211
232.85        34.76838
233.31        32.94587
233.77        33.26028
234.22         35.2606
234.68        37.95807
235.14         39.4917
235.60        39.35854
236.05        38.24975
236.51        37.33535
236.97        38.19285
237.43        41.36625
237.88        46.91488
238.34        54.41394
238.80        61.65047
239.26        66.24995
239.71        68.16811
240.17        68.04604
240.63        67.83021
241.08        68.47813
241.54        69.49968
242.00        71.70039
242.46         76.3996
242.91        83.76307
243.37        92.28316
243.83        99.77661
244.28        105.8278
244.74        111.2128
245.20        115.2666
245.66        119.0751
246.11        125.0016
246.57        133.1266
247.03        144.3639
247.48        152.0565
247.94        143.2562
248.40        122.7061
248.85        100.5631
249.31        85.69114
249.77        80.59438
250.22        83.82211
250.68        95.38158
251.14        115.0527
251.59        127.0124
252.05        119.5618
252.51        104.8849
252.96        93.01965
253.42        87.51168
253.88        86.01041
254.33        86.16269
254.79        87.31505
255.25        87.84856
255.70        87.02208
256.16        86.14532
256.62          85.163
257.07        83.80835
257.53        82.49239
257.99        80.92384
258.44        78.86282
258.90        76.98803
259.35        75.11036
259.81        73.65352
260.27        72.46163
260.72        71.40668
261.18        70.61177
261.63        69.69416
262.09        68.68782
262.55        67.24918
263.00        65.39842
263.46        63.57604
263.91        61.73777
264.37        60.17394
264.83        58.79038
265.28         57.4519
265.74        56.35342
266.19         55.5467
266.65        55.09036
267.11        54.86663
267.56        54.63892
268.02        54.08626
268.47        53.09871
268.93        51.76838
269.38        50.23227
269.84        48.87352
270.30         47.8107
270.75        46.95795
271.21        46.19304
271.66        45.26684
272.12         44.1319
272.57        42.85187
273.03        41.57767
273.48        40.45093
273.94        39.58525
274.39        38.87757
274.85        38.29594
275.31        37.70644
275.76        37.05133
276.22        36.39809
276.67        35.74573
277.13        35.20245
277.58        34.72221
278.04        34.30841
278.49        33.85423
278.95        33.31638
279.40        32.65066
279.86        31.97565
280.31        31.30205
280.77        30.77258
281.22        30.37181
281.68        30.08156
282.13        29.89465
282.59        29.86053
283.04           29.93
283.50        30.08901
283.95         30.1851
284.41        30.00372
284.86        29.52608
285.32        28.89555
285.77        28.26832
286.22        27.94811
286.68        27.99811
287.13        28.26715
287.59        28.68674
288.04        29.08542
288.50        29.40542
288.95        29.65166
289.41        29.79208
289.86        29.72992
290.32        29.50898
290.77        29.17533
291.22        28.85193
291.68        28.73051
292.13        28.87022
292.59        29.26689
293.04        29.92787
293.50        30.88843
293.95        32.12521
294.40        33.63113
294.86        35.28302
295.31        36.89474
295.77        38.40187
296.22        39.81466
296.68         41.2279
297.13        42.77957
297.58        44.50347
298.04        46.31806
298.49         48.1227
298.95        49.77934
299.40        51.25412
299.85        52.62009
300.31        53.97758
300.76        55.39041
301.21        56.92733
301.67        58.59084
302.12        60.33517
302.58        62.24088
303.03        64.25661
303.48        66.29742
303.94        68.34762
304.39        70.64652
304.84        72.64581
305.30        74.76935
305.75         76.7571
306.20        78.53636
306.66        80.11781
307.11        81.48251
307.57        82.78623
308.02        84.12977
308.47         85.5911
308.93        87.13998
309.38        88.68891
309.83        90.17806
310.29        91.57612
310.74        92.88353
311.19        94.06556
311.65        95.05501
312.10        95.83847
312.55        96.45982
313.00         97.0582
313.46        97.85926
313.91        98.88578
314.36        100.0703
314.82        101.2657
315.27        102.2577
315.72        102.9569
316.18        103.4349
316.63        103.7312
317.08        103.9253
317.53        104.0828
317.99        104.2229
318.44        104.3876
318.89        104.6609
319.35        105.0602
319.80        105.5596
320.25        106.1826
320.70        106.9561
321.16        107.8173
321.61         108.783
322.06        109.6381
322.51        110.0569
322.97        109.9759
323.42        109.5115
323.87        108.9239
324.32         108.658
324.78        108.8152
325.23        109.3446
325.68        110.0534
326.13        110.6045
326.59        110.8641
327.04        110.9652
327.49        111.0202
327.94         111.263
328.39         111.745
328.85        112.3273
329.30        112.9345
329.75        113.2398
330.20        113.1728
330.66         112.839
331.11         112.472
331.56        112.3585
332.01        112.6111
332.46        113.1637
332.92        113.8766
333.37        114.6646
333.82        115.3963
334.27        116.0878
334.72        116.7631
335.17        117.4716
335.63        118.1776
336.08        118.9017
336.53        119.4887
336.98        119.7682
337.43         119.725
337.88        119.4371
338.34          119.11
338.79        119.0829
339.24        119.4396
339.69        120.1146
340.14        120.9312
340.59        121.5708
341.05        121.9506
341.50          122.17
341.95         122.359
342.40        122.7506
342.85         123.382
343.30        124.1131
343.75        124.8462
344.20        125.4413
344.66        125.8568
345.11        126.1715
345.56         126.307
346.01        126.1263
346.46        125.6735
346.91        125.0139
347.36        124.4884
347.81        124.6099
348.26        125.4378
348.72        126.7826
349.17          128.25
349.62        129.0858
350.07        129.0869
350.52        128.5051
350.97        127.6751
351.42        127.1182
351.87        126.9941
352.32        127.1225
352.77        127.4439
353.22        127.8737
353.67        128.3206
354.13        128.7933
354.58        129.1299
355.03         129.048
355.48        128.4968
355.93        127.5545
356.38        126.3953
356.83        125.3027
357.28        124.3715
357.73        123.5476
358.18        122.7953
358.63        122.0445
359.08        121.2695
359.53        120.5066
359.98        119.7543
360.43        118.9975
360.88        118.2332
361.33        117.4552
361.78         116.661
362.23        115.8549
362.68        115.0422
363.13        114.2285
363.58        113.4295
364.03        112.6668
364.48        111.9436
364.93        111.2506
365.38        110.5801
365.83        109.9229
366.28        109.2749
366.73         108.638
367.18        107.9994
367.63        107.3359
368.08        106.6401
368.53         105.917
368.98        105.1892
369.43        104.4914
369.88         103.846
370.33        103.2649
370.78        102.7264
371.23        102.1973
371.68        101.6617
372.13        101.0946
372.58        100.5616
373.03        100.1693
373.48        99.90677
373.93        99.73183
374.38        99.44254
374.83        98.72264
375.28        97.55727
375.72        96.07199
376.17        94.63899
376.62         93.6293
377.07        93.11586
377.52        92.95973
377.97        92.99609
378.42        92.95475
378.87        92.73264
379.32        92.40278
379.77        91.98197
380.22         91.4907
380.67        90.93887
381.11        90.29939
381.56        89.60675
382.01        88.95572
382.46        88.39137
382.91        87.92744
383.36        87.51947
383.81        87.08047
384.26        86.58799
384.71        86.05298
385.15        85.54239
385.60        85.22062
386.05        85.07752
386.50        85.06016
386.95        85.00907
387.40        84.68741
387.85        84.07858
388.29        83.23779
388.74        82.46481
389.19        81.95286
389.64        81.73878
390.09        81.72029
390.54        81.78609
390.98        81.77217
391.43        81.66193
391.88        81.40343
392.33        81.01009
392.78        80.77416
393.23        80.61029
393.67         79.9128
394.12        78.93331
394.57        78.81483
395.02        78.42511
395.47          78.835
395.91         78.7866
396.36        78.83821
396.81        78.70583
397.26        78.46234
397.71         78.1596
398.15        77.84141
398.60        77.63087
399.05        77.39777
399.50        77.16417
399.95        77.16655
400.39        77.06917
400.84        77.15104
401.29        77.21317
401.74        77.07054
402.18         76.6988
402.63        76.14632
403.08        75.61063
403.53        75.35608
403.97         75.4149
404.42        75.69533
404.87        76.00489
405.32        75.98557
405.76        75.54756
406.21        74.98838
406.66        74.42854
407.11        73.72581
407.55        73.13463
408.00        73.33202
408.45        74.14663
408.90        74.59319
409.34         74.4984
409.79        74.23563
410.24        73.99944
410.68        74.01056
411.13        74.31581
411.58         74.7639
412.03        75.17051
412.47        75.29098
412.92        75.03207
413.37        74.52185
413.81        73.90154
414.26        73.45809
414.71        73.22753
415.15        73.14268
415.60        73.15575
416.05        73.23483
416.49        73.35603
416.94        73.54025
417.39        73.70668
417.83        73.70541
418.28        73.51977
418.73        73.17223
419.17        72.82823
419.62          72.778
420.07         73.0569
420.51        73.55348
420.96        74.07179
421.41        74.25503
421.85        74.01909
422.30        73.57433
422.74        73.04221
423.19        72.70736
423.64        72.60191
424.08        72.65143
424.53        72.80765
424.98        73.03324
425.42        73.27953
425.87         73.6703
426.31         74.0536
426.76        73.83702
427.21        73.01028
427.65        72.80853
428.10        73.12372
428.54        73.00561
428.99        72.53783
429.44        72.18713
429.88        72.05289
430.33        72.34077
430.77        72.92245
431.22        73.07588
431.66         73.8195
432.11        73.55144
432.56        72.77941
433.00        72.27791
433.45        72.37164
433.89        72.88476
434.34        73.44939
434.78         74.8216
435.23         72.5942
435.67        71.76768
436.12        71.43143
436.57        71.71329
437.01        72.37163
437.46        73.14137
437.90        72.88526
438.35        73.12124
438.79        73.60406
439.24        73.73935
439.68        73.56647
440.13        73.60715
440.57        73.91036
441.02        73.97379
441.46        73.70889
441.91        74.44032
442.35        74.03014
442.80        74.27848
443.24        74.54746
443.69        74.33324
444.13        73.75387
444.58        73.45727
445.02        73.44042
445.47         73.4596
445.91        73.47756
446.36        73.42043
446.80        73.22142
447.24        73.55524
447.69        73.32071
448.13        73.36085
448.58        73.38563
449.02         73.4846
449.47        73.65495
449.91        73.80257
450.36        73.93515
450.80        74.06242
451.25        74.18898
451.69        74.26254
452.13        74.28915
452.58        74.32046
453.02        74.32593
453.47        74.27679
453.91        74.15594
454.36        74.06142
454.80        73.77776
455.24         73.9348
455.69        74.28419
456.13        74.48512
456.58        74.57684
457.02        73.56902
457.46        73.70997
457.91        73.45602
458.35        73.37581
458.79        73.27264
459.24        73.22258
459.68        73.19845
460.13        73.11777
460.57        73.49748
461.01        73.56602
461.46        73.06835
461.90        72.98071
462.34        73.37309
462.79        73.62468
463.23        73.43969
463.68        72.69157
464.12        72.25816
464.56        72.18908
465.01         72.0601
465.45        71.83571
465.89        71.76267
466.34        71.84711
466.78        72.07698
467.22        72.31491
467.67        72.36926
468.11        72.20949
468.55        71.89152
468.99        71.52923
469.44        71.26875
469.88        71.15775
470.32         71.1722
470.77        71.24091
471.21        71.27032
471.65        71.21132
472.10        71.10782
472.54        71.00616
472.98        70.97225
473.42        71.00545
473.87        71.21049
474.31        71.45467
474.75        71.25166
475.20        70.75471
475.64        70.73983
476.08         71.1487
476.52         71.1776
476.97        70.79118
477.41        70.56657
477.85        70.44949
478.29        70.14498
478.74        70.77737
479.18        70.66547
479.62        70.24815
480.06        70.09571
480.50        70.23911
480.95        70.06019
481.39        70.68842
481.83         69.8948
482.27        70.45771
482.72        70.49305
483.16        70.58977
483.60        70.45008
484.04         70.8598
484.48        71.32144
484.93        71.72867
485.37        71.25011
485.81        69.83346
486.25         68.8708
486.69        69.84362
487.14        69.73397
487.58        70.04189
488.02        69.77243
488.46        69.76863
488.90        70.21534
489.34        69.80238
489.79         70.2271
490.23        69.19292
490.67        69.20613
491.11        69.58638
491.55        69.45167
491.99        68.89887
492.43        68.78194
492.88        69.14608
493.32        69.54749
493.76        69.86489
494.20        70.11342
494.64        70.24296
495.08        70.26234
495.52        70.19628
495.96        70.03877
496.41        69.87349
496.85        69.85361
497.29        69.84401
497.73        69.93783
498.17         69.7662
498.61        69.39466
499.05        68.90741
499.49        69.08256
499.93        69.72171
500.37        69.70229
500.82        69.09042
501.26        68.84098
501.70        68.96794
502.14        69.31759
502.58        69.08635
503.02        69.15142
503.46        69.27856
503.90         69.4159
504.34         69.5373
504.78        69.61707
505.22        69.64442
505.66        69.62733
506.10         69.5736
506.54         69.5156
506.98        69.46494
507.42        69.48917
507.86        69.14566
508.30         69.4191
508.74        68.93275
509.18        68.74561
509.62        68.55302
510.06        68.50323
510.50        68.61089
510.94        68.84391
511.38        69.13046
511.82        69.31553
512.26        69.35616
512.70        69.29037
513.14        69.17093
513.58        69.08259
514.02         69.0522
514.46        69.05326
514.90        69.06364
515.34        69.05241
515.78        69.01036
516.22        68.95213
516.66        68.89744
517.10        68.86906
517.54        68.87057
517.98        68.89542
518.42        68.91381
518.86        68.87555
519.30        68.77363
519.74        68.63906
520.18        68.52057
520.62         68.4548
521.06        68.47696
521.50        68.65376
521.93        68.91293
522.37        69.03899
522.81        69.00527
523.25        68.88692
523.69        68.77753
524.13        68.80286
524.57        68.98482
525.01        69.27566
525.45        69.55708
525.89        69.63902
526.32        69.47208
526.76        69.14598
527.20         68.7766
527.64        68.54784
528.08          68.507
528.52        68.59039
528.96         68.7285
529.40        68.82573
529.83        68.83399
530.27        68.76501
530.71        68.65076
531.15        68.57307
531.59        68.54853
532.03        68.53903
532.46        68.51494
532.90        68.47122
533.34        68.40041
533.78        68.31907
534.22        68.25302
534.66        68.23711
535.09        68.27089
535.53        68.35246
535.97        68.45139
536.41        68.53586
536.85        68.58911
537.28        68.60944
537.72         68.5977
538.16        68.55178
538.60        68.47405
539.04        68.37089
539.47        68.23264
539.91        68.10005
540.35        67.96922
540.79        67.85629
541.22        67.77179
541.66        67.74182
542.10        67.76452
542.54        67.83025
542.97        67.92785
543.41        68.05951
543.85        68.20422
544.29        68.36956
544.72        68.48286
545.16        68.47162
545.60         68.3257
546.04        68.04208
546.47        67.73991
546.91        67.71739
547.35         67.9678
547.79        68.20908
548.22        68.32474
548.66        68.50287
549.10        68.72185
549.53        68.63914
549.97        68.20148
550.41        68.75369
550.84        68.25272
551.28        68.19199
551.72        67.95077
552.15        68.15262
552.59        67.94264
553.03        67.95557
553.46        67.95155
553.90        67.97482
554.34         68.0047
554.77        68.08364
555.21        68.19573
555.65        68.15665
556.08        68.01736
556.52        68.10754
556.96        68.37649
557.39        68.52499
557.83        68.52856
558.27        68.49166
558.70        68.47213
559.14        68.37406
559.57        68.51791
560.01        68.50286
560.45        68.44463
560.88        68.21093
561.32        68.17339
561.75        68.18711
562.19        68.29269
562.63        68.08696
563.06        67.67425
563.50        67.64873
563.93        67.94191
564.37        68.11672
564.80        68.08308
565.24        67.96388
565.68        67.80148
566.11        67.73956
566.55        67.80947
566.98        67.82476
567.42        67.85862
567.85         67.9571
568.29        68.08833
568.72        68.32719
569.16        68.76518
569.60        68.10974
570.03        68.45522
570.47        68.37053
570.90        68.52453
571.34        67.82545
571.77        68.29893
572.21        68.33503
572.64        68.43472
573.08        68.40487
573.51        68.30761
573.95        68.11393
574.38        68.61981
574.82        68.23242
575.25        68.33602
575.69         68.2091
576.12        68.29208
576.56        67.84103
576.99        67.63801
577.42        67.92799
577.86        67.46712
578.29        67.47268
578.73         68.2084
579.16        67.69296
579.60        67.85352
580.03        68.07394
580.47        68.21468
580.90        68.15458
581.33        67.82574
581.77         67.8286
582.20          67.851
582.64        67.96027
583.07        67.80746
583.51         67.6609
583.94          67.661
584.37        67.41679
584.81         67.1852
585.24        67.48422
585.68         68.0319
586.11        68.46897
586.54        67.64162
586.98        67.20716
587.41        68.23156
587.85        68.15744
588.28        68.14849
588.71        68.58687
589.15        67.85441
589.58        68.06441
590.01        67.79601
590.45        67.81866
590.88        67.93093
591.31        68.17141
591.75        68.30501
592.18        68.45096
592.61         68.7829
593.05         67.4129
593.48        67.80007
593.91        68.58076
594.35        67.57432
594.78        67.51546
595.21        67.50858
595.65        67.69505
596.08        67.38319
596.51         67.9418
596.94        68.02583
597.38        68.16293
597.81        67.94707
598.24        68.02867
598.68        67.72327
599.11        67.66464
599.54        68.02668
599.97        68.65707
600.41         67.4444
600.84        67.59228
601.27        67.63856
601.70        68.05521
602.14        68.40855
602.57        67.78579
603.00        67.22894
603.43        67.08686
603.87        67.41145
604.30        67.80328
604.73        67.56126
605.16        67.48363
605.60        67.62189
606.03        67.66724
606.46        67.64158
606.89        67.62423
607.32        67.60657
607.76        67.59841
608.19        67.65449
608.62        67.59075
609.05        67.53347
609.48        67.73154
609.92        67.98737
610.35        67.66633
610.78        68.26073
611.21         67.4703
611.64        67.29971
612.07        67.75095
612.50        67.47872
612.94        67.56644
613.37        68.00933
613.80        67.66277
614.23        68.33073
614.66        68.21615
615.09        67.92655
615.52        67.80405
615.96        67.84457
616.39        68.03873
616.82         67.5747
617.25        67.81027
617.68        67.41811
618.11        67.59101
618.54        67.88623
618.97        67.85072
619.40        67.57059
619.84        67.46856
620.27        67.61086
620.70        67.96978
621.13        68.41628
621.56         67.6943
621.99        67.72102
622.42        66.84653
622.85        67.88344
623.28        67.60923
623.71        68.03675
624.14        67.03096
624.57        67.73837
625.00        67.66162
625.43        67.60033
625.86        67.47323
626.29        67.29854
626.72        67.51788
627.15        67.38321
627.58        67.57877
628.01        67.78815
628.44        67.69205
628.87        67.38721
629.30         67.2421
629.73        67.67831
630.16        67.80659
630.59        67.72156
631.02        67.89037
631.45        67.98074
631.88        68.03065
632.31         67.9312
632.74        67.76019
633.17        67.55943
633.60        67.40742
634.03        67.33438
634.46        67.30371
634.89        67.31657
635.32        67.38514
635.75        67.49511
636.18         67.6304
636.61        67.75031
637.04        67.80302
637.47        67.78976
637.89        67.68071
638.32        67.47073
638.75        67.36227
639.18        67.41248
639.61         66.9202
640.04        67.10953
640.47        67.02852
640.90        67.04182
641.33        67.12778
641.76        67.26329
642.18        67.38574
642.61        67.43881
643.04        67.44203
643.47        67.43968
643.90        67.48807
644.33        67.58819
644.76        67.80498
645.18        68.03247
645.61        67.91365
646.04         67.3774
646.47        67.25828
646.90        67.48567
647.33        67.50234
647.75        67.28693
648.18         67.1657
648.61        67.18297
649.04        67.28829
649.47        67.45467
649.89        67.63427
650.32          67.738
650.75        67.72951
651.18        67.64835
651.61        67.54384
652.03        67.51853
652.46        67.72599
652.89         67.9221
653.32        67.94025
653.74        67.67463
654.17        66.84873
654.60        66.74901
655.03        68.48562
655.46        66.52413
655.88         67.4898
656.31        67.21487
656.74        68.44694
657.16        69.17297
657.59        67.33655
658.02         67.2899
658.45        68.19418
658.87        67.77184
659.30        67.47958
659.73        68.40462
660.15        68.27188
660.58        68.07942
661.01        67.69778
661.44        67.42677
661.86        67.15607
662.29        66.95225
662.72        67.14195
663.14        67.57431
663.57        67.44802
664.00        66.88338
664.42        66.71768
664.85        67.00179
665.27        67.21413
665.70        67.29086
666.13        67.41069
666.55        67.56048
666.98        67.67469
667.41        67.72848
667.83        67.68351
668.26         67.5347
668.69        67.31049
669.11        67.08573
669.54        66.98264
669.96        67.02707
670.39        67.18079
670.82        67.36888
671.24        67.47622
671.67        67.45602
672.09        67.34369
672.52        67.21035
672.94        67.22397
673.37         66.8893
673.80        67.36259
674.22         67.1283
674.65        67.28954
675.07        67.44273
675.50        67.61214
675.92         67.7591
676.35        67.81041
676.77        67.77144
677.20        67.63821
677.62        67.48158
678.05        67.41953
678.47        67.47044
678.90        67.60466
679.32        67.74084
679.75        67.75504
680.17        67.61566
680.60        67.39544
681.02        67.16821
681.45        67.01604
681.87        66.96526
682.30        67.11796
682.72        67.18266
683.15        67.33905
683.57        67.50077
684.00        67.69443
684.42        67.85359
684.85        67.92216
685.27        67.89919
685.70        67.65504
686.12        67.34596
686.54        67.61449
686.97        68.31205
687.39        68.60023
687.82        68.39039
688.24        68.31698
688.66        68.37472
689.09        68.15629
689.51        67.74912
689.94        67.51024
690.36        67.48169
690.78         67.5676
691.21         67.7066
691.63        67.80085
692.06         67.8185
692.48        67.81328
692.90        67.79743
693.33        67.77415
693.75        67.74913
694.17        67.70046
694.60        67.66334
695.02        67.66161
695.44        67.68304
695.87        67.88603
696.29        68.17256
696.71        67.93194
697.14        67.33607
697.56        67.37361
697.98        67.96553
698.41        68.11942
698.83        67.83641
699.25        67.85554
699.68        68.13438
700.10        68.20624
700.52        68.03204
700.94        67.83054
701.37        67.64338
701.79        67.49162
702.21        67.39324
702.64        67.34882
703.06         67.3603
703.48         67.4419
703.90        67.58988
704.33        67.81159
704.75        68.02909
705.17        68.18293
705.59        68.22574
706.01        68.16941
706.44        68.08157
706.86        68.05881
707.28        68.11777
707.70        68.29885
708.12        68.52636
708.55        68.51353
708.97         68.3124
709.39        68.31309
709.81        68.53182
710.23        68.68153
710.66        68.74365
711.08        68.90919
711.50        69.13486
711.92        69.29133
712.34        69.36082
712.76        69.37928
713.19        69.33006
713.61        69.23421
714.03         69.0919
714.45        68.91546
714.87        68.75648
715.29        68.69076
715.71         68.7312
716.13        68.85596
716.56        69.00675
716.98        69.16574
717.40        69.27587
717.82        69.34283
718.24        69.36528
718.66         69.3468
719.08        69.29414
719.50        69.20728
719.92        69.09747
720.34        68.98621
720.76        68.88409
721.19        68.78346
721.61        68.71107
722.03         68.6781
722.45        68.68394
722.87         68.7249
723.29         68.7699
723.71        68.76704
724.13        68.70635
724.55        68.60361
724.97        68.49673
725.39        68.44749
725.81        68.47529
726.23        68.56595
726.65        68.68841
727.07        68.79618
727.49        68.86983
727.91        68.90652
728.33        68.93549
728.75        69.00581
729.17        69.12248
729.59        69.27563
730.01        69.38423
730.43        69.31969
730.85        69.07561
731.27        68.70889
731.69        68.36863
732.10        68.28512
732.52        68.50425
732.94         68.9568
733.36        69.49853
733.78        69.87794
734.20         70.0055
734.62        69.92036
735.04        69.73734
735.46         69.6944
735.88        69.82701
736.30        69.94971
736.72        69.98396
737.13        70.02797
737.55        69.98444
737.97        69.57349
738.39        68.98297
738.81        68.81993
739.23        69.10706
739.65        69.43617
740.06        69.62997
740.48        69.71157
740.90        69.62395
741.32        69.32698
741.74         68.9462
742.16        68.77367
742.57         68.8903
742.99        69.11261
743.41        69.38126
743.83        69.77125
744.25        70.15482
744.67        70.15394
745.08         69.8527
745.50        69.74837
745.92        69.89864
746.34        70.01415
746.75        70.06388
747.17        70.12518
747.59        70.18535
748.01        70.23435
748.42        70.26021
748.84        70.21383
749.26        70.10576
749.68        69.94643
750.09        69.77164
750.51        69.68762
750.93        69.69039
751.35        69.72188
751.76        69.76104
752.18        69.79882
752.60        69.81982
753.01        69.81921
753.43        69.78972
753.85        69.76179
754.27        69.75594
754.68        69.79595
755.10         69.8539
755.52        69.88673
755.93        69.86996
756.35        69.78795
756.77        69.76817
757.18        69.93357
757.60        70.28435
758.02        71.01208
758.43        71.78043
758.85        71.51307
759.26        70.41455
759.68        69.88596
760.10        70.06059
760.51        70.13805
760.93        70.09241
761.34        70.29569
761.76        70.62589
762.18        70.85047
762.59        70.87321
763.01        70.39056
763.42        69.62027
763.84        69.23854
764.26        69.35832
764.67         69.5381
765.09        69.73462
765.50        70.17083
765.92        70.69698
766.33        70.79062
766.75        70.43054
767.16        70.31628
767.58         70.4698
768.00        70.43562
768.41         70.2378
768.83        70.32414
769.24        70.57442
769.66        70.43348
770.07        69.99271
770.49        69.79765
770.90        69.93568
771.32        70.33556
771.73        70.86017
772.15         71.0836
772.56        70.94839
772.97        70.90398
773.39        70.57156
773.80        70.56885
774.22        70.76128
774.63        71.14086
775.05        71.51704
775.46        71.67919
775.88        71.54437
776.29        71.23257
776.70        70.84662
777.12        70.56873
777.53        70.46451
777.95        70.46125
778.36        70.56851
778.77        70.74308
779.19         70.9435
779.60        71.34245
780.02         71.7902
780.43        71.77489
780.84        71.40411
781.26        71.39661
781.67        71.76582
782.09        72.02564
782.50        72.08903
782.91        71.98966
783.33        71.75043
783.74        71.56057
784.15        71.44156
784.57        71.25822
784.98        71.04953
785.39        70.97058
785.81        71.04472
786.22        71.21722
786.63         71.4716
787.04        71.78399
787.46        72.12861
787.87         72.4761
788.28        72.78686
788.70        72.99609
789.11        73.08097
789.52        73.07475
789.93        72.99586
790.35        72.87379
790.76        72.74168
791.17        72.59914
791.58        72.50445
792.00        72.48091
792.41        72.54273
792.82        72.80329
793.23        73.17079
793.65        73.13405
794.06        72.83236
794.47        73.08517
794.88        73.71445
795.29        73.81036
795.71        73.30453
796.12        72.71108
796.53        72.24243
796.94         72.0787
797.35        72.31795
797.76        72.91299
798.18        73.61214
798.59        74.04507
799.00        74.08275
799.41        73.82676
799.82        73.43734
800.23        73.19672
800.64        73.19513
801.06        73.31731
801.47        73.51721
801.88        73.64583
802.29        73.65082
802.70        73.57439
803.11        73.46782
803.52        73.40471
803.93        73.42166
804.34        73.50179
804.75        73.57751
805.17        73.61452
805.58        73.64159
805.99        73.43155
806.40        73.12818
806.81        73.52238
807.22        74.38217
807.63        74.34882
808.04        73.53796
808.45        73.33702
808.86        73.84472
809.27        74.27085
809.68        74.45179
810.09        74.50632
810.50        74.38844
810.91        74.05602
811.32        73.67384
811.73        73.50799
812.14        73.61874
812.55        73.95789
812.96        74.34077
813.37        74.41792
813.78        74.11604
814.19        73.57709
814.60        73.03108
815.01        72.79659
815.42        72.94482
815.83        73.37675
816.24        73.95876
816.65        74.42181
817.05        74.64167
817.46        74.64624
817.87        74.53033
818.28        74.38526
818.69         74.2569
819.10        74.12381
819.51        73.99162
819.92         73.8875
820.33        73.82529
820.74        73.80101
821.14        73.85808
821.55         74.0582
821.96        74.38761
822.37        74.83171
822.78        75.23467
823.19        75.32155
823.60        75.02299
824.00        74.41193
824.41        73.71255
824.82         73.3097
825.23        73.29784
825.64        73.59988
826.04        74.02355
826.45        74.14003
826.86        73.87092
827.27        73.34792
827.68        72.82507
828.08        72.72208
828.49        73.08888
828.90          73.821
829.31        74.69012
829.72        75.30877
830.12        75.57406
830.53        75.50695
830.94        75.30689
831.35        75.27022
831.75        75.50214
832.16        75.83383
832.57        76.13165
832.97        76.13703
833.38        75.80095
833.79        75.28529
834.20        74.72545
834.60        74.28033
835.01        74.04023
835.42        73.92934
835.82        74.01758
836.23        74.35111
836.64         74.9257
837.04        75.74699
837.45         76.5211
837.86        76.91468
838.26        76.83376
838.67        76.36893
839.08        75.74712
839.48        75.31594
839.89        75.21901
840.29        75.35577
840.70         75.6254
841.11        75.87717
841.51        76.07339
841.92        76.21988
842.33        76.35619
842.73        76.52413
843.14        76.67115
843.54        76.80106
843.95        76.85223
844.35        76.80123
844.76        76.62451
845.17        76.33319
845.57        76.01077
845.98        75.75204
846.38        75.61112
846.79        75.57518
847.19        75.55552
847.60        75.34618
848.00         74.9412
848.41        74.41687
848.81        73.99172
849.22        73.98768
849.62         74.4922
850.03         75.3529
850.43        76.37083
850.84        76.98491
851.24        77.08189
851.65        76.69706
852.05        76.08897
852.46        75.64243
852.86        75.46296
853.27        75.50964
853.67        75.52831
854.07        75.36135
854.48        74.92621
854.88        74.31773
855.29        73.65454
855.69        73.39687
856.10        73.58018
856.50        74.16656
856.90         74.8133
857.31        75.05092
857.71        74.82059
858.12        74.22128
858.52        73.54066
858.92        73.20588
859.33        73.32389
859.73        73.80753
860.13        74.43612
860.54        74.86591
860.94         75.0319
861.34        74.94805
861.75        74.69284
862.15        74.45699
862.55        74.27017
862.96        74.11378
863.36        73.84046
863.76        73.24796
864.17        72.36661
864.57        71.32671
864.97        70.41684
865.38         70.0156
865.78        70.22527
866.18        70.90677
866.58        71.85386
866.99        72.60757
867.39        73.01707
867.79        73.16949
868.19        73.07322
868.60        72.75168
869.00        72.27311
869.40        71.61224
869.80        71.06951
870.21        71.16216
870.61        72.01042
871.01        73.41251
871.41         74.8623
871.81        75.54631
872.22        75.26202
872.62        74.24053
873.02        72.90075
873.42        71.96096
873.82        71.66798
874.22        71.85948
874.63        72.26251
875.03         72.4495
875.43        72.31176
875.83         71.9824
876.23        71.74869
876.63        72.06112
877.03        72.97504
877.44        74.25085
877.84        75.48333
878.24        75.93732
878.64         75.4677
879.04        74.36313
879.44        73.05466
879.84        72.16774
880.24        71.86278
880.64        71.93737
881.04        72.26862
881.44        72.64143
881.84        72.96039
882.24        73.33565
882.65        73.61041
883.05        73.64181
883.45        73.36516
883.85        72.82443
884.25         72.3277
884.65        72.37311
885.05        73.02759
885.45        74.10534
885.85        75.27105
886.25        75.93994
886.65        75.91939
887.05        75.40141
887.45        74.52389
887.85        73.54729
888.25        72.65851
888.65        71.83869
889.04         71.2233
889.44        71.06288
889.84        71.32072
890.24        71.97649
890.64        72.82597
891.04         73.4013
891.44        73.52987
891.84        73.32982
892.24        73.02232
892.64         72.9438
893.04        73.16423
893.44        73.55957
893.83        74.06432
894.23        74.48152
894.63        74.76417
895.03        74.98538
895.43        75.11456
895.83        75.10166
896.23         74.9481
896.63        74.62251
897.02          74.262
897.42        74.16254
897.82        74.35692
898.22        74.82244
898.62        75.25306
899.01        75.14069
899.41        74.39764
899.81        73.20097
900.21        72.05124
900.61          71.716
901.00        72.33064
901.40        73.65115
901.80        75.10638
902.20        75.74952
902.59        75.33965
902.99        74.17901
903.39          72.796
903.79        71.98972
904.18         71.9594
904.58        72.47422
904.98        73.18105
905.38        73.54429
905.77        73.40139
906.17        72.94612
906.57        72.42503
906.96        72.24103
907.36        72.45496
907.76        72.93215
908.15        73.43832
908.55        73.48045
908.95        73.01852
909.34        72.22973
909.74        71.46983
910.14        71.13175
910.53        71.35748
910.93        71.97272
911.33        72.87849
911.72        73.93742
912.12        74.95891
912.52        75.96837
912.91        76.85437
913.31        77.40424
913.70        77.56925
914.10        77.36247
914.49         76.8476
914.89        76.13773
915.29        75.33897
915.68        74.47459
916.08        73.75828
916.47        73.37417
916.87        73.40359
917.26        73.76655
917.66        74.32088
918.05        74.82955
918.45        75.15131
918.84        75.39074
919.24        75.47834
919.64        75.46935
920.03        75.39799
920.42        75.20329
920.82        75.02547
921.21        74.99518
921.61         75.1516
922.00        75.49429
922.40        75.86755
922.79        76.08679
923.19        76.06174
923.58        75.85027
923.98        75.59608
924.37        75.53965
924.77        75.71786
925.16        76.06898
925.55         76.3862
925.95          76.336
926.34        75.88065
926.74        75.12739
927.13        74.34111
927.52        73.90443
927.92        73.92571
928.31        74.27337
928.70        74.75292
929.10        75.03376
929.49        75.01097
929.89        74.73753
930.28        74.35756
930.67        74.04266
931.07        73.86074
931.46        73.78247
931.85        73.70552
932.24        73.48639
932.64        73.12767
933.03        72.71613
933.42         72.4231
933.82          72.507
934.21        73.03226
934.60         73.8315
934.99        74.75279
935.39         75.5315
935.78         76.1068
936.17        76.51856
936.56         76.5685
936.96        75.99886
937.35        74.87309
937.74        73.35455
938.13         71.9847
938.53        71.44551
938.92        71.80824
939.31        72.96014
939.70        74.43623
940.09         75.3072
940.49        75.24189
940.88        74.47567
941.27        73.52051
941.66        73.16586
942.05        73.59135
942.44        74.61613
942.84        75.68042
943.23        75.87438
943.62        74.93732
944.01         73.2052
944.40        71.53936
944.79        71.17965
945.18        72.35078
945.57        74.68797
945.97        77.21426
946.36         78.4644
946.75        77.89053
947.14        75.95383
947.53        73.63403
947.92        72.41344
948.31        72.67479
948.70        74.03493
949.09        75.69904
949.48        76.25081
949.87        75.30812
950.26        73.38044
950.65        71.40825
951.04        70.66577
951.43         71.4086
951.82        73.27002
952.21        75.41693
952.60        76.33411
952.99         75.5835
953.38        73.67268
953.77        71.61234
954.16        70.74263
954.55        71.33372
954.94        73.08125
955.33        75.16885
955.72        75.86465
956.11         74.6144
956.50        72.07449
956.89        69.48066
957.28        68.40464
957.66        69.18806
958.05        71.30689
958.44        73.94544
958.83        75.43373
959.22        75.17483
959.61        73.75006
960.00        72.01018
960.39        71.03619
960.78        71.04948
961.16        71.73305
961.55        72.64077
961.94        73.01851
962.33        72.60809
962.72        71.78345
963.11        70.89941
963.49        70.38921
963.88        70.36391
964.27        70.64211
964.66        71.17223
965.04         71.9338
965.43        72.75209
965.82        73.65295
966.21         74.4297
966.60        74.69565
966.98        74.40626
967.37        73.74598
967.76        72.94967
968.15        72.33735
968.53        71.98141
968.92        71.72059
969.31         71.7291
969.69         72.3307
970.08        73.47521
970.47         75.2048
970.86        76.76671
971.24        76.87847
971.63        75.30546
972.02        72.51202
972.40        69.74874
972.79        68.95831
973.17        70.47044
973.56        73.60026
973.95        77.24251
974.33         79.2953
974.72        79.00401
975.11        77.06123
975.49        74.49612
975.88        73.20921
976.26        73.68013
976.65        75.26842
977.04        77.31124
977.42        78.61467
977.81        78.59921
978.19        77.80687
978.58        76.62703
978.96        75.52811
979.35        74.78171
979.74        74.21662
980.12        73.99554
980.51        74.38251
980.89        75.42191
981.28        76.87357
981.66        78.54646
982.05        79.78017
982.43        80.46234
982.82        80.67874
983.20        80.28402
983.59        79.00203
983.97         77.0099
984.35         74.4794
984.74        72.39551
985.12         72.0769
985.51        73.62772
985.89        76.77612
986.28        80.23453
986.66         82.1781
987.04        81.89338
987.43        79.87349
987.81        77.09948
988.20        75.63295
988.58        76.00847
988.96        77.68684
989.35        79.41898
989.73        79.40442
990.12        77.18753
990.50        73.58316
990.88        69.73134
991.27        67.42806
991.65        67.13614
992.03        68.29375
992.42          70.318
992.80         72.6395
993.18        74.84491
993.56        77.13392
993.95         79.0715
994.33        79.98835
994.71        79.63324
995.10        78.22327
995.48        76.41595
995.86        75.32981
996.24         75.2665
996.63        75.88284
997.01        77.08463
997.39        78.38299
997.77        79.48194
998.15        80.52297
998.54        81.21795
998.92        81.13463
999.30        80.23261
999.68        78.59424
1000.06        76.77165
1000.45        75.83302
1000.83        76.19715
1001.21        77.58937
1001.59        79.54082
1001.97        81.20595
1002.35        82.26098
1002.73         82.9157
1003.12        83.19302
1003.50        83.06721
1003.88        82.65584
1004.26        81.95526
1004.64        81.20641
1005.02        80.87422
1005.40        81.06386
1005.78        81.62683
1006.16        82.39263
1006.54        83.10638
1006.92        83.68055
1007.30        84.19571
1007.69        84.47524
1008.07         84.3325
1008.45        83.67017
1008.83         82.5717
1009.21        81.37572
1009.59        80.67397
1009.97        80.62379
1010.35        81.02818
1010.73         81.7355
1011.11         82.4529
1011.49        83.01102
1011.86        83.55676
1012.24        83.67328
1012.62        82.92995
1013.00        81.25223
1013.38         78.6277
1013.76        75.68112
1014.14        73.84945
1014.52        73.65411
1014.90        74.79295
1015.28        76.26479
1015.66         76.3587
1016.04         74.6818
1016.41        71.87674
1016.79         68.7524
1017.17        67.05355
1017.55        67.33309
1017.93        68.72781
1018.31         70.7128
1018.69        73.13013
1019.06        76.22262
1019.44        80.37845
1019.82        85.58672
1020.20        89.78085
1020.58         90.9287
1020.95        89.05658
1021.33        85.83015
1021.71        83.02148
1022.09        80.75292
1022.46         78.3454
1022.84        75.74969
1023.22        72.86445
1023.60        70.49597
1023.97        69.40982
1024.35        69.47826
1024.73        70.23627
